INICIO:
29/11/2024 10:24:06
Leitura(ECG)
811
723
735
780
849
917
966
998
995
928
834
753
687
650
631
627
627
651
634
554
465
395
334
286
241
207
183
174
162
157
152
160
166
178
188
206
219
237
254
269
287
314
341
355
365
442
546
657
764
870
965
1026
1077
1120
1154
1172
1193
1193
1194
1194
1203
1171
1156
1304
1595
1611
1608
1394
1062
1101
1123
1153
1175
1190
1202
1212
1213
1218
1223
1236
1245
1253
1267
1278
1297
1317
1335
1335
1346
1345
1333
1303
1250
1163
1065
972
907
860
839
832
834
834
844
852
851
857
860
860
854
858
859
865
838
816
811
812
815
820
818
818
813
815
815
818
813
812
803
807
802
798
796
781
765
755
740
725
741
742
742
735
725
719
720
700
689
674
674
676
665
627
635
829
1202
1570
1226
498
472
537
591
621
637
658
672
691
699
716
739
762
766
787
804
829
851
877
916
947
981
1006
1019
1022
1019
987
917
822
746
675
618
583
580
575
580
606
616
630
644
661
678
702
729
755
731
734
743
759
764
773
779
784
786
784
773
784
803
785
764
762
756
763
779
789
792
799
809
812
808
806
820
817
839
857
862
854
856
854
849
836
829
819
821
822
809
765
781
1011
1403
1611
1355
625
612
657
701
732
787
799
802
806
809
816
820
830
845
857
880
899
924
959
992
1016
1034
1038
1036
1013
961
867
772
683
632
598
582
580
586
584
599
609
614
625
633
642
652
665
671
687
689
699
702
706
713
721
724
731
730
739
740
740
744
745
749
754
756
759
764
767
787
755
764
785
802
816
843
849
864
891
913
922
927
929
933
932
925
916
910
899
894
896
876
835
891
1165
1585
1612
1226
689
693
744
787
811
830
844
855
873
879
892
901
912
927
942
956
973
996
1017
1043
1067
1094
1110
1119
1119
1112
1076
1004
915
830
754
701
674
668
665
658
655
651
653
654
655
655
660
661
669
668
674
672
678
681
684
684
692
696
696
701
705
707
709
713
718
720
723
734
738
744
742
749
746
752
751
774
762
766
775
784
793
790
798
804
798
797
794
802
809
792
755
808
1084
1495
1606
1166
607
629
751
778
813
835
858
882
904
920
934
951
966
988
1006
1028
1042
1067
1093
1125
1143
1160
1157
1145
1123
1067
978
886
804
741
705
689
689
691
692
700
708
715
721
724
734
740
745
752
761
765
768
762
765
769
771
767
768
769
775
776
776
777
774
775
772
772
772
781
771
771
781
785
775
765
767
763
752
738
728
722
721
715
683
678
866
1240
1592
1230
501
495
572
628
675
698
727
741
754
769
793
813
830
838
857
880
902
927
943
979
1020
1046
1068
1086
1090
1086
1052
991
895
809
726
674
644
633
630
636
638
643
651
660
688
707
726
739
765
777
789
797
815
819
825
825
835
837
835
831
836
840
835
839
841
847
841
837
838
858
876
880
876
872
862
860
852
846
836
838
830
806
775
872
1167
1580
1602
960
588
643
698
744
771
787
803
818
838
843
872
866
859
865
895
914
936
1021
1053
1077
1083
1083
1075
1054
1009
933
832
744
670
627
604
599
589
594
607
616
618
629
635
643
652
663
670
670
679
684
687
691
702
704
705
711
719
716
725
725
734
734
740
748
748
744
752
765
789
802
804
808
806
807
802
789
780
781
781
766
727
823
1607
1279
619
626
695
758
789
826
845
859
882
896
917
925
939
951
967
980
1002
1022
1038
1055
1092
1115
1137
1142
1140
1134
1103
1039
942
828
727
677
659
655
665
673
682
697
708
719
728
741
744
756
759
765
772
777
773
778
779
783
775
780
782
786
782
778
779
785
776
755
756
766
774
770
757
749
745
740
733
718
716
716
706
666
702
937
1331
1597
1077
499
534
597
652
679
698
720
740
756
764
787
804
820
834
856
874
891
911
940
970
999
1032
1055
1070
1070
1058
1021
964
878
794
717
668
635
627
624
632
638
647
656
680
697
712
730
745
764
774
790
799
822
802
790
790
801
803
810
814
822
830
835
831
844
871
892
890
880
878
876
875
866
857
848
855
843
802
824
1045
1421
1611
1352
619
615
677
730
757
777
795
812
825
843
852
868
878
894
903
919
935
958
984
1012
1035
1098
1099
1074
1038
977
883
787
699
631
595
571
569
573
574
572
586
590
600
608
618
627
640
645
645
651
666
669
674
683
686
687
690
699
700
704
713
732
747
759
761
767
768
769
764
759
748
749
751
758
696
736
997
1415
1599
1045
518
580
641
706
738
762
813
834
867
889
914
942
962
984
1005
1033
1058
1088
1115
1144
1155
1167
1167
1158
1118
1055
965
874
795
746
715
709
700
705
712
721
722
730
743
751
758
766
770
771
774
778
781
783
785
781
790
787
783
780
788
791
793
792
791
787
789
783
792
809
823
834
831
830
814
795
768
761
750
724
679
751
1023
1442
1578
907
490
545
600
647
671
695
711
725
745
757
782
790
822
817
816
831
862
888
926
968
1008
1035
1060
1070
1070
1050
1005
925
839
760
697
661
646
646
646
648
658
673
670
684
696
708
710
720
721
731
735
744
748
756
769
785
796
804
813
819
832
836
840
838
845
847
855
854
858
858
859
851
864
883
892
889
884
883
881
872
859
855
842
848
847
825
788
867
1160
1576
1606
1017
608
660
713
759
774
795
816
829
841
856
869
881
897
899
917
937
954
968
996
1023
1050
1093
1086
1076
1009
909
811
723
654
602
584
582
567
576
590
604
609
622
630
644
647
655
662
674
679
688
690
702
703
711
719
718
718
721
720
720
728
734
737
737
742
746
758
759
760
761
762
760
763
768
789
808
821
821
821
810
813
813
813
811
808
807
748
817
1095
1519
1608
1204
633
675
729
789
820
844
861
881
893
908
926
939
950
960
973
988
1004
1021
1046
1074
1103
1127
1148
1158
1158
1145
1110
1038
950
856
772
718
692
680
694
680
661
663
675
687
698
708
720
732
737
758
758
762
765
773
777
776
777
784
785
782
778
767
763
747
736
734
737
728
727
715
715
716
713
706
717
734
752
751
753
755
758
753
742
734
735
737
736
716
677
776
1090
1524
1588
912
507
584
631
681
703
728
747
769
779
800
816
831
844
857
884
902
921
941
975
998
1033
1058
1085
1099
1098
1085
917
825
756
716
686
685
690
705
707
721
733
751
756
769
774
782
787
795
796
817
794
776
778
785
790
796
803
803
811
814
813
816
822
821
823
822
828
827
829
828
833
828
823
825
827
825
839
852
863
860
854
856
850
843
828
827
815
811
803
792
749
1327
1606
1427
632
551
598
645
674
690
700
715
726
742
761
766
781
798
816
831
850
871
902
931
962
992
1029
1042
1050
1048
1033
980
899
812
727
671
633
614
610
605
619
630
629
639
644
659
669
678
683
689
698
710
717
725
725
729
735
739
739
757
744
726
735
756
777
783
806
827
847
853
863
868
879
882
884
880
884
889
910
916
919
914
911
912
911
904
892
883
869
873
866
832
808
946
1277
1610
1593
873
628
682
736
771
794
816
828
842
858
870
887
890
903
913
928
944
962
981
1010
1034
1062
1087
1106
1112
1115
1018
924
825
725
664
622
607
596
590
586
598
601
609
614
631
630
637
644
656
659
656
663
671
679
685
692
695
702
704
707
711
726
724
725
728
743
734
756
742
712
711
727
730
744
755
762
773
798
815
817
821
832
834
831
828
819
808
810
819
793
763
1414
1610
1329
629
633
696
762
800
830
856
870
884
905
910
923
935
948
960
976
990
1004
1027
1051
1079
1109
1133
1150
1147
1145
1119
1068
978
875
795
734
693
668
673
667
676
683
691
687
697
703
713
716
724
732
738
736
741
745
750
752
754
760
756
755
763
770
763
762
746
742
735
728
718
718
707
703
720
737
748
748
756
736
713
704
705
699
700
707
722
691
681
848
1214
1603
1454
640
533
598
653
695
732
748
763
779
795
817
829
841
857
874
891
913
929
952
977
1014
1040
1069
1089
1100
1094
1085
1044
959
859
778
706
641
650
655
680
695
707
720
740
749
765
777
790
797
803
812
811
815
822
823
824
827
820
821
822
822
821
825
824
827
824
827
827
829
821
826
827
841
855
864
858
859
860
846
842
837
823
815
826
818
780
763
931
1282
1610
1301
583
569
627
687
725
750
813
826
830
832
844
851
854
857
873
896
915
940
969
999
1027
1047
1051
1054
1033
990
916
825
738
676
633
605
601
606
603
610
617
630
640
647
658
664
677
683
684
690
701
706
713
710
723
730
739
734
733
739
744
749
752
755
760
763
762
763
761
767
764
812
816
837
855
853
855
860
857
855
854
856
847
811
874
1140
1552
1608
1194
645
668
723
777
801
825
845
865
871
877
894
904
915
946
935
934
947
972
997
1034
1062
1087
1112
1132
1129
1117
1089
1022
936
843
769
711
688
672
670
672
683
697
707
707
712
715
722
731
726
726
716
710
706
700
693
693
683
687
685
689
694
692
687
698
702
696
690
713
735
755
760
753
759
762
756
747
747
738
742
743
709
718
921
1289
1603
1331
573
550
618
672
704
724
748
767
779
796
808
820
837
863
879
899
915
944
965
998
1023
1058
1095
1099
1097
1062
1001
917
841
774
731
695
674
676
698
707
715
729
747
758
772
779
787
795
806
808
814
811
819
823
818
823
822
825
820
821
820
818
814
823
809
809
826
842
844
849
841
837
830
823
805
799
799
796
772
731
830
1137
1552
1599
921
528
603
724
746
757
761
763
769
780
787
789
802
819
835
857
877
906
940
974
989
1022
1036
1038
1033
1013
944
859
768
685
631
602
585
588
594
606
613
623
633
643
651
655
666
676
685
694
702
707
718
719
730
739
720
694
692
700
717
730
744
749
755
764
771
773
803
835
851
861
867
880
878
881
874
873
875
885
848
837
1008
1363
1610
1569
799
641
701
758
796
819
844
854
870
887
895
902
915
925
942
957
971
986
1011
1033
1059
1084
1109
1120
1125
1127
1104
1052
971
884
797
731
684
668
663
663
667
675
681
693
699
712
715
730
730
721
713
710
708
701
701
695
696
689
688
689
695
692
697
707
704
711
715
717
718
724
725
729
744
724
709
707
713
732
759
781
790
799
799
810
806
810
804
792
798
806
792
754
785
1026
1431
1609
1258
607
623
674
726
750
764
776
792
807
825
840
878
898
926
961
988
1008
1039
1080
1110
1134
1151
1167
1170
1156
1110
1044
957
867
793
748
721
717
713
714
723
733
736
741
747
754
764
770
778
791
782
779
790
787
792
792
786
789
796
794
800
792
795
794
799
790
792
794
797
798
797
802
799
798
799
799
797
824
825
820
808
786
745
733
721
717
708
711
719
689
671
797
1138
1559
1523
737
498
564
622
666
695
718
737
746
770
784
800
811
827
845
861
878
895
918
947
978
1013
1042
1061
1071
1075
1070
1028
960
869
780
714
663
634
629
633
637
642
648
653
670
673
681
714
722
737
753
772
784
796
807
814
816
825
827
831
830
837
837
832
834
839
844
841
839
844
841
845
845
839
853
866
879
871
871
868
867
858
849
838
830
833
824
795
763
974
1327
1610
1461
649
559
631
690
733
757
782
799
811
826
845
861
871
888
908
958
974
987
1000
1025
1042
1056
1057
1061
1039
995
927
840
743
671
616
589
576
582
579
584
587
595
605
617
626
638
648
647
655
664
681
690
699
696
702
711
720
715
726
725
730
730
733
738
748
752
751
765
771
770
768
770
769
776
797
809
810
817
823
823
802
803
814
820
836
819
793
904
1225
1604
1609
1048
649
690
744
790
825
841
859
874
905
895
876
877
902
920
940
959
990
1015
1040
1070
1105
1121
1140
1152
1152
1139
1098
1019
925
836
759
715
692
682
676
686
693
704
701
705
713
720
720
724
733
739
743
749
757
762
755
742
733
723
719
709
706
698
701
692
698
698
704
698
701
701
708
715
711
711
718
727
749
763
768
782
772
775
776
775
767
766
759
767
768
741
708
813
1131
1563
1585
890
550
602
656
704
729
748
768
785
810
815
829
840
860
878
901
932
933
927
1009
1050
1088
1121
1138
1143
1118
1072
1000
910
819
771
736
726
726
728
733
747
754
763
768
776
777
784
794
799
799
799
802
804
802
802
802
802
802
801
799
792
798
802
806
805
800
795
801
800
805
802
803
801
796
800
820
827
834
839
833
832
827
823
822
792
788
766
720
776
1052
1459
1595
1001
462
528
594
643
664
684
705
721
740
745
763
781
790
804
831
849
870
896
924
958
987
1018
1046
1063
1070
1074
1041
955
844
747
670
625
600
597
606
613
622
636
648
661
672
681
681
693
706
714
725
737
743
745
750
754
764
776
783
792
803
814
827
834
845
852
860
850
849
851
855
869
885
897
893
891
886
884
880
868
854
857
853
851
811
795
946
1298
1609
1578
802
605
668
712
746
770
791
811
828
843
856
866
881
887
908
920
937
955
972
998
1033
1067
1089
1106
1114
1107
1094
930
828
736
664
620
594
588
588
589
591
602
601
606
630
612
591
600
618
626
642
654
652
669
679
678
688
697
705
712
715
719
724
728
735
738
744
745
753
756
763
759
765
775
795
805
808
805
803
803
800
795
789
789
795
801
759
745
899
1240
1598
1513
625
690
743
777
809
832
858
877
899
908
925
942
958
965
985
1007
1026
1039
1064
1088
1117
1134
1148
1152
1143
1107
1053
982
893
809
749
716
702
702
698
709
714
720
727
735
741
753
755
762
764
775
780
783
779
779
775
784
796
774
748
748
754
765
771
778
786
797
796
781
781
766
755
768
789
787
782
777
780
771
768
756
744
741
745
741
704
731
944
1327
1598
1230
540
549
602
662
691
716
731
751
765
787
799
814
832
844
862
880
901
917
946
972
1006
1035
1059
1076
1089
1085
1068
1016
950
856
771
705
670
645
640
642
661
671
686
707
728
748
759
780
784
787
799
806
812
812
812
816
820
822
822
830
825
822
832
826
819
821
821
814
831
849
875
848
815
804
807
808
808
805
813
819
805
762
818
1075
1473
1610
1192
571
619
683
732
767
791
810
828
837
846
860
866
879
880
929
938
952
960
978
1001
1021
1033
1036
1031
1011
969
884
794
706
641
592
575
564
567
574
583
586
599
606
616
628
638
648
652
663
665
672
682
693
691
702
705
711
710
717
720
721
727
734
726
740
741
738
742
766
783
796
804
801
802
801
799
791
784
788
758
749
929
1300
1610
1515
740
642
736
765
776
802
824
842
874
894
907
920
934
951
967
980
996
1014
1037
1066
1098
1117
1132
1144
1146
1143
1119
1065
983
891
810
748
708
686
682
684
689
696
710
709
713
717
734
735
741
741
756
759
763
762
766
770
764
766
770
772
767
761
748
741
731
731
728
720
709
727
745
760
759
752
756
751
742
728
723
725
733
716
689
736
983
1379
1593
1067
528
568
630
676
703
725
744
754
777
790
809
817
824
843
861
884
902
937
943
953
983
1018
1046
1065
1071
1066
1038
981
907
832
748
690
654
661
681
707
724
734
754
766
780
788
795
801
808
812
822
823
828
829
827
824
827
825
820
822
822
820
823
826
821
815
817
835
853
861
861
857
845
840
829
824
812
812
814
789
755
862
1183
1581
1586
855
547
629
687
731
759
781
792
807
832
841
847
887
901
902
909
921
941
965
986
1005
1019
1031
1030
1020
990
944
863
773
693
644
601
586
579
585
595
612
600
585
593
610
617
635
646
663
674
682
693
701
706
714
725
728
732
732
739
748
748
750
757
761
767
763
784
802
817
816
815
816
809
803
795
790
787
756
780
1006
1387
1610
1403
656
633
705
767
802
832
855
867
883
894
903
908
918
938
955
980
988
1006
1017
1036
1068
1100
1114
1127
1135
1129
1097
1045
968
883
794
731
695
674
668
670
677
681
690
696
708
716
726
727
730
730
743
746
749
751
753
752
753
752
761
764
734
711
701
691
684
693
711
729
742
754
750
754
753
747
742
740
737
745
732
697
728
965
1356
1605
1163
537
570
625
682
704
729
735
759
773
794
806
819
831
854
864
882
892
918
943
977
1006
1033
1058
1066
1066
1057
1034
981
908
825
752
693
664
647
651
665
691
706
719
734
763
777
782
792
801
809
815
824
821
820
817
824
824
826
829
831
824
824
826
825
829
831
822
816
827
846
863
865
864
859
857
851
851
829
824
833
806
743
761
971
1355
1610
1333
643
625
679
735
755
782
798
813
830
850
864
877
911
918
928
927
934
952
985
996
1008
1022
1031
1027
1014
974
909
831
755
679
632
611
596
593
597
605
615
626
632
647
650
658
664
671
674
680
686
690
697
707
710
710
715
720
723
733
737
738
735
741
749
745
741
755
787
798
797
799
809
808
800
791
785
793
771
760
900
1247
1604
1584
838
614
689
745
791
822
841
863
879
898
912
921
942
937
932
942
955
976
1008
1042
1069
1092
1114
1125
1131
1129
1118
1073
997
904
825
764
712
691
695
695
701
708
714
717
723
728
734
732
740
747
745
752
755
762
762
761
760
757
769
761
748
738
726
718
712
721
737
744
741
737
735
728
726
718
715
711
716
703
665
707
963
1354
1593
1073
470
530
596
653
686
703
727
745
758
776
793
806
819
837
859
882
901
922
946
974
1000
1035
1051
1064
1060
1054
1030
981
901
815
728
666
619
604
606
635
661
675
703
725
749
764
784
798
808
813
825
826
832
838
844
845
843
845
847
851
847
843
845
847
834
833
849
860
868
873
870
869
859
851
843
833
819
821
823
790
781
940
1291
1607
1478
685
597
656
712
747
777
790
800
810
831
836
851
862
875
888
932
950
956
976
991
1003
1010
1014
1010
1003
966
906
827
751
679
631
602
584
585
589
599
604
610
624
634
634
645
655
665
671
679
681
687
687
696
712
701
686
689
698
710
712
720
727
741
744
754
763
771
769
769
781
808
829
829
830
829
833
827
822
807
817
801
778
849
1115
1521
1607
1156
659
691
750
803
822
842
860
873
883
903
912
921
933
944
954
969
979
998
1017
1040
1064
1083
1096
1108
1107
1097
1074
1033
965
878
809
742
704
689
684
682
695
701
711
720
727
734
737
740
745
750
752
752
757
758
757
759
761
771
760
751
741
734
728
718
717
712
705
705
719
737
760
738
718
715
708
710
707
710
719
723
712
687
798
1103
1508
1544
801
494
592
656
703
722
748
765
783
797
815
828
844
855
871
893
904
923
937
966
995
1020
1041
1061
1064
1066
1057
1032
971
897
813
746
650
654
675
689
704
726
748
754
770
775
786
791
800
802
809
807
815
818
822
815
815
815
811
815
813
816
817
817
811
820
842
853
859
857
845
848
839
832
819
821
819
812
783
782
948
1299
1607
1427
638
576
648
699
753
756
754
765
788
807
825
844
860
904
915
927
940
962
980
993
1008
1019
1022
1017
996
958
888
813
729
668
622
603
594
595
600
600
609
623
626
634
648
654
664
671
673
680
687
691
698
698
703
701
710
713
722
722
728
742
759
767
781
785
787
782
784
776
773
763
768
773
766
727
762
1001
1411
640
572
650
727
775
806
824
845
871
886
904
919
931
939
948
964
982
1002
1021
1042
1064
1095
1114
1123
1116
1111
1093
1059
966
862
770
716
685
678
679
693
707
714
718
731
738
752
763
767
777
779
784
781
787
784
782
789
793
794
793
789
787
784
784
778
805
818
813
803
779
767
758
743
727
730
723
718
685
681
835
1173
1564
1330
578
519
589
646
671
690
708
726
741
758
779
790
811
826
842
854
876
900
929
945
973
999
1025
1036
1038
1029
1015
979
925
849
772
711
674
656
646
648
651
661
669
678
687
696
703
717
731
740
753
769
787
797
818
802
788
787
796
816
836
849
863
877
879
874
879
870
866
853
853
852
851
823
815
965
1298
1608
1544
748
603
674
734
773
790
811
821
837
855
870
882
889
894
909
925
945
959
980
995
1023
1049
1064
1074
1073
1067
1048
1004
934
738
688
655
636
621
618
618
625
632
637
640
646
647
656
660
666
663
667
673
673
678
685
685
695
691
695
697
701
704
711
727
752
766
770
765
765
763
761
751
749
754
753
746
720
811
1101
1592
1442
613
483
580
648
693
725
755
773
791
807
828
842
858
900
919
950
983
1022
1052
1083
1106
1128
1138
1139
1126
1100
1034
959
877
807
760
729
721
722
725
727
741
748
756
763
768
771
781
782
783
779
783
790
788
783
785
786
792
788
785
788
784
783
787
805
823
829
825
825
821
811
799
790
789
792
783
753
746
923
1562
802
535
593
649
683
698
708
724
731
738
752
768
781
796
807
829
847
867
890
919
945
968
995
1020
995
973
960
931
867
793
729
679
640
628
627
633
642
649
661
665
681
691
699
700
710
714
722
728
736
738
745
752
752
754
753
757
758
763
772
767
766
794
826
845
851
863
873
869
859
859
864
864
870
849
823
918
1212
1595
1594
922
642
694
759
788
812
833
849
862
867
877
891
907
926
937
943
955
973
984
1002
1030
1050
1058
1070
1079
1067
1060
1031
981
905
834
765
723
692
682
682
686
693
701
714
724
727
742
739
741
714
684
676
671
678
679
679
683
693
695
695
696
706
709
713
712
712
727
745
770
778
783
785
790
769
764
761
761
761
766
740
736
889
1230
1591
1400
626
545
619
687
719
748
768
778
791
813
831
836
854
866
882
901
921
937
960
980
1006
1027
1052
1054
1046
1036
998
931
860
806
762
738
730
737
744
745
751
765
776
782
783
787
795
801
799
803
803
799
801
805
805
799
807
804
806
803
801
800
797
788
797
810
830
841
849
824
800
784
785
777
778
787
794
773
764
907
1234
1597
1493
695
549
637
699
778
788
799
802
802
805
813
816
823
835
846
863
883
911
935
959
977
988
994
998
984
952
895
828
748
685
637
615
609
607
605
608
620
633
643
651
660
661
671
681
686
691
696
692
697
702
709
710
723
723
722
730
734
731
734
750
778
793
794
795
800
789
785
796
810
820
804
797
921
1238
1603
1576
833
620
697
760
800
822
841
859
877
885
912
907
899
907
923
940
963
983
1006
1029
1056
1077
1100
1102
1103
1095
1081
1041
968
889
821
766
724
705
699
701
704
706
713
721
726
735
736
745
749
748
744
751
758
759
762
756
750
742
732
723
716
707
699
706
732
744
752
739
741
737
730
720
718
714
720
721
683
708
904
1265
1587
1180
523
541
613
675
700
725
737
757
768
793
803
820
831
844
864
885
900
916
935
969
988
1005
1020
1027
1026
1021
1006
964
900
827
762
694
653
639
658
675
706
726
742
762
779
799
806
812
818
827
827
835
835
837
836
843
844
845
842
844
841
845
835
847
864
876
877
871
867
859
844
835
826
828
829
817
796
792
943
1278
1605
1417
665
592
663
718
744
765
779
792
814
827
837
851
861
874
889
904
960
970
980
985
994
1003
994
987
977
940
882
813
744
678
635
605
603
596
602
603
615
621
630
639
654
656
660
668
678
682
689
684
689
694
695
701
702
706
726
713
688
688
713
745
760
770
779
788
774
780
774
776
779
784
771
748
849
1149
1542
1577
854
663
738
773
802
826
852
874
894
913
931
943
963
969
982
1002
1020
1039
1064
1081
1100
1113
1112
1108
1102
1074
1023
950
863
804
754
727
707
708
712
717
723
730
743
748
748
756
768
775
773
775
775
775
782
784
779
777
778
778
780
771
770
780
808
819
827
822
805
795
773
763
753
748
712
697
827
1152
1535
1393
587
458
547
641
654
661
673
696
712
740
759
778
797
815
837
855
883
911
932
957
993
1011
1025
1037
1035
1025
1005
961
889
805
735
683
654
638
637
640
646
654
667
672
679
682
692
701
706
713
715
726
730
742
747
752
770
786
792
798
810
837
861
875
875
874
872
864
861
847
847
841
840
813
825
982
1317
1608
1455
681
614
683
745
781
803
819
835
849
861
877
884
899
909
921
935
955
967
987
1006
1030
1049
1071
1077
1071
1061
1042
989
893
792
727
686
669
658
659
694
695
697
691
692
689
689
688
693
691
687
685
693
693
695
692
702
698
701
707
704
701
698
707
727
753
760
757
756
755
753
751
730
739
746
744
720
726
883
1218
1575
1327
581
542
622
684
713
738
760
781
797
803
824
838
851
868
890
900
918
942
970
1021
1040
1061
1075
1082
1077
1050
1001
936
859
807
771
755
748
747
748
767
771
778
784
795
797
803
808
809
812
812
814
816
810
804
815
800
777
773
779
786
793
800
805
804
812
832
851
857
864
861
856
839
833
818
819
826
824
800
772
870
1163
1555
1551
836
679
730
736
740
743
753
759
767
773
788
795
803
817
833
848
867
887
907
943
956
962
973
981
969
949
910
848
779
716
673
645
626
620
619
626
634
643
652
660
671
681
690
693
700
705
713
713
716
719
727
725
731
734
741
742
748
752
744
746
757
780
804
812
823
825
827
833
837
846
847
840
819
994
1312
1607
1472
701
599
684
755
796
824
843
865
882
896
909
922
932
944
954
969
987
998
1010
1034
1054
1076
1088
1095
1091
1078
1056
1018
951
876
808
751
708
684
682
680
685
683
697
707
719
722
732
735
740
743
745
749
740
723
715
712
707
701
690
692
687
689
701
720
733
743
741
742
736
729
725
719
718
730
723
693
729
946
1305
1589
1162
486
528
608
675
704
732
755
775
780
800
814
827
835
850
871
892
917
939
974
977
976
995
1015
1021
1023
1017
994
940
874
803
676
665
682
699
714
725
738
752
769
780
788
797
807
818
826
829
827
826
819
819
817
821
815
825
823
823
815
825
841
858
862
852
847
844
834
826
818
819
819
809
769
803
1023
1389
1606
1199
575
604
668
726
752
769
785
800
817
830
842
853
867
883
896
947
953
968
982
995
1001
1004
996
987
958
913
849
773
697
647
609
599
598
600
607
606
621
631
636
637
650
657
678
665
656
654
661
671
683
690
701
705
712
721
731
734
741
742
744
762
782
801
809
808
807
807
796
796
784
790
786
779
742
773
983
1366
678
571
653
724
766
798
828
847
867
882
898
916
927
932
955
975
991
1008
1028
1045
1068
1079
1094
1102
1106
1097
1074
1036
964
896
833
773
723
707
711
716
711
721
723
733
736
748
753
762
773
776
772
771
777
784
778
778
783
784
783
780
785
783
787
786
785
792
788
780
771
755
781
771
754
742
739
737
740
739
729
720
721
731
721
696
747
989
1372
1579
1019
524
568
638
694
719
738
760
770
787
801
813
821
835
850
865
885
907
928
946
967
993
1016
1027
1036
1032
1025
1007
965
899
829
758
715
681
670
671
670
670
693
711
720
737
755
779
788
794
804
819
817
817
819
823
820
824
831
830
828
828
833
832
833
830
832
829
839
834
834
834
839
835
846
864
876
872
869
866
864
858
842
832
832
828
819
815
761
821
1092
1490
1595
979
560
628
693
746
766
790
807
820
839
877
880
882
889
895
906
915
931
946
963
981
994
992
990
983
972
931
876
792
726
669
629
606
601
606
606
611
628
634
637
649
658
670
673
680
686
697
698
700
697
705
710
718
715
723
727
723
727
735
744
744
751
755
757
761
761
766
781
792
813
815
821
836
835
831
837
845
852
859
836
816
924
1239
1597
1604
953
607
681
744
796
827
841
857
874
889
910
903
896
901
916
946
965
980
1004
1036
1059
1079
1097
1113
1117
1111
1084
1046
980
901
827
762
716
696
697
686
695
696
708
714
724
722
728
735
740
754
755
762
755
740
726
725
717
716
702
696
695
697
696
700
696
694
697
698
700
706
721
742
752
757
757
758
764
754
756
738
750
755
748
721
726
893
1245
1593
1358
591
532
605
674
716
743
761
776
790
801
825
832
844
859
879
891
920
936
956
977
1008
1029
1052
1066
1068
1023
949
872
803
755
727
709
711
727
737
750
756
769
778
789
792
801
802
814
821
820
821
826
823
826
823
816
817
814
815
810
814
812
814
808
816
812
818
806
802
808
809
809
832
850
858
853
845
845
836
824
819
814
806
811
803
775
758
892
1595
978
552
590
643
685
700
707
718
726
739
747
764
772
790
797
819
838
858
873
900
932
962
983
1002
1011
1015
999
973
932
862
790
723
677
641
625
624
627
628
638
646
666
655
649
654
667
675
690
702
712
714
723
730
738
741
748
756
755
760
761
761
774
788
802
815
824
832
849
879
899
903
905
903
902
898
888
878
872
872
875
861
824
848
1060
1433
1607
1298
668
658
729
776
799
819
832
846
864
873
878
885
901
912
928
942
955
978
999
1017
1032
1058
1067
1080
1073
1064
1040
1001
936
856
783
732
699
687
672
687
690
684
679
680
680
676
677
677
681
684
683
685
687
684
690
685
685
690
704
685
667
668
676
684
695
707
711
736
764
782
782
785
784
784
773
775
775
777
774
761
737
834
1127
1516
1570
869
544
614
674
723
747
770
790
799
815
829
845
853
874
888
934
958
991
1024
1055
1088
1123
1128
1119
1124
1098
1052
970
889
819
772
741
727
717
717
725
735
733
741
754
760
762
771
780
785
787
787
788
788
801
795
791
790
798
793
792
790
792
789
790
785
802
824
835
831
825
827
823
813
798
790
789
796
774
738
856
1585
926
511
571
620
668
695
715
723
733
751
762
766
786
797
816
832
854
872
891
915
958
976
1003
1012
1029
1027
1014
972
912
831
756
689
648
615
606
609
615
622
632
639
648
665
684
676
680
698
701
707
707
717
719
726
728
738
740
743
746
750
748
744
785
807
827
836
847
849
853
851
851
855
855
848
819
837
1031
1392
1611
1416
689
644
693
770
812
837
834
847
861
882
892
906
916
932
942
957
972
996
1011
1056
1055
1054
1063
1075
1073
1069
1039
985
916
841
772
725
699
683
681
685
699
708
715
716
730
734
738
753
745
742
731
724
719
714
705
707
705
713
715
727
729
731
737
758
770
784
790
805
812
810
808
808
815
825
817
793
799
969
1303
1599
1421
627
546
604
665
682
692
691
700
697
705
708
706
705
714
714
724
736
742
757
788
833
901
964
1017
1060
1079
1074
908
841
781
751
737
736
745
749
769
785
799
817
840
855
898
888
876
870
875
884
888
886
893
893
902
898
898
890
878
859
841
838
853
851
836
814
786
757
726
702
689
683
669
649
607
665
916
1314
1535
909
355
434
495
556
582
609
626
640
661
688
704
753
771
790
841
892
957
992
1041
1080
1100
1104
1122
1137
1166
1175
1152
1117
1102
1110
1117
1133
1155
1179
1197
1212
1206
1197
1183
1172
1155
1105
994
908
848
804
754
719
694
690
680
678
687
711
714
706
706
717
742
755
759
764
744
717
707
695
702
717
735
718
683
750
1604
1312
557
544
632
719
776
824
860
887
890
902
892
885
876
896
952
1045
1119
1180
1221
1252
1270
1280
1276
1256
1232
1217
1176
1085
978
880
790
723
689
667
666
669
669
657
670
666
663
659
655
638
626
615
612
612
614
620
618
603
590
575
553
539
525
514
492
467
455
433
396
371
350
337
314
301
297
287
247
244
431
803
1212
947
128
86
186
259
316
351
385
405
434
464
519
530
546
582
637
686
739
786
846
911
970
1024
1066
1090
1105
1113
1087
1035
951
884
854
860
873
907
947
963
930
931
955
981
987
978
946
891
750
743
759
775
806
828
857
877
897
914
947
959
974
995
1029
1059
1076
1075
1075
1088
1086
1091
1075
1077
1075
1079
1052
1019
1112
1440
1613
1613
1293
803
828
892
936
969
988
1002
1009
1018
1018
1023
1036
1038
1050
1068
1083
1078
1087
1093
1119
1140
1173
1196
1217
1209
1204
1154
1064
782
727
692
669
654
626
607
585
565
548
544
528
522
502
505
486
477
458
449
433
433
424
425
413
412
401
397
392
408
426
434
433
423
423
417
416
407
412
410
419
410
382
470
777
1191
1378
667
229
330
413
475
507
530
548
564
577
593
611
615
606
604
696
810
921
1045
1169
1283
1372
1427
1449
1474
1480
1449
1394
1318
1257
1208
1188
1171
1174
1184
1201
1197
1202
1191
1200
1190
1183
1177
1181
1174
1162
1144
1139
1136
1110
1067
1061
1059
1060
1076
1081
1082
1082
1067
1035
1026
1008
995
983
987
965
923
927
1137
1513
1614
1550
798
700
737
792
845
853
853
860
854
854
866
888
900
921
917
908
893
880
872
877
864
837
804
769
710
612
465
276
120
2
0
0
0
0
0
0
0
1
0
0
0
0
112
266
348
385
412
436
451
470
490
518
546
579
606
633
641
659
673
680
671
675
684
685
682
739
1057
1527
1611
1238
726
767
861
932
964
997
1058
1101
1138
1181
1198
1185
1205
1234
1270
1306
1346
1378
1420
1457
1496
1518
1533
1537
1526
1492
1432
1346
1242
1158
1097
1064
1051
1058
1063
1069
1073
1085
1087
1098
1101
1111
1113
1124
1128
1133
1136
1136
1134
1131
1131
1130
1132
1129
1130
1129
1191
1189
1175
1160
1146
1122
1110
1092
1084
1082
1072
1035
981
1054
1324
1608
1603
1101
638
650
698
720
681
604
518
446
395
374
516
464
409
354
300
313
414
514
587
678
788
889
935
967
1025
1017
984
924
871
823
800
779
771
753
713
651
620
598
588
576
569
555
547
500
492
504
516
533
531
549
561
579
578
580
574
586
601
617
619
619
622
624
602
580
574
570
579
581
559
558
741
1104
1521
1282
527
479
556
623
662
680
710
729
747
761
784
799
816
839
857
878
897
925
951
984
1010
1040
1053
1069
1072
1068
1033
982
899
825
692
671
660
651
651
649
668
674
689
690
701
701
711
710
719
721
729
734
738
737
750
730
714
706
710
724
754
778
790
796
796
795
790
793
781
790
791
792
751
773
982
1365
1603
1388
587
567
637
693
727
756
776
796
811
824
842
856
867
877
895
913
932
987
1018
1050
1077
1091
1102
1097
1078
1038
971
896
806
758
724
704
696
704
707
720
725
739
746
757
758
769
770
782
784
785
786
787
786
784
781
775
793
800
814
813
820
810
813
806
806
798
798
787
785
763
734
811
1093
1476
1603
1010
468
556
623
680
741
741
784
800
801
813
812
826
836
855
869
892
911
945
966
988
996
1002
997
980
944
875
803
727
676
636
625
617
619
617
627
630
641
645
660
664
681
688
698
699
705
708
716
718
722
724
721
718
718
732
750
776
780
781
774
780
773
774
765
773
770
772
750
1220
1587
1489
676
527
635
715
780
816
853
868
888
897
918
929
945
953
968
981
996
1012
1032
1050
1065
1086
1096
1105
1101
1091
1063
1018
942
870
798
755
723
729
697
683
685
703
712
732
741
756
760
774
779
786
788
792
799
801
801
798
797
790
788
800
829
837
833
821
805
783
766
753
746
734
697
731
947
1308
1594
1120
459
500
570
637
667
697
709
729
742
761
774
791
804
826
842
860
880
904
926
952
977
990
1002
1004
1005
990
963
904
839
764
710
662
648
634
638
639
649
656
668
677
686
694
702
711
719
724
726
734
740
753
760
779
783
790
794
818
849
869
879
873
871
864
868

FIM:
29/11/2024 10:25:06
29/11/2024 10:25:06
Leitura(ECG)
713
599
551
602
854
1254
1594
1159
512
576
661
731
767
806
829
856
874
922
908
840
764
701
651
616
587
571
560
567
568
579
577
584
577
575
545
498
432
375
324
298
286
293
356
447
549
634
721
786
852
897
944
975
1008
1026
1044
1052
1064
1070
1073
1073
1077
1076
1070
1069
1082
1104
1108
1108
1095
1088
1070
1060
1040
1037
1028
1030
1001
977
1082
1398
1603
1607
1117
753
802
861
907
931
953
964
976
982
992
994
1006
1009
1023
1027
1041
1050
1070
1083
1101
1116
1117
1122
1114
1099
1049
988
904
825
762
744
735
746
752
770
775
791
792
802
802
809
806
809
807
809
805
804
804
802
800
796
794
792
791
781
777
784
806
811
817
806
804
791
783
766
762
756
756
736
699
759
1024
1416
1589
950
481
546
607
664
686
707
746
755
752
757
757
766
772
785
798
815
834
854
879
896
912
917
920
905
893
848
789
713
655
606
581
560
560
562
577
581
590
597
606
610
617
627
633
638
640
648
650
658
660
669
672
681
683
692
696
681
679
709
724
739
738
747
746
752
743
748
753
724
765
990
1383
1607
1258
598
628
697
773
801
833
847
868
880
897
907
919
930
940
953
966
984
999
1020
1036
1060
1070
1082
1082
1081
1060
1043
991
930
852
793
742
719
706
704
703
710
721
730
736
743
751
753
761
759
765
763
769
767
774
768
776
773
776
777
775
778
788
799
797
789
773
767
750
740
724
730
726
723
682
701
891
1254
1588
1229
519
521
590
655
684
723
720
721
733
754
777
797
820
838
861
882
908
928
960
981
1007
1021
1038
1036
1040
1025
1001
944
878
804
747
704
683
674
671
672
679
688
695
703
709
726
728
746
759
774
785
797
805
808
812
814
822
821
822
819
838
858
878
876
872
864
862
851
846
835
840
836
823
786
870
1158
1546
1604
985
556
628
685
740
771
791
813
825
844
853
870
879
900
910
928
939
956
970
995
1015
1036
1047
1054
1052
1045
1028
991
816
740
684
629
598
583
589
591
606
608
621
627
639
642
653
657
664
667
677
680
684
690
688
699
696
698
700
726
746
766
763
761
756
758
747
747
740
747
749
733
710
835
1163
1551
1534
757
506
590
652
700
732
750
772
786
808
820
842
850
871
883
906
960
989
1025
1055
1085
1097
1107
1102
1093
1058
1006
925
858
794
759
737
735
734
744
751
761
768
775
779
786
793
795
801
802
807
803
805
800
806
802
807
798
803
797
797
785
816
814
810
801
804
801
804
798
797
793
799
797
782
752
848
1154
1554
1597
916
546
710
739
749
758
761
769
777
784
789
801
813
824
842
857
881
901
929
948
975
981
992
987
982
949
896
819
748
680
640
615
609
607
612
619
631
640
646
658
664
676
682
692
695
707
710
718
716
723
720
730
730
735
737
745
747
750
749
750
767
790
806
807
818
817
826
824
837
844
852
820
811
973
1329
1608
1570
802
630
692
757
802
823
858
852
852
861
880
894
914
928
949
963
989
1002
1030
1048
1075
1089
1103
1103
1101
1084
1059
1006
932
854
788
740
707
696
691
695
698
707
710
721
722
733
731
740
740
748
745
756
752
741
734
726
720
708
708
699
702
696
698
693
699
693
697
705
733
747
753
751
749
750
748
744
734
736
737
743
712
697
831
1180
1583
1501
703
529
591
660
697
726
742
763
778
797
810
824
840
858
876
893
915
932
958
978
1010
1028
1051
1071
1053
1021
918
850
797
754
729
720
725
733
742
754
767
781
787
797
801
811
811
820
820
829
826
832
829
833
829
829
822
823
819
819
816
815
816
815
815
813
813
809
812
810
813
809
829
838
848
841
843
840
841
830
824
810
804
803
804
777
745
844
1152
1569
1594
600
649
703
714
730
736
743
750
761
768
779
791
805
821
836
855
874
902
927
958
974
996
1000
1004
990
974
925
862
784
720
664
637
621
619
620
625
634
661
649
640
645
659
671
681
696
704
716
721
731
735
746
748
758
758
768
767
775
774
783
785
791
798
803
820
830
844
845
863
883
906
908
914
909
915
906
899
884
874
864
865
866
841
810
910
1224
1601
1608
1000
630
668
729
774
803
815
833
842
861
869
886
896
910
918
932
946
966
984
1005
1031
1051
1069
1079
1087
1077
1064
1025
971
888
814
739
696
667
663
673
672
670
663
661
654
657
654
659
655
661
659
668
663
667
677
664
643
648
649
662
666
680
686
699
700
705
709
716
718
721
745
768
783
784
788
784
788
781
780
770
775
775
776
733
746
941
1328
1599
1395
606
551
617
676
719
745
768
783
804
818
835
867
893
918
948
977
1014
1042
1073
1103
1124
1139
1140
1135
1114
1077
1002
925
841
782
736
717
705
711
711
718
721
732
737
746
752
760
765
771
776
778
780
778
781
780
782
777
780
776
779
775
780
775
782
779
786
783
785
783
782
790
794
792
797
798
806
805
803
794
780
778
761
722
702
876
1230
1602
1432
630
508
573
633
672
694
715
733
749
765
779
794
806
824
837
861
878
906
927
957
983
1015
1029
1046
1047
1046
1023
982
906
827
748
690
651
635
633
635
645
648
660
665
679
687
701
705
718
718
728
728
739
736
749
760
772
784
792
808
814
828
830
840
840
850
850
857
852
856
853
857
854
853
857
877
887
889
892
886
883
878
871
858
851
842
858
813
754
818
1109
1532
1608
1099
609
634
698
750
781
795
815
829
846
859
873
885
897
909
922
940
955
976
995
1021
1042
1084
1076
1059
1022
969
888
799
717
654
614
590
581
579
585
590
601
603
615
621
635
637
651
652
663
665
672
674
684
684
691
692
698
702
708
711
715
723
723
728
727
737
736
745
746
756
758
767
765
774
771
781
779
786
789
798
812
830
835
833
831
831
823
820
826
831
846
843
814
828
1036
1417
1612
1305
669
648
710
770
802
829
851
872
888
902
912
925
934
950
955
976
988
1014
1031
1058
1076
1099
1107
1118
1112
1105
1078
1034
960
878
802
742
703
683
679
677
683
687
698
701
712
713
724
723
732
730
738
734
742
749
742
735
727
722
711
710
702
705
699
703
699
706
699
702
700
708
708
714
715
722
723
727
727
732
736
739
746
746
757
773
793
793
797
792
802
798
797
788
784
774
781
779
751
728
876
1219
1601
1553
661
569
610
670
703
727
751
776
796
818
834
852
892
921
948
980
1008
1041
1070
1102
1125
1139
1147
1144
1136
1104
1051
973
898
824
774
740
731
720
725
726
739
741
751
754
762
765
772
776
779
783
784
785
783
787
785
787
785
791
785
789
783
786
783
790
785
790
789
795
791
794
792
796
795
796
794
792
795
799
820
814
807
790
785
772
764
751
744
731
725
723
716
678
705
930
1320
1598
1262
555
526
586
640
675
692
731
725
727
736
761
778
806
823
848
868
895
914
949
975
1008
1030
1050
1062
1066
1058
1034
988
911
832
755
701
663
653
645
646
647
658
655
667
672
693
704
721
740
750
766
776
795
799
809
808
818
817
827
825
828
825
832
832
833
830
833
833
828
838
857
876
874
874
867
867
855
854
837
836
831
835
803
782
910
1260
1605
1588
838
559
631
685
736
763
785
800
816
827
844
856
874
886
903
915
937
949
1018
1040
1052
1057
1067
1031
987
939
870
784
703
643
602
582
575
581
582
593
597
611
617
632
636
653
656
670
677
687
690
703
705
710
711
714
717
717
722
722
725
724
730
731
738
733
733
745
772
784
795
790
793
785
786
778
774
772
779
773
731
749
970
1575
771
555
635
714
761
803
827
852
870
889
902
921
936
947
962
977
994
1008
1031
1055
1086
1107
1135
1146
1154
1144
1126
1075
1003
905
821
750
711
689
684
683
689
695
704
713
717
734
722
709
714
723
729
742
748
758
759
768
768
774
770
778
774
780
777
783
784
776
785
793
796
788
781
767
761
743
736
722
725
718
707
654
708
972
1410
1605
1088
511
536
593
645
673
695
717
731
753
765
785
797
818
828
855
872
900
923
953
976
1010
1034
1058
1065
1067
1056
1029
967
884
799
725
679
649
639
636
647
651
666
674
687
708
723
737
753
771
783
795
803
813
815
825
824
831
830
834
833
841
834
841
839
848
824
826
836
854
858
865
864
865
859
852
846
849
851
835
793
848
1114
1528
1611
1170
641
649
713
757
784
796
815
823
838
843
860
866
885
895
912
924
944
963
985
1011
1070
1076
1059
1044
1009
955
868
786
706
649
612
594
588
590
598
604
611
618
628
631
642
645
657
659
671
672
684
680
689
689
699
699
701
704
713
716
723
726
728
735
737
739
736
758
777
800
803
805
800
805
797
793
781
788
786
787
749
769
979
1364
1600
543
615
689
745
781
819
843
875
894
917
929
950
960
980
991
1012
1029
1054
1073
1099
1119
1135
1146
1146
1137
1109
1058
976
894
811
755
715
704
696
704
702
714
717
729
730
742
742
749
752
757
759
764
766
767
770
769
769
764
768
766
770
765
771
767
769
762
809
813
802
790
772
756
741
729
718
720
714
689
654
794
1132
1548
1479
660
450
545
604
655
686
711
727
743
758
774
790
804
821
836
857
872
900
923
956
1005
1016
1012
1026
1030
1035
1012
971
891
814
738
689
654
647
640
648
657
670
677
686
695
701
711
718
740
746
765
773
789
795
805
811
819
822
827
829
834
839
835
835
828
849
867
885
884
882
872
869
854
850
838
842
837
828
779
804
1030
1428
1609
1405
641
604
665
720
754
777
798
811
831
840
858
864
884
893
916
929
949
965
993
1015
1044
1065
1082
1090
1091
1017
930
837
741
676
625
603
589
592
590
598
601
606
610
634
620
613
615
624
632
645
656
665
674
679
690
692
703
705
716
717
728
728
736
735
743
741
750
749
753
754
779
798
811
812
810
811
805
802
792
789
788
795
778
741
795
1068
1478
1601
1147
586
700
736
771
798
828
850
878
896
917
926
945
957
979
991
1017
1036
1062
1083
1110
1127
1140
1138
1130
1108
1063
991
906
831
768
732
710
706
705
714
719
728
733
746
746
756
758
767
766
774
773
776
775
779
778
779
781
780
789
772
753
751
756
763
770
776
783
795
797
786
780
768
764
754
748
750
767
777
779
781
777
778
772
765
755
753
747
751
738
707
738
971
1354
1598
1174
556
556
624
682
709
726
743
758
774
790
805
822
836
856
869
891
905
929
950
981
1003
1031
1044
1059
1057
1056
1031
993
922
845
771
714
676
652
666
678
700
711
735
744
764
771
784
791
801
803
807
808
811
816
815
818
817
818
812
820
817
824
817
820
815
821
815
833
807
785
779
802
822
839
845
852
850
851
838
833
824
825
826
818
782
791
993
1369
1610
1450
661
578
651
702
751
768
791
800
842
849
850
857
861
868
874
890
904
929
950
981
997
1016
1019
1019
997
962
890
807
727
664
619
597
588
589
594
600
607
612
623
631
647
652
663
668
681
685
696
695
706
703
709
707
717
716
720
720
725
727
729
736
738
741
738
758
780
798
801
805
805
797
793
802
813
822
799
793
956
1309
1612
1434
648
600
673
737
785
812
840
856
877
893
915
922
941
948
963
974
995
1010
1038
1064
1093
1116
1134
1141
1140
1127
1096
1035
945
858
776
721
683
675
670
677
673
687
690
701
702
716
720
729
732
738
741
749
753
755
761
752
748
731
727
715
716
704
706
700
698
692
706
727
740
744
741
742
737
736
729
723
718
726
717
689
676
859
1226
1599
1439
625
503
582
642
687
713
737
755
774
791
805
819
832
851
865
885
907
950
953
963
991
1027
1050
1071
1075
1077
1048
998
913
831
679
667
675
687
703
715
733
743
759
765
783
790
805
809
816
818
823
818
822
819
819
816
814
812
812
813
813
816
814
817
814
819
811
809
802
827
842
855
849
847
840
838
826
820
811
812
811
797
750
803
1070
1484
1610
1188
556
585
652
706
739
758
780
822
833
835
837
841
849
860
871
890
910
937
963
996
1012
1030
1028
1026
999
956
872
787
705
649
609
592
596
583
567
577
588
606
618
634
644
659
668
680
690
698
707
711
719
721
730
729
739
739
748
748
759
759
768
768
775
774
779
777
783
779
780
794
829
841
843
859
863
865
860
862
864
870
857
816
865
1135
1553
1612
1323
664
667
722
779
807
837
850
873
884
900
907
921
928
943
952
970
981
1003
1021
1048
1074
1099
1117
1128
1128
1115
1089
1030
950
855
778
717
687
667
666
665
676
678
691
693
706
710
720
724
738
739
727
728
699
674
665
666
664
671
672
683
683
693
694
702
701
712
712
715
719
723
723
743
765
779
784
786
787
788
785
775
768
761
770
765
739
710
854
1191
1594
1561
771
527
598
659
704
729
752
769
786
801
813
832
847
863
876
898
915
937
960
1038
1064
1096
1116
1126
1123
1099
1048
969
889
812
763
730
721
713
722
724
738
742
758
759
766
768
778
780
788
786
790
790
790
790
791
793
791
789
785
789
788
792
788
793
788
806
784
766
758
767
764
773
791
823
830
839
837
842
839
834
823
817
816
818
768
846
1130
1531
1594
935
535
572
632
670
691
702
716
726
743
756
771
785
800
815
829
853
868
896
918
952
975
1007
1021
1037
1035
1027
992
941
862
787
713
665
635
622
621
625
632
640
653
660
672
678
688
693
700
702
714
716
725
725
737
735
741
741
748
759
763
780
788
808
817
830
832
845
841
847
853
878
894
899
895
896
894
886
877
865
866
848
823
791
778
926
1276
1608
1574
821
615
675
738
782
809
825
846
854
874
881
898
905
919
927
945
958
976
994
1017
1038
1064
1086
1096
1102
1092
1075
1031
965
878
799
667
651
640
636
629
624
627
632
635
637
642
642
651
652
662
661
672
671
675
672
679
679
686
683
689
691
700
702
708
710
714
720
718
721
736
765
778
789
785
788
780
782
775
771
766
776
769
744
737
919
1283
1603
1453
651
537
617
674
719
747
785
782
800
830
859
895
922
954
977
1009
1032
1063
1092
1124
1145
1161
1164
1159
1142
1095
1023
933
851
780
744
720
719
718
726
723
729
729
741
744
754
755
764
766
775
780
780
782
784
785
785
789
783
785
783
788
786
789
781
788
784
786
779
795
810
830
831
830
826
808
794
777
772
758
733
683
769
1056
1471
1578
883
472
537
592
649
672
696
710
727
744
757
770
784
806
820
843
860
886
908
939
965
1001
1027
1048
1052
1064
1020
962
885
810
734
681
641
631
626
635
641
649
659
673
685
694
705
710
722
727
737
740
747
747
761
767
779
790
802
812
821
829
833
839
841
850
847
854
851
856
854
856
846
861
876
890
885
888
884
886
877
869
858
849
847
845
828
785
843
1105
1523
1609
1188
620
635
688
748
766
789
802
822
830
844
852
867
875
887
903
920
939
958
980
1004
1033
1052
1085
1068
1041
985
909
819
736
665
620
596
587
585
587
593
611
597
586
592
603
618
630
645
652
666
670
684
687
699
700
708
708
720
725
732
731
738
741
747
752
759
763
767
769
769
775
774
777
779
786
783
800
813
827
825
826
820
824
816
812
802
796
798
770
763
904
1259
1606
1582
859
644
693
765
799
824
841
860
877
891
902
917
928
939
953
964
983
996
1017
1032
1063
1083
1107
1117
1128
1116
1109
1072
1019
937
858
782
734
702
691
689
693
697
701
710
717
727
732
742
745
761
743
726
724
734
737
748
750
761
767
766
758
753
747
740
734
727
727
722
724
721
729
723
727
721
728
721
728
741
764
768
774
768
773
771
767
756
752
747
748
754
737
700
748
1008
1408
1600
1156
549
565
625
679
714
732
755
766
787
798
813
826
847
863
878
893
910
933
958
987
1015
1044
1075
1082
1071
1043
985
910
834
776
736
719
717
719
731
736
747
751
768
773
782
782
796
799
805
802
808
807
813
811
814
813
814
822
803
778
777
779
788
795
804
810
812
816
815
819
823
848
861
866
863
864
856
856
840
836
819
822
821
813
763
801
1044
1510
703
552
611
649
687
698
719
724
738
747
765
773
786
797
814
831
854
878
901
931
962
994
1017
1036
1038
1040
1019
983
911
829
742
681
633
617
607
611
613
623
627
635
641
648
660
669
678
685
695
698
704
708
717
717
728
729
737
735
743
741
749
749
759
770
782
796
800
819
846
878
880
887
892
875
846
841
831
836
839
850
822
798
910
1241
1606
1609
996
637
675
733
778
803
823
837
852
864
878
888
903
908
924
932
952
965
991
1009
1042
1063
1088
1099
1106
1098
1082
1042
975
889
804
736
688
665
655
657
657
678
677
678
672
671
667
667
665
665
665
667
671
671
675
673
681
679
687
689
694
694
701
701
707
706
712
713
720
717
724
741
765
776
782
784
784
786
781
777
768
773
774
779
747
730
854
1184
1587
1394
657
566
616
687
710
741
757
783
797
820
833
853
895
913
945
972
1010
1039
1079
1104
1135
1147
1159
1152
1141
1101
1040
953
872
800
753
729
717
718
720
728
731
742
747
758
758
766
766
774
772
780
778
784
780
784
784
788
784
786
786
787
789
791
793
791
793
790
794
790
793
792
793
788
803
822
837
834
840
830
811
792
773
766
754
737
688
734
974
1377
1594
1119
523
539
589
652
671
694
711
731
742
758
775
787
804
837
833
834
853
882
915
951
990
1019
1046
1058
1067
1056
1032
973
895
806
741
683
658
641
645
643
653
660
671
680
690
694
700
707
714
719
723
729
739
750
761
780
786
799
806
814
822
829
835
837
840
839
841
844
868
884
894
885
882
874
873
862
860
852
852
846
831
783
844
1120
1522
1611
1218
605
629
684
739
768
785
807
819
838
846
861
867
887
893
912
921
944
963
991
1015
1043
1068
1087
1096
1093
1081
930
837
743
670
607
571
556
563
565
579
582
595
602
617
623
633
639
653
659
669
677
682
685
687
694
697
704
707
716
717
725
723
729
725
733
730
737
734
761
779
791
791
792
789
788
782
775
772
773
777
763
722
751
992
1397
1602
1269
598
583
642
699
760
786
810
839
863
888
905
927
942
968
983
1008
1028
1057
1083
1114
1132
1150
1150
1150
1125
1084
1008
922
839
773
732
709
702
703
712
715
725
728
743
750
763
766
775
772
779
790
776
752
757
756
767
768
775
775
783
784
791
790
794
799
802
800
800
804
799
831
835
831
814
807
794
785
767
755
742
740
738
720
679
719
957
1359
1600
1115
543
547
611
661
689
703
722
734
754
764
784
793
812
826
843
860
883
907
932
964
993
1021
1040
1058
1058
1052
1027
983
906
831
752
701
662
655
646
653
654
665
669
679
687
701
721
730
750
760
776
784
797
806
817
817
824
826
832
834
835
836
836
841
843
849
855
836
816
818
820
826
833
859
875
880
876
878
872
874
860
857
844
844
839
838
803
789
936
1284
1610
1563
802
614
662
718
754
770
786
799
815
824
844
852
869
876
896
937
954
971
983
1001
1015
1026
1029
1031
1012
983
919
846
757
686
629
601
581
581
581
592
597
605
613
623
631
640
647
653
660
662
674
675
681
681
692
692
700
699
708
705
715
712
720
720
726
730
737
736
737
750
776
793
796
801
799
806
799
796
797
777
744
721
800
1101
1516
1609
1169
615
663
726
788
819
844
861
882
896
913
921
935
943
963
973
991
1002
1025
1042
1072
1092
1119
1131
1139
1135
1126
1094
1031
946
857
780
722
688
669
673
675
686
687
699
701
713
712
721
725
736
737
743
747
754
755
756
756
758
761
764
764
749
744
730
732
724
717
713
731
747
752
746
745
743
739
737
729
727
727
735
720
682
719
972
1375
1598
1169
547
558
619
673
703
722
740
753
789
782
784
793
816
835
860
884
913
938
968
1001
1032
1064
1080
1093
1091
1085
1047
991
902
824
745
702
673
666
675
692
712
726
746
758
774
780
793
796
808
807
817
815
824
821
822
819
820
817
823
820
819
818
818
820
818
820
818
820
813
818
834
855
853
859
852
853
842
838
822
816
812
814
806
769
776
969
1339
1609
1385
667
607
654
718
739
761
771
789
798
841
846
852
855
859
869
880
899
915
942
961
990
1003
1014
1018
985
919
850
769
704
641
607
588
590
593
606
610
623
631
645
655
666
674
680
686
693
701
704
712
712
720
721
726
722
728
724
733
732
740
738
744
746
751
752
759
762
766
770
774
778
796
826
830
847
853
862
859
862
856
860
861
856
816
832
1038
1417
1612
1474
750
666
718
774
802
818
838
845
864
871
889
897
912
919
934
945
965
982
1005
1029
1058
1084
1100
1113
1114
1110
1086
1045
969
886
801
743
694
677
665
681
660
655
658
673
681
696
703
717
737
738
734
725
721
712
710
701
705
700
702
695
700
700
708
706
714
713
717
714
719
718
730
749
759
764
763
765
760
760
754
751
746
754
748
736
694
767
1048
1466
1594
1043
522
580
634
694
723
746
763
782
797
808
827
840
858
872
894
910
936
954
984
1053
1082
1105
1122
1127
1110
1070
994
912
831
772
731
721
714
724
727
738
739
750
753
765
768
776
778
786
787
793
798
799
802
815
792
774
771
773
781
784
791
790
798
801
809
803
807
814
844
853
856
850
850
842
838
826
820
812
814
813
791
748
830
1123
1308
612
581
629
675
697
706
720
728
742
750
761
771
783
796
810
829
848
872
895
929
958
993
1014
1032
1032
1032
1005
958
877
798
717
665
626
613
608
612
616
625
635
643
654
664
677
682
691
695
705
703
715
716
729
728
737
738
748
750
755
753
757
759
769
781
788
809
811
823
842
874
884
903
878
865
856
861
855
857
857
866
863
830
821
994
1353
1611
1564
819
663
707
774
801
821
835
851
861
877
885
902
906
919
923
939
947
966
986
1012
1036
1061
1079
1092
1097
1089
1073
1033
967
878
799
730
691
665
664
659
677
676
675
674
671
671
669
671
668
673
668
672
669
675
673
682
682
690
689
696
694
703
703
708
710
718
723
727
729
731
740
737
745
763
783
787
794
789
796
791
790
780
777
771
778
775
757
725
904
1224
1598
1438
692
560
621
692
727
750
770
789
806
856
870
898
921
951
970
998
1020
1049
1077
1107
1130
1146
1159
1157
1146
1113
1061
980
899
820
766
729
719
708
715
716
726
728
739
744
754
757
763
765
771
775
776
778
778
783
776
774
770
775
772
781
778
784
779
785
782
789
786
787
787
790
789
803
823
835
834
822
815
792
781
758
753
745
740
698
691
848
1206
1590
1431
649
520
578
637
674
691
713
727
749
761
791
787
786
796
821
844
876
901
934
962
1001
1026
1055
1067
1077
1070
1054
1007
936
848
769
706
666
646
643
647
650
655
657
664
668
681
684
696
700
711
719
727
742
757
771
781
790
796
808
813
822
823
830
827
835
827
832
843
870
876
880
873
871
868
861
853
843
841
840
837
800
780
922
1276
1608
1568
794
592
652
713
752
780
795
815
825
843
850
864
874
891
902
918
936
957
981
1003
1033
1053
1078
1090
1101
1049
981
865
755
654
605
580
575
574
581
587
599
606
614
621
631
643
651
662
665
676
678
688
688
696
696
704
703
713
712
719
716
723
720
727
725
724
726
747
773
779
783
778
781
777
774
764
764
763
774
758
721
758
1015
1418
1603
1174
580
591
649
707
763
786
807
839
860
888
906
927
941
965
985
1009
1031
1059
1086
1114
1137
1148
1155
1145
1127
1077
1007
915
836
766
730
706
707
705
716
718
728
731
740
742
750
754
762
765
781
762
749
747
755
759
766
770
776
783
783
788
788
795
794
797
795
803
794
800
815
849
841
829
818
800
789
770
762
752
749
711
683
784
1098
1524
1531
794
524
571
636
668
692
708
725
738
753
770
785
803
814
833
847
869
887
915
936
969
994
1026
1040
1053
1049
1041
1007
950
866
787
716
671
646
637
636
638
647
651
661
668
678
682
696
698
720
729
745
756
769
782
791
802
807
817
819
828
828
834
830
837
836
842
836
851
829
815
820
847
857
869
866
872
872
872
862
857
847
847
847
838
799
823
1039
1422
1610
1337
677
644
704
754
781
792
810
818
836
843
857
865
880
890
904
917
934
950
970
1041
1053
1062
1051
1042
1011
973
898
814
728
662
614
592
584
584
583
588
597
604
619
625
636
639
648
649
663
666
674
677
686
685
693
692
701
704
710
714
716
720
728
736
737
742
746
752
750
764
785
806
805
813
809
815
807
807
797
794
791
806
766
712
1306
1609
1410
669
619
690
769
806
835
855
879
891
914
929
944
951
966
975
991
1002
1024
1043
1068
1094
1118
1137
1145
1146
1133
1113
1060
988
895
815
745
708
682
679
677
689
690
701
705
716
719
728
734
742
746
751
757
759
762
761
766
762
765
760
766
762
771
771
766
754
746
736
726
730
745
762
757
759
751
750
740
740
728
729
724
730
716
679
717
971
1376
1601
1127
526
551
611
672
697
722
736
758
771
805
798
797
807
829
848
876
898
934
961
997
1025
1056
1072
1091
1090
1082
1047
987
900
814
740
690
665
655
656
663
677
687
710
723
742
754
766
775
785
794
802
807
810
815
816
822
821
829
824
828
824
827
821
830
824
827
825
828
820
826
845
861
860
860
858
856
851
839
834
823
826
822
817
770
791
1000
1389
1610
1364
652
618
667
728
747
770
783
799
812
829
840
875
888
887
900
906
924
936
962
981
1003
1014
1021
1017
1007
939
848
757
687
629
597
580
579
583
593
603
611
625
630
642
647
663
667
678
681
688
690
703
705
713
713
722
722
730
734
738
742
746
749
752
757
758
762
763
768
765
773
790
813
812
822
818
818
816
818
826
834
847
830
808
882
1172
1577
1609
1107
672
690
754
795
821
834
853
865
878
888
900
910
922
935
944
962
975
998
1015
1044
1066
1094
1106
1117
1113
1107
1071
1019
934
850
772
719
685
673
670
674
680
685
700
693
680
685
694
706
718
725
735
740
761
756
754
744
741
731
728
721
719
716
717
717
716
717
718
724
722
726
724
730
734
758
765
775
771
774
772
775
762
758
748
754
754
755
724
704
844
1186
1590
1507
742
561
618
677
716
730
753
768
789
802
821
829
848
858
877
893
917
938
961
988
1015
1079
1088
1104
1100
1089
1038
970
887
819
762
732
718
719
727
735
744
752
762
764
772
775
787
789
795
793
798
795
802
798
812
787
771
762
772
771
782
782
791
791
801
801
804
805
807
806
819
841
848
850
846
846
842
840
825
820
813
818
809
785
746
858
1606
1165
563
566
616
663
687
697
714
722
738
743
759
764
781
794
814
826
854
879
909
937
969
996
1019
1033
1037
1032
1006
958
875
794
713
660
621
611
606
616
619
629
631
644
649
663
669
680
687
696
704
711
719
721
728
733
737
738
745
742
750
749
756
761
770
780
796
809
812
822
845
885
873
857
854
858
857
856
852
855
853
862
848
813
848
1096
1495
1609
1314
682
663
724
782
809
826
842
857
870
879
887
900
909
922
931
945
958
980
994
1025
1048
1076
1090
1105
1101
1096
1066
1019
938
854
773
714
677
662
658
665
673
668
671
665
668
662
666
662
666
667
669
671
673
676
676
679
680
685
685
690
689
698
697
707
706
715
716
722
722
730
726
738
760
783
784
790
792
792
791
784
782
773
778
780
778
734
807
1055
1455
1593
1032
563
602
663
722
742
769
784
806
819
865
886
907
936
957
986
1007
1038
1062
1098
1120
1146
1155
1162
1150
1133
1091
1023
937
858
788
743
722
715
719
722
728
730
741
743
753
754
762
764
773
771
777
775
782
776
780
777
782
781
781
781
781
783
787
788
784
787
784
788
784
787
784
792
785
791
805
829
822
809
795
777
763
746
735
725
727
708
672
708
947
1333
1593
1088
530
540
604
655
681
696
714
744
743
737
752
767
792
808
833
856
883
910
937
967
992
1023
1039
1057
1058
1055
1028
983
906
828
753
705
667
656
648
653
654
666
670
680
686
694
703
709
724
730
750
759
777
783
796
802
815
818
824
828
832
836
838
842
841
844
843
845
841
861
877
891
889
890
881
879
867
862
844
845
843
839
800
794
957
1307
1608
1516
745
604
666
724
765
782
803
814
832
841
859
867
883
892
910
918
940
955
978
999
1026
1088
1084
1081
1029
963
883
801
716
655
605
586
575
585
586
598
599
611
622
634
639
647
652
661
672
678
685
687
694
698
703
701
706
702
710
708
717
715
726
727
731
728
745
763
782
786
787
787
790
786
779
775
773
779
774
741
733
912
1270
1599
1456
679
672
730
764
793
820
842
867
884
904
915
933
942
964
979
1004
1019
1046
1067
1098
1115
1134
1141
1143
1128
1095
1030
945
858
781
733
703
698
694
702
704
716
720
731
734
746
757
745
724
731
734
749
750
761
764
774
775
782
778
784
786
789
786
788
790
787
783
826
837
819
811
792
783
761
748
737
730
726
706
667
733
1010
1427
1580
949
508
547
611
655
682
695
716
728
748
756
774
787
809
823
842
857
883
906
933
962
989
1015
1031
1045
1046
1045
1017
967
884
808
732
681
644
636
630
638
643
656
662
674
680
691
698
715
730
738
756
764
782
789
801
806
818
820
827
828
832
834
840
842
838
846
844
843
854
860
861
864
862
858
848
845
841
849
841
810
810
999
1359
1609
1430
716
640
700
759
785
800
816
827
839
848
857
870
877
893
901
917
930
953
968
994
1015
1042
1055
1075
1052
1004
933
844
758
684
636
606
594
586
594
594
607
609
626
629
639
641
654
656
663
668
675
679
682
685
687
691
692
700
702
708
710
719
717
726
726
737
734
736
735
762
784
799
800
801
798
799
792
788
783
786
790
781
745
765
980
1491
1598
1015
643
710
753
781
814
838
865
887
907
923
939
957
972
987
1003
1026
1041
1065
1084
1111
1124
1141
1139
1138
1115
1075
1000
921
836
775
730
712
703
705
709
717
723
730
737
740
748
752
761
762
767
766
774
769
773
770
779
777
783
782
785
784
790
788
786
786
783
834
831
823
805
798
775
766
745
741
734
736
706
677
798
1126
1538
1507
737
500
568
626
677
696
720
732
752
763
785
796
814
826
845
860
884
917
925
928
957
985
1016
1035
1051
1050
1041
999
928
845
766
704
662
650
643
649
650
664
669
680
685
697
699
710
721
726
742
753
768
775
788
791
802
806
817
816
828
822
827
822
840
857
871
867
865
862
856
849
836
829
828
832
815
776
810
1056
1454
1610
1246
626
623
683
736
765
781
801
813
830
840
854
867
880
892
905
923
937
960
982
1011
1034
1061
1072
1085
1078
1072
932
841
753
682
636
608
600
595
598
596
602
606
631
614
602
605
619
628
642
648
663
668
681
683
695
697
708
708
715
717
726
726
730
736
759
783
796
798
795
797
789
787
774
776
772
780
760
724
775
1039
1447
1596
1067
578
603
666
714
736
754
770
787
820
846
866
896
916
946
966
996
1021
1053
1079
1104
1125
1135
1137
1126
1105
1055
982
896
824
761
731
712
711
709
723
726
738
742
754
756
764
766
775
776
781
782
783
784
785
787
786
789
786
790
786
792
791
798
800
780
762
785
806
819
817
822
820
821
813
813
813
791
745
769
994
1373
1598
1136
563
568
632
680
704
715
732
741
757
767
781
791
805
821
840
858
876
896
917
948
972
1002
1015
1032
1030
1029
1000
957
880
805
727
678
643
632
627
631
636
647
655
665
672
677
688
696
707
709
718
719
730
729
736
736
742
750
762
774
783
799
805
811
812
834
856
879
880
882
876
877
866
863
848
851
850
851
821
800
928
1264
1607
1577
695
617
657
713
745
769
793
810
832
847
865
875
895
909
927
937
962
978
1003
1023
1055
1075
1097
1103
1109
1097
1076
1023
942
852
773
715
678
661
656
655
646
648
645
647
644
648
648
651
655
657
663
662
666
665
672
673
679
679
685
684
693
690
701
698
703
702
721
744
763
768
771
774
773
770
766
761
761
767
763
731
716
886
1246
1605
1468
684
557
627
684
723
743
764
777
795
812
831
844
858
897
915
950
978
1016
1048
1102
1102
1105
1109
1115
1099
1064
994
916
837
778
740
725
722
726
733
738
748
753
764
768
778
782
791
791
798
796
800
796
800
795
799
796
797
792
793
792
793
793
794
793
789
793
794
795
791
804
819
836
834
840
834
836
824
820
805
800
786
731
741
934
1318
1598
1281
574
543
593
656
678
699
710
730
742
759
772
789
802
818
836
851
875
896
924
951
984
1010
1036
1044
1055
1047
1033
982
911
823
753
689
652
633
631
642
630
614
621
631
647
656
673
684
697
710
720
729
733
741
744
752
759
772
780
795
808
821
832
838
846
851
859
857
858
853
860
854
858
868
887
889
893
884
889
880
875
860
852
845
847
844
827
784
832
1083
1499
1607
1172
643
643
708
753
774
786
806
817
836
845
863
868
882
892
908
920
940
956
978
1002
1028
1051
1068
1078
1058
1015
935
847
759
692
638
612
597
594
594
600
607
611
623
626
636
638
647
651
662
663
687
667
654
651
665
668
678
683
697
702
716
718
727
731
741
745
751
755
756
766
769
775
787
809
819
824
821
827
823
822
809
805
794
798
796
788
745
792
1036
1451
699
599
674
742
788
808
836
855
879
894
915
923
941
952
968
980
994
1011
1033
1057
1079
1103
1122
1137
1135
1131
1109
1073
996
912
825
763
712
695
684
689
691
700
703
708
711
718
725
731
739
744
750
752
758
756
767
765
772
766
771
764
770
766
769
767
749
736
734
728
722
730
751
762
762
766
759
760
749
749
738
739
736
744
721
687
751
1040
1450
1596
998
517
568
627
679
702
724
738
758
773
791
804
821
831
852
867
889
905
934
956
991
1018
1050
1066
1078
1080
1073
1040
981
898
808
733
679
651
639
641
640
660
668
690
707
727
742
757
770
784
796
802
811
811
821
820
827
826
831
827
831
826
832
828
831
827
832
823
824
838
859
867
866
863
857
854
843
837
822
821
831
801
737
768
1001
1407
1610
1263
622
622
677
743
761
787
799
819
830
848
858
873
882
895
938
947
965
974
996
1005
1024
1028
1032
1023
1006
959
887
799
721
653
611
590
580
585
588
597
599
611
617
632
635
649
650
663
666
679
682
694
697
705
706
713
715
720
725
727
733
736
742
743
747
750
754
750
764
784
809
810
816
810
816
808
808
797
796
792
756
771
954
1326
1607
1485
754
657
709
779
805
831
843
861
874
889
913
906
893
906
920
942
962
985
1012
1040
1068
1091
1112
1119
1126
1115
1096
1044
969
876
803
739
711
692
693
692
700
698
705
708
714
719
725
726
733
741
742
749
748
754
754
761
757
762
761
759
752
742
734
725
718
713
714
707
706
716
740
745
751
745
753
747
746
736
731
727
731
731
712
684
804
1123
1540
1535
790
535
589
658
696
718
732
755
767
790
801
820
828
849
863
886
901

FIM:
29/11/2024 10:26:06
29/11/2024 10:26:06
Leitura(ECG)
872
790
800
841
895
934
966
969
946
883
821
754
677
683
700
726
745
792
782
716
644
574
520
473
433
403
379
366
348
344
335
341
340
347
348
364
370
389
401
420
431
448
455
469
483
572
677
774
863
940
1010
1056
1093
1117
1148
1168
1182
1147
1151
1333
1609
1614
1615
1340
1038
1023
1079
1111
1128
1137
1146
1150
1155
1170
1163
1164
1156
1158
1157
1164
1173
1192
1208
1225
1233
1235
1227
1207
1163
1084
994
899
826
767
745
733
735
733
742
744
755
757
766
765
770
768
776
777
782
779
780
779
794
767
746
737
737
745
750
756
759
765
767
773
770
776
777
777
771
793
809
819
814
814
798
795
798
798
809
814
800
760
847
1134
1562
1604
1041
605
638
693
740
757
777
788
804
815
826
837
846
857
865
881
894
913
928
953
974
1007
1027
1049
1051
1054
1040
1015
954
873
783
713
657
627
610
607
609
611
620
626
636
639
650
651
660
660
671
672
681
689
688
683
673
665
657
656
650
654
648
651
648
654
650
659
656
665
676
670
648
655
671
703
714
728
731
741
741
743
740
737
733
739
743
728
696
768
1041
1457
1591
992
576
604
672
709
732
744
766
776
794
805
822
832
850
863
881
896
914
935
958
986
1048
1073
1086
1098
1090
1060
993
920
842
785
748
733
730
734
740
745
756
759
773
776
787
787
798
799
809
806
814
810
816
813
818
816
816
814
813
812
812
812
811
811
808
816
811
814
808
815
807
812
823
843
845
849
840
842
836
833
832
806
781
783
779
852
1174
1571
1567
847
549
590
647
680
702
714
735
748
769
776
791
802
818
833
851
868
891
916
940
971
998
1026
1040
1051
1050
1042
1006
949
862
783
708
661
628
619
617
627
633
642
645
656
664
677
687
691
700
706
713
713
721
723
730
731
741
740
744
742
752
761
768
784
795
806
812
837
862
885
886
892
885
887
878
875
861
858
857
861
828
797
921
1260
1607
1599
899
620
675
731
778
794
814
825
859
854
850
851
867
882
907
922
949
966
995
1017
1052
1075
1100
1112
1120
1112
1092
1041
960
868
781
721
681
669
661
675
671
671
661
662
658
658
658
660
660
660
663
662
666
668
674
674
679
678
687
686
696
693
701
701
712
711
718
716
720
730
757
771
775
779
780
781
775
771
762
765
765
769
737
716
833
1164
1578
1555
817
580
625
693
726
748
765
784
797
813
828
839
876
891
922
949
983
1010
1045
1077
1110
1131
1143
1152
1127
1074
1010
929
850
781
735
717
709
712
719
728
736
750
757
766
767
778
780
788
786
794
793
799
798
802
800
801
798
797
796
797
797
797
798
796
799
796
801
794
794
793
816
829
836
833
833
825
823
803
794
787
767
724
711
884
1237
1597
1355
618
529
588
647
674
688
708
720
736
749
765
781
796
813
830
849
870
893
915
946
974
1007
1027
1048
1047
1050
1033
998
922
842
757
697
654
636
628
631
636
646
653
660
677
667
658
664
674
687
698
706
716
723
734
744
758
770
789
796
809
818
827
834
838
844
846
847
851
877
895
903
897
899
891
886
871
864
853
853
848
832
786
857
1143
1551
1609
1110
616
645
703
753
780
797
813
822
840
848
867
874
893
901
919
932
952
966
990
1012
1044
1069
1089
1100
1101
1090
1057
998
765
701
648
627
608
603
599
600
601
608
612
619
624
632
638
642
651
651
662
666
675
675
683
681
691
691
698
696
715
696
687
679
686
695
727
752
770
774
780
782
782
779
774
774
777
782
753
730
852
1190
1593
1583
843
582
630
697
733
758
769
786
799
839
860
878
908
929
957
979
1013
1036
1070
1093
1125
1144
1161
1158
1149
1115
1053
964
875
799
744
717
704
706
709
720
722
731
735
746
748
757
757
768
766
775
772
776
776
782
782
784
782
784
785
788
788
787
787
784
790
787
790
784
806
822
838
834
837
831
815
801
787
778
761
718
741
947
1323
1592
1104
522
527
596
652
679
695
716
730
750
762
781
794
813
827
847
862
887
911
937
965
995
1023
1041
1052
1054
1051
1026
980
902
819
739
688
651
641
633
642
644
655
659
671
677
688
694
700
707
712
720
725
731
734
748
749
767
777
793
802
815
820
827
834
838
844
846
852
847
847
853
880
888
894
885
885
876
874
861
856
845
848
843
824
786
874
1157
1568
1598
974
628
660
725
760
780
790
810
819
838
857
851
840
855
868
892
910
939
958
989
1013
1043
1061
1077
1080
1083
1000
912
821
733
678
636
621
608
610
607
616
615
625
627
636
636
644
648
654
660
667
669
671
677
678
687
689
698
696
701
705
714
712
721
719
727
726
733
731
739
761
786
790
793
793
794
795
789
788
779
781
781
776
734
771
999
1398
1599
1242
595
602
736
760
789
813
842
861
886
900
923
936
958
972
996
1010
1035
1054
1083
1102
1127
1141
1148
1149
1113
1043
965
878
806
748
714
699
698
707
713
719
724
738
743
755
756
769
771
781
776
785
782
788
785
788
785
787
784
786
781
782
782
784
782
773
773
784
806
820
812
796
782
765
751
740
739
731
693
669
817
1168
1576
1442
647
507
563
630
665
691
707
730
743
761
771
787
797
819
833
853
870
893
917
942
974
1002
1028
1040
1051
1047
1034
989
922
832
756
688
654
630
631
630
641
646
656
661
670
679
687
696
702
721
691
708
721
744
759
781
792
808
812
825
829
835
832
847
867
887
892
889
885
881
876
863
855
852
856
847
815
799
967
1313
1608
1516
765
629
682
741
771
786
805
819
836
847
858
869
882
898
909
924
936
958
975
1003
1023
1052
1068
1083
1082
1082
1059
1021
944
735
687
649
631
619
617
611
618
618
624
624
635
637
648
651
659
660
667
667
672
676
681
685
689
697
699
706
706
711
703
716
737
763
768
772
768
776
768
773
743
731
728
735
706
719
891
1256
1596
1378
671
599
661
720
747
767
785
798
816
830
850
860
900
917
949
975
1004
1033
1064
1095
1119
1133
1134
1136
1120
1094
1029
952
867
806
755
733
722
727
725
736
741
752
758
767
771
776
780
783
788
787
791
788
792
789
792
789
794
791
795
791
795
789
794
786
784
791
813
828
836
829
827
824
813
805
793
791
789
744
831
1125
1520
1547
826
521
567
624
661
677
695
707
722
734
770
766
759
769
790
810
840
863
897
922
958
982
1011
1027
1038
1034
1024
981
919
837
763
696
659
638
635
636
644
653
658
669
673
684
689
698
702
713
713
724
723
730
731
742
741
746
747
754
760
759
775
802
837
852
865
864
874
868
868
858
859
856
863
841
809
884
1175
1572
1609
1078
627
673
726
782
803
825
836
854
865
880
887
903
910
927
936
957
973
996
1016
1040
1061
1084
1098
1104
1102
1082
1048
979
896
810
743
696
658
633
639
645
660
666
681
706
714
712
708
704
703
703
702
701
696
695
695
698
696
704
703
709
700
708
723
748
756
759
754
755
746
743
733
729
730
734
720
680
739
998
1415
1592
1034
549
583
638
692
709
731
744
767
779
800
812
830
840
858
872
891
909
931
957
983
1012
1034
1055
1054
1041
1001
941
864
801
751
726
715
717
723
730
741
750
760
764
775
776
786
787
796
796
804
803
807
805
811
810
813
809
815
813
830
800
778
773
794
816
835
838
840
840
835
832
823
818
817
821
805
773
812
1054
1442
1605
1141
619
627
695
738
761
773
811
820
822
827
824
834
839
853
861
880
896
924
944
972
988
1002
1004
1001
984
942
873
792
719
661
628
610
610
605
617
620
636
639
653
655
668
671
680
680
691
694
704
705
712
716
719
721
726
734
737
741
741
746
743
746
752
782
800
812
807
811
804
797
799
807
822
814
786
848
1125
1525
1609
927
632
662
729
770
802
824
851
863
883
897
914
925
941
955
975
989
1004
1024
1045
1069
1088
1109
1118
1124
1117
1107
1064
1000
912
831
758
716
688
684
680
689
690
699
705
712
718
723
729
735
743
746
753
756
761
759
765
754
749
736
730
722
715
703
708
725
739
744
736
733
727
726
719
716
711
721
714
687
666
818
1166
1574
1411
639
522
589
652
690
710
730
746
763
779
793
811
823
843
857
879
896
923
942
970
995
1026
1059
1053
1032
1027
1002
960
885
812
741
697
667
659
669
679
700
716
740
753
773
782
800
804
814
819
827
830
835
834
836
835
833
833
831
833
830
827
820
835
852
871
870
870
860
859
847
841
827
829
827
826
782
801
1004
1380
1606
1320
647
619
679
735
761
776
795
803
819
829
848
853
868
877
897
909
928
985
1001
1017
1020
1023
1013
1005
981
936
861
783
702
650
606
589
581
584
586
594
599
612
618
625
635
644
652
673
658
645
650
659
670
679
691
696
711
713
726
729
738
742
750
745
756
774
803
811
815
812
815
810
806
796
792
793
794
778
742
819
1088
1496
617
614
683
750
778
805
828
850
870
887
903
915
929
940
959
971
990
1005
1025
1041
1069
1086
1108
1111
1115
1105
1086
1036
967
888
819
765
733
719
713
719
719
728
731
744
747
758
758
767
766
773
769
775
773
779
778
778
777
779
778
782
783
783
785
786
788
779
793
801
807
803
777
741
731
719
721
717
722
723
715
680
740
1002
1402
1584
993
524
565
630
680
708
725
744
756
774
785
807
811
831
838
860
874
897
915
941
967
994
1016
1036
1047
1049
1043
1015
961
877
797
722
679
647
642
638
648
652
664
669
682
685
706
721
735
754
764
781
788
799
802
812
813
819
821
831
832
834
833
834
830
827
842
865
877
875
873
868
866
853
849
835
838
834
827
781
813
1042
1440
1610
1269
621
626
681
761
761
765
776
797
814
835
850
866
880
893
911
927
948
966
994
1019
1049
1069
1094
1077
1043
975
888
795
715
659
622
606
596
600
600
605
606
618
619
630
634
645
647
658
661
673
676
683
683
690
692
697
702
706
711
716
719
722
732
730
731
737
768
788
802
797
803
799
797
790
785
784
788
790
763
736
864
1194
1595
1529
774
591
642
756
777
804
826
852
872
892
909
927
942
957
977
995
1015
1036
1063
1084
1112
1126
1136
1136
1103
1042
974
892
824
764
730
711
711
711
722
725
736
741
751
755
766
771
777
783
783
785
787
792
791
798
793
795
787
791
787
789
784
787
779
780
778
782
776
781
829
819
808
793
783
764
753
735
732
727
718
673
707
922
1310
1575
1093
539
549
613
663
684
699
717
729
747
760
778
787
807
817
840
855
881
897
927
951
984
1004
1024
1032
1035
1027
1009
963
893
816
747
695
661
651
647
656
657
667
674
686
692
705
720
712
697
716
733
752
769
787
802
810
821
829
838
841
851
852
859
855
861
859
861
855
876
894
900
896
895
884
882
869
857
846
843
846
833
796
840
1087
1476
1606
1190
638
644
708
756
781
793
811
821
838
845
861
872
886
897
911
923
941
960
979
1003
1025
1051
1070
1062
1030
981
902
814
726
665
622
602
593
589
594
600
610
613
626
630
641
646
657
658
666
664
674
673
683
686
694
694
700
704
708
712
716
721
722
733
712
707
728
753
767
772
775
785
780
781
773
782
780
785
752
750
905
1260
1604
1480
698
581
643
758
786
809
837
855
879
892
911
925
948
963
983
1000
1023
1045
1071
1096
1117
1132
1138
1135
1118
1085
1015
929
840
775
726
707
695
704
702
711
713
725
728
737
743
751
755
765
768
772
773
776
780
776
781
779
780
779
784
777
783
780
784
775
783
798
821
828
822
813
792
777
754
753
743
730
681
722
954
1355
1592
1056
517
557
599
641
658
685
703
727
746
766
779
799
815
832
851
872
896
919
946
969
1002
1024
1039
1043
1046
1032
1003
934
856
772
714
666
646
638
642
647
657
663
671
681
691
698
704
714
717
726
726
743
748
764
777
793
804
814
820
824
831
835
838
833
846
865
887
886
890
883
884
870
867
851
851
847
847
813
806
959
1300
1608
1475
750
642
701
762
784
797
815
825
842
851
868
874
889
895
912
922
944
960
983
1005
1030
1067
1067
1051
1050
1042
1026
978
911
732
687
667
650
649
642
646
644
653
659
664
663
673
673
681
685
686
689
692
696
694
698
695
702
701
708
707
715
715
720
716
722
737
765
777
783
777
777
773
769
764
762
762
759
754
719
740
943
1320
1603
1267
598
582
641
706
725
749
760
782
795
812
848
868
894
915
946
972
1007
1030
1065
1089
1117
1125
1130
1127
1112
1065
998
910
832
770
728
710
704
708
709
718
724
737
740
761
744
734
734
745
751
763
768
776
773
784
780
786
785
789
786
792
791
792
788
798
818
835
839
834
830
825
821
807
801
794
797
741
860
1174
1568
1518
740
513
568
627
662
682
693
711
723
741
751
767
776
794
808
831
845
870
894
925
953
985
1008
1025
1030
1026
1012
969
901
813
740
676
641
621
622
622
633
638
647
649
661
665
680
687
699
706
713
722
725
732
739
743
746
753
752
758
761
768
775
798
828
854
868
873
887
871
844
835
831
838
845
840
806
830
1052
1435
1611
1347
700
672
734
786
810
822
840
852
868
876
890
901
914
923
933
946
957
975
996
1024
1045
1069
1080
1093
1086
1082
1050
991
902
822
753
712
677
668
662
670
672
673
678
701
708
700
699
689
688
677
683
683
688
679
681
678
680
681
684
683
686
687
686
688
697
728
747
757
748
754
753
757
746
741
742
754
739
703
742
985
1373
1602
1142
563
584
646
695
716
744
756
784
783
782
786
809
827
853
868
895
915
954
978
1011
1032
1084
1093
1092
1079
1032
960
879
813
760
740
725
732
732
747
752
761
760
772
776
786
786
795
796
796
800
804
804
805
803
798
802
802
807
803
811
806
803
796
818
829
843
838
830
828
831
820
809
802
802
804
782
746
826
1120
1540
1599
950
579
620
689
727
786
795
801
804
805
809
813
823
832
851
868
891
912
941
964
996
1011
1026
1024
1021
986
932
848
764
681
624
578
574
582
593
600
618
631
644
658
672
683
690
699
708
718
723
733
736
747
745
750
752
762
760
766
765
769
766
769
780
803
816
815
815
814
804
796
809
816
830
805
789
923
1259
1609
1575
844
658
712
774
800
819
837
852
870
880
894
899
916
921
939
953
972
986
1011
1032
1056
1076
1096
1103
1107
1101
1081
1031
955
870
791
728
688
677
668
673
676
685
689
704
707
716
714
726
726
735
740
748
751
754
762
753
752
724
699
688
689
687
695
691
698
700
727
747
758
755
758
754
754
747
739
736
742
743
726
696
775
1061
1496
1564
887
567
613
682
707
728
740
761
771
789
800
821
829
848
856
876
892
911
933
960
989
1011
1036
1050
1060
1058
1046
1008
953
869
793
670
663
671
683
699
711
725
739
756
765
779
784
797
796
808
809
818
816
827
825
827
823
826
827
825
824
826
826
823
824
823
843
857
866
859
863
854
852
839
831
816
829
804
760
737
886
1232
1602
1544
769
580
651
709
756
774
797
811
826
845
857
869
905
919
921
935
941
964
982
1009
1023
1034
1034
1031
1014
971
895
806
722
652
613
590
587
586
593
592
603
606
618
623
638
647
660
664
674
680
688
692
698
701
706
712
715
720
719
726
726
731
729
735
748
777
784
791
790
792
785
786
774
773
771
777
768
904
1291
1609
1505
706
609
674
746
785
817
837
855
869
887
899
912
925
937
954
986
981
983
1004
1035
1068
1097
1122
1133
1142
1126
1095
1025
942
846
777
724
699
685
694
694
701
701
714
721
729
736
739
741
745
754
756
758
757
761
761
767
764
769
765
772
771
768
773
780
789
784
775
762
757
744
737
718
719
718
720
682
671
820
1180
1586
1470
645
501
563
630
668
692
714
731
749
761
782
798
815
831
856
871
896
913
942
970
1005
1029
1055
1066
1074
1068
1050
994
913
821
741
680
648
635
631
640
641
660
646
637
643
681
695
724
742
764
776
793
801
810
818
828
837
841
844
846
849
844
844
853
883
895
903
894
892
881
875
859
852
844
848
837
794
798
1008
1400
1611
1473
707
627
672
737
761
785
797
816
826
846
856
871
881
903
913
931
944
961
980
1011
1037
1066
1086
1094
1071
1016
932
826
739
666
627
597
591
582
588
587
596
604
610
618
624
633
639
652
659
667
666
676
675
683
682
694
694
699
702
711
711
713
712
742
741
745
747
755
756
762
761
760
757
765
773
769
731
735
944
1331
1607
1393
647
589
653
716
745
760
783
821
839
861
880
905
926
953
972
998
1018
1050
1075
1105
1123
1142
1141
1142
1124
1079
1000
912
829
764
724
707
701
703
708
712
722
728
741
743
751
751
763
763
768
770
777
772
774
772
777
776
777
777
780
777
781
786
779
777
794
817
824
828
820
825
815
812
793
793
769
715
723
919
1293
1595
1241
520
510
576
663
665
669
682
708
724
747
762
785
803
827
841
868
893
925
949
984
1012
1038
1056
1069
1070
1059
1029
961
873
782
717
665
646
633
634
634
646
647
659
664
678
681
688
694
706
712
725
729
732
735
740
744
738
749
766
794
812
838
849
860
861
860
857
853
845
842
845
843
825
786
885
1196
1596
1609
1031
596
647
707
766
786
813
828
848
859
874
885
899
911
924
940
960
979
996
1024
1047
1074
1088
1106
1105
1106
1081
1037
935
830
730
678
648
645
644
658
661
672
677
713
719
713
716
710
711
705
709
702
706
701
705
701
706
706
716
715
715
706
713
736
755
765
762
764
761
759
751
749
746
755
749
721
695
842
1186
1597
1543
747
532
599
662
702
726
748
767
783
797
812
830
840
859
874
897
912
940
959
988
1011
1042
1057
1082
1073
1044
989
909
835
769
732
713
714
710
722
726
740
749
760
766
777
777
782
787
792
794
796
798
794
794
792
804
783
764
758
766
765
768
775
804
822
837
830
834
828
830
820
814
804
811
806
777
742
870
1208
1602
1588
833
584
631
699
735
758
773
816
818
825
825
830
833
842
853
869
888
908
936
961
987
998
1009
1007
998
961
900
811
735
666
623
596
592
589
597
602
610
620
629
638
647
656
663
674
677
686
689
697
699
710
712
718
717
725
724
735
739
743
739
747
768
791
800
800
800
799
797
791
786
791
792
758
821
1082
1502
1608
966
608
655
728
779
806
831
852
871
888
903
920
930
949
961
978
989
1010
1026
1051
1070
1095
1108
1126
1126
1122
1101
1062
993
908
822
756
713
694
689
686
693
700
711
716
729
733
740
743
750
748
758
758
763
760
763
760
764
768
760
753
743
736
723
718
717
739
749
755
745
745
742
734
724
718
717
721
714
678
686
882
1261
1596
1266
574
549
610
673
688
712
723
745
759
779
790
809
821
839
855
874
892
917
945
989
991
998
1013
1028
1033
1027
1005
951
878
801
739
695
675
660
663
676
690
708
729
751
763
779
787
801
807
817
818
824
820
826
824
828
824
827
822
824
823
826
821
821
835
855
867
866
858
853
849
837
829
816
819
816
806
762
804
1040
1444
1606
1190
625
634
693
747
760
780
795
810
821
832
846
858
874
884
902
914
935
994
1012
1025
1034
1029
1022
1010
983
932
858
774
700
646
610
600
591
598
600
610
615
631
637
646
667
659
643
651
659
671
676
690
695
709
715
724
728
737
742
746
747
756
783
799
812
808
809
806
805
796
792
788
790
780
749
737
908
1268
1605
1474
689
579
726
754
780
812
832
860
880
903
915
936
952
968
981
1004
1027
1053
1080
1104
1125
1134
1141
1130
1114
1064
989
895
817
747
713
690
690
686
698
703
709
711
721
727
734
740
747
751
755
761
763
769
771
774
768
775
773
778
775
775
767
780
793
813
817
815
809
773
754
747
742
731
695
673
829
1180
1587
1438
653
521
581
642
673
686
705
718
735
747
768
783
798
813
832
851
867
890
915
946
970
999
1013
1033
1032
1030
1005
960
883
807
732
679
644
634
630
635
640
651
660
668
677
684
694
697
705
708
717
717
725
725
735
740
754
775
795
802
804
815
838
866
873
878
874
875
865
860
846
849
846
847
817
794
907
1228
1604
1582
874
639
681
748
776
791
811
821
837
848
866
874
891
897
924
915
916
926
956
980
1012
1032
1053
1060
1068
1057
1039
988
919
839
775
726
698
686
687
704
695
698
699
699
690
689
682
682
682
689
683
683
689
691
690
687
690
688
698
695
697
697
721
742
759
756
760
760
761
752
745
739
748
751
731
696
780
1070
1488
1572
921
573
616
684
716
735
749
770
782
798
811
829
840
859
870
894
910
934
954
981
1041
1057
1080
1091
1095
1073
1023
948
871
805
764
740
736
735
739
746
757
769
760
746
753
759
767
774
785
792
796
799
800
805
801
809
807
812
816
831
838
854
854
858
851
849
841
835
818
815
810
803
767
768
955
1326
1609
1416
664
599
656
711
738
750
771
810
819
821
827
833
837
850
860
879
897
921
941
968
985
1000
995
992
963
919
839
762
686
633
601
590
586
588
590
595
609
615
628
633
645
646
654
657
670
671
684
683
693
694
697
695
707
718
716
717
727
748
769
773
779
791
790
788
793
765
744
747
700
834
1166
1592
1572
873
650
708
775
806
829
846
860
876
892
901
918
929
943
951
967
980
1001
1016
1041
1062
1085
1092
1102
1098
1095
1071
1031
960
882
808
750
716
701
699
695
704
707
723
726
730
730
741
743
750
751
753
750
754
752
759
758
761
765
770
768
773
799
805
806
784
769
752
739
727
722
717
719
713
676
692
892
1267
1562
1150
563
560
623
672
687
711
720
743
752
767
779
798
811
829
844
883
876
884
902
934
965
993
1009
1022
1025
1018
989
933
859
787
736
700
684
671
678
681
693
696
710
717
728
729
740
753
759
775
786
787
798
815
809
825
837
856
857
855
867
873
868
863
850
838
828
827
830
810
785
882
1184
1574
1576
916
649
690
753
778
798
805
824
829
845
858
871
879
894
902
917
932
946
962
985
1009
1028
1044
1045
1046
1043
1033
986
917
836
773
720
680
672
665
664
663
663
656
660
662
668
666
672
680
667
647
653
658
666
675
699
716
733
733
745
743
745
742
750
744
743
743
748
730
701
798
1099
1510
1518
827
576
630
692
723
730
750
758
776
787
805
817
834
845
863
880
900
919
942
967
991
1014
1030
1050
1034
1012
959
895
828
783
756
742
743
747
750
757
767
773
784
787
796
792
800
802
807
803
810
813
817
813
824
829
843
842
844
837
834
829
820
809
803
805
804
786
736
827
1142
1563
1597
920
567
623
676
727
756
756
751
767
780
808
825
846
862
882
944
961
978
996
1015
1022
1028
1022
1017
985
936
853
774
697
649
617
606
601
603
605
612
622
630
641
650
658
663
669
673
681
680
687
689
697
705
722
731
744
741
750
744
746
741
737
730
733
736
733
700
714
930
1309
1598
1279
550
543
612
673
712
730
755
797
820
843
868
892
913
940
960
990
1017
1049
1072
1096
1105
1120
1114
1108
1073
1010
925
846
774
732
713
705
707
711
715
733
720
711
715
725
738
750
761
759
768
779
790
794
800
790
786
785
817
837
849
836
828
821
821
815
807
807
807
797
760
781
994
1370
700
543
602
658
687
711
723
735
742
756
765
776
787
800
819
832
854
873
905
926
956
977
998
1005
1011
1000
974
919
847
764
704
654
628
616
616
621
627
638
647
659
667
681
687
696
695
705
711
726
722
727
727
735
731
735
731
752
778
794
800
796
794
778
782
789
806
809
794
802
1092
1460
1609
1209
587
623
699
762
804
832
855
874
894
909
917
931
938
955
968
984
997
1022
1040
1068
1084
1105
1108
1116
1105
1088
1045
983
896
815
754
717
696
694
694
697
709
712
722
729
736
740
747
747
756
754
759
758
762
758
765
762
752
742
728
721
723
746
755
757
744
742
735
731
718
718
717
722
710
675
714
953
1342
1599
1088
478
528
594
658
690
719
733
757
769
789
798
816
831
851
863
884
902
930
954
982
1022
1025
1015
1021
1017
1007
975
913
836
766
714
678
666
660
666
672
697
711
730
747
766
780
791
802
811
822
826
829
828
832
826
833
828
833
826
828
818
831
852
873
873
868
860
854
845
835
826
822
824
810
773
818
1068
1459
1609
1149
564
603
671
724
759
777
797
808
827
837
854
868
883
895
911
928
947
968
985
1011
1032
1069
1055
1041
998
935
849
765
688
637
607
590
584
585
591
598
608
614
627
631
642
644
657
661
685
667
654
651
664
666
681
687
697
699
705
705
712
728
760
782
791
791
794
793
786
784
779
784
784
778
739
800
1048
1448
1603
1057
538
593
654
717
741
767
808
826
853
872
896
916
943
960
988
1008
1036
1055
1085
1103
1118
1120
1119
1106
1081
1030
955
878
808
761
729
720
713
722
722
736
739
749
751
762
764
772
774
778
777
779
776
780
779
781
783
781
785
787
789
784
790
803
828
837
840
832
833
821
817
803
802
759
727
822
1113
1501
1488
746
512
581
648
691
708
728
739
755
764
784
794
813
825
844
859
882
900
925
948
973
994
1009
1015
1011
1006
989
954
888
814
742
697
662
652
642
651
651
662
670
685
688
702
706
712
714
723
725
732
736
737
743
744
749
748
755
754
765
791
823
843
854
857
858
857
854
851
847
855
853
836
818
955
1281
1606
1557
795
592
670
731
778
799
822
833
849
862
876
887
896
911
924
939
948
968
987
1013
1049
1047
1035
1040
1037
1037
1010
960
884
816
750
714
686
679
679
689
689
698
705
715
720
736
742
729
727
718
718
708
706
699
700
698
696
686
690
705
728
738
738
737
732
728
724
721
716
724
721
699
696
872
1212
1568
1342
564
486
577
638
690
717
739
757
775
789
805
823
838
851
866
892
909
935
955
987
1008
1030
1040
1052
1045
1038
1005
952
873
702
679
671
680
689
709
721
737
746
766
772
786
791
801
804
813
820
807
785
787
788
800
798
799
801
823
847
860
861
855
852
845
840
832
833
828
831
805
786
903
1229
1597
1573
804
565
633
698
744
777
792
805
818
835
849
860
876
885
897
908
932
947
1013
1030
1039
1036
1029
1013
988
938
861
778
704
649
610
597
590
594
597
606
607
622
628
641
645
656
662
674
678
687
690
697
703
705
709
713
720
718
719
718
742
762
778
778
780
777
778
770
770
767
771
768
754
727
831
1134
1536
1574
667
526
581
648
699
774
796
830
856
885
904
935
953
977
996
1022
1042
1067
1092
1117
1132
1139
1140
1134
1116
1064
987
897
824
761
731
712
714
712
723
726
738
742
753
754
762
765
772
774
779
779
781
782
781
783
780
783
779
785
784
788
779
778
779
802
816
830
826
826
822
816
801
793
787
754
717
796
1089
1485
1556
808
478
542
607
656
687
704
719
734
751
765
779
796
808
826
844
866
885
912
934
970
991
1014
1020
1036
1007
967
909
842
764
708
661
639
628
634
638
649
659
669
679
691
699
706
714
721
731
734
745
747
754
751
756
755
762
772
784
795
805
816
816
819
827
860
879
889
880
881
873
871
859
853
846
852
846
810
796
965
1324
1608
1511
726
611
667
735
770
792
807
826
839
856
864
878
885
904
916
935
947
969
988
1013
1035
1055
1068
1078
1077
1064
1037
983
907
823
756
704
681
668
669
664
662
659
661
662
665
666
666
679
664
645
642
649
656
666
671
682
687
696
699
707
710
720
723
732
727
733
736
762
784
795
795
796
793
791
785
777
774
775
778
756
726
826
1140
1557
1580
844
552
607
679
722
749
765
785
797
815
829
845
858
900
926
952
988
1015
1053
1081
1109
1121
1134
1131
1118
1083
1023
941
863
799
752
730
720
721
723
731
738
752
755
766
769
779
779
786
783
788
786
793
792
794
792
796
794
796
795
797
799
798
801
800
801
796
810
789
767
776
805
817
824
823
828
826
825
815
813
807
773
730
826
1127
1536
1537
780
516
568
641
679
705
714
732
738
753
766
784
792
808
822
841
859
882
905
931
959
982
1004
1014
1022
1016
1005
964
902
822
751
687
655
633
632
628
635
643
655
664
673
683
694
701
708
713
720
726
729
737
738
746
744
753
759
772
783
796
805
814
824
829
831
830
851
874
891
890
891
883
882
867
864
851
852
848
846
808
814
997
1360
1607
1142
598
623
691
749
776
800
818
836
852
865
880
891
907
917
936
949
967
982
1008
1028
1054
1068
1080
1081
1079
1057
1024
962
884
806
742
669
653
650
641
642
638
642
642
647
650
655
655
663
666
670
673
675
677
679
686
685
691
694
701
702
710
712
720
722
725
720
740
761
781
781
784
781
782
777
770
767
768
775
770
739
753
949
1308
1596
1241
603
587
663
723
750
763
781
791
809
823
838
874
887
917
939
972
1018
1031
1036
1060
1078
1098
1102
1102
1075
1033
961
888
819
773
747
738
736
737
741
744
753
763
770
772
783
785
792
792
797
797
800
796
799
795
796
792
796
793
793
793
796
790
787
794
810
829
833
832
825
826
817
809
791
794
793
793
860
1160
1533
1547
806
491
565
624
675
692
709
718
740
748
765
777
798
809
828
843
866
887
914
938
969
996
1017
1030
1036
1033
1010
966
886
806
729
678
642
632
624
631
634
647
650
675
658
651
655
672
679
696
706
718
724
734
739
746
749
752
757
758
767
798
817
829
844
847
857
856
856
850
852
857
852
821
853
1070
1433
1610
1329
626
614
686
749
789
810
833
846
862
872
886
896
913
920
934
948
966
988
1009
1038
1060
1080
1091
1101
1092
1079
1033
966
875
797
728
693
668
665
662
673
677
683
686
694
700
709
714
726
728
717
716
705
704
692
690
686
684
686
685
682
679
692
719
737
742
740
738
740
743
718
696
699
703
697
670
769
1056
1473
1580
895
493
568
632
694
721
748
762
785
800
819
835
851
869
884
904
920
942
961
990
1015
1041
1056
1074
1075
1073
1045
1003
923
719
686
672
676
683
701
713
728
736
754
760
775
779
790
795
805
808
814
812
816
817
820
821
818
820
818
820
814
811
815
837
851
859
851
851
845
839
828
822
816
823
817
781
768
940
1301
1608
1505
706
591
642
712
743
764
779
798
809
829
840
855
880
881
895
915
931
955
977
998
1015
1023
1024
1013
985
925
841
752
686
636
613
599
602
602
612
617
629
635
647
652
662
670
681
681
686
690
698
705
707
713
712
714
712
718
720
728
730
731
725
737
754
783
789
792
790
795
789
787
780
778
779
779
748
733
1523
1599
973
585
644
712
774
799
821
842
859
876
890
907
919
933
947
966
978
1001
1017
1044
1064
1090
1102
1114
1114
1114
1091
1048
971
889
812
757
722
705
699
714
697
685
688
699
710
722
733
741
752
758
765
765
775
773
778
777
782
778
783
779
787
785
794
790
795
809
806
800
783
773
761
755
737
730
725
730
712
674
714
963
1358
1586
1041
499
537
606
667
692
718
732
751
765
784
795
815
824
846
859
883
899
927
950
982
1007
1033
1044
1052
1048
1035
998
928
844
762
707
666
651
644
651
654
666
668
681
686
700
717
726
744
759
775
784
797
805
813
812
824
824
829
827
835
843
824
807
828
845
861
861
864
861
861
855
850
850
855
847
815
829
1031
1398
1610
1391
621
593
666
734
773
804
816
835
847
861
865
879
891
905
916
934
950
971
993
1015
1042
1064
1079
1084
1088
988
905
805
723
660
626
608
600
596
597
603
606
617
622
633
639
647
650
662
662
672
677
687
682
689
692
701
702
707
709
711
708
711
730
751
763
765
765
762
764
759
757
745
755
758
748
718
826
1124
1525
1575
863
489
574
667
702
709
734
752
779
799
856
885
910
942
967
1003
1031
1069
1095
1128
1145
1162
1164
1158
1131
1085
1002
915
835
775
738
719
717
714
720
724
735
737
748
751
764
763
772
773
782
783
789
786
786
786
787
784
783
784
782
783
782
781
775
784
800
820
824
827
818
820
810
807
792
792
791
745
823
1100
1500
1588
935
476
539
596
656
677
700
712
731
744
765
774
792
805
825
842
865
887
912
939
965
994
1015
1033
1038
1038
1018
942
841
755
682
641
615
615
612
625
629
645
653
667
674
689
697
709
714
726
730
737
742
749
754
758
760
760
765
762
768
772
789
797
806
806
827
854
875
885
884
886
881
877
867
863
856
861
853
821
795
965
1322
1611
1573
800
612
670
734
775
797
816
834
847
859
869
883
894
910
919
939
952
974
991
1023
1045
1074
1084
1095
1093
1088
1058
1002
918
834
757
703
671
658
655
656
681
680
684
678
681
675
676
671
687
662
644
638
647
652
662
669
678
682
688
696
701
708
713
722
724
733
729
737
753
781
787
795
789
796
790
788
778
774
770
773
763
724
745
955
1337
1605
1287
603
578
641
705
726
749
762
783
796
815
826
844
856
877
924
950
988
1019
1056
1081
1110
1121
1133
1126
1113
1063
992
906
835
773
740
725
724
727
732
739
745
756
762
772
773
780
781
789
788
796
793
801
797
803
798
796
793
798
795
797
796
800
801
799
797
805
785
766
762
769
795
815
824
826
828
822
821
814
813
802
799
760
729
861
1204
1590
1515
729
530
586
644
686
701
721
728
742
753
767
767
787
805
829
842
874
896
917
934
962
996
1028
1044
1059
1050
1018
972
891
811
733
679
640
634
620
626
637
643
641
654
663
671
678
687
685
687
697
708
719
725
729
724
744
739
748
762
781
788
800
806
813
820
821
844
867
881
884
890
880
884
874
866
850
858
859
853
796
817
1037
1562
1610
1126
597
621
677
740
766
793
811
832
863
877
877
890
911
925
944
956
984
997
1030
1055
1074
1087
1106
1114
1108
1083
1041
967
880
786
718
673
640
647
639
640
628
633
633
638
628
640
644
646
648
652
655
664
665
664
669
680
682
673
684
686
697
701
703
697
711
724
751
757
764
759
761
756
753
750
753
756
757
743
697
772
1063
1491
1602
1028
564
598
661
716
730
755
770
793
806
826
838
854
871
916
934
966
1032
1047
1064
1088
1116
1126
1137
1127
1092
1019
942
856
793
748
738
731
741
741
747
757
768
770
773
782
788
796
797
801
800
807
802
805
802
808
804
807
800
803
796
799
798
802
800
795
792
809
834
843
833
831
831
823
822
812
808
802
799
784
906
1252
1597
1452
700
560
611
667
677
690
701
717
725
745
754
773
781
798
814
834
853
885
908
935
964
998
1016
1027
1030
1024
1003
954
887
804
732
674
648
634
633
635
649
663
650
640
650
658
676
683
695
703
719
723
731
736
744
748
752
755
760
769
774
780
784
796
803
826
854
883
890
892
892
885
882
876
865
855
862
859
822
790
933
1269
1609
1591
891
655
700
752
780
791
808
823
842
851
863
874
887
902
916
933
945
966
984
1007
1027
1058
1075
1084
1085
1086
1057
1010
925
843
763
711
679
670
664
669
674
681
706
702
702
691
689
685
684
680
681
682
680
682
685

FIM:
29/11/2024 10:27:06
29/11/2024 10:27:06
Leitura(ECG)
570
471
450
488
528
573
612
648
671
695
712
726
732
743
755
768
755
767
937
1244
1536
1150
353
258
272
300
302
302
307
313
323
333
357
371
395
418
452
480
518
557
603
641
689
715
806
1072
1128
1153
1135
1103
1058
1039
1030
1046
1061
1085
1095
1111
1115
1124
1126
1128
1128
1135
1134
1133
1129
1124
1120
1112
1107
1097
1088
1077
1077
1065
1062
1053
1051
1035
1028
1030
1045
1043
1041
1026
1023
1009
999
980
965
962
956
941
890
911
1127
1512
1613
1487
777
705
749
813
828
847
881
884
885
885
892
872
853
859
876
897
921
949
979
1004
1026
1032
1035
1019
987
911
827
739
674
625
606
594
593
592
597
599
606
611
617
622
624
629
631
640
643
650
647
653
653
660
659
664
662
669
669
678
681
681
674
682
701
726
739
737
737
737
738
719
729
740
746
709
734
950
1347
1609
1349
659
614
674
733
758
775
795
806
825
838
858
865
880
887
908
919
938
957
984
1006
1032
1053
1070
1074
1069
1056
1025
964
876
797
727
684
665
642
624
630
638
652
662
677
687
701
706
720
720
731
732
740
741
747
745
754
752
740
736
725
721
710
712
702
701
697
719
733
748
743
743
741
735
727
722
720
722
725
707
670
743
1036
1453
1583
935
540
578
648
689
713
724
746
762
780
799
816
826
846
874
904
903
914
944
972
1006
1030
1058
1068
1076
1069
1058
1014
945
856
781
717
656
662
676
697
715
732
744
762
769
783
785
798
802
815
814
819
820
824
824
828
835
814
797
795
799
806
807
806
810
822
840
861
876
877
879
867
848
831
833
834
842
827
783
771
958
1331
1608
1395
628
576
640
702
733
755
774
789
804
819
831
849
865
911
922
930
941
966
986
999
1015
1033
1036
1026
998
943
864
768
691
628
602
586
589
587
603
605
614
619
625
627
646
656
664
669
675
682
689
697
706
717
716
726
715
723
733
748
742
749
759
757
768
797
801
806
804
808
799
796
809
798
790
790
784
748
1291
1609
1415
660
608
682
760
805
842
854
876
901
919
928
947
961
973
985
995
1017
1034
1053
1073
1103
1122
1148
1149
1146
1131
1099
1024
944
854
781
730
709
691
682
688
698
709
708
712
724
733
731
737
748
760
755
759
756
760
754
756
758
764
763
767
761
767
766
756
751
749
762
770
774
761
758
745
743
732
725
720
722
719
683
668
837
1206
1593
1402
615
522
579
643
676
708
723
740
756
779
790
808
825
847
858
893
890
900
925
960
994
1026
1051
1065
1066
1055
1034
974
886
801
728
681
667
658
658
654
667
671
684
705
717
732
746
760
767
780
796
804
804
815
814
819
820
824
821
828
827
826
827
830
819
821
842
865
874
869
863
861
854
848
839
829
832
828
815
763
825
1085
1496
1606
1134
606
628
686
748
767
782
798
819
833
843
858
872
884
894
906
918
939
957
986
1065
1078
1071
1057
1029
992
926
836
754
683
637
605
596
582
598
583
574
575
592
605
623
633
648
656
670
672
686
691
699
698
707
713
722
727
731
735
739
741
744
750
746
752
777
803
803
807
804
808
794
792
779
785
785
792
761
729
831
1149
1557
1586
895
676
745
762
794
817
845
863
886
899
919
930
948
964
982
1000
1021
1044
1070
1096
1117
1133
1136
1135
1116
1082
1007
922
831
768
721
705
695
700
702
709
712
722
728
736
742
747
753
757
764
762
767
765
768
764
769
764
769
764
777
757
745
736
741
751
778
797
819
813
798
784
761
752
748
750
719
686
778
1092
1499
1556
810
491
555
623
671
699
713
730
743
760
776
792
806
820
840
855
880
901
927
951
983
1008
1033
1041
1051
1044
1028
973
899
810
736
678
648
631
629
633
641
647
653
662
671
680
685
697
699
711
714
727
735
748
761
774
788
795
804
810
817
815
820
839
867
877
883
873
875
864
861
847
846
843
848
829
790
857
1130
1537
1606
1078
603
644
690
730
761
783
803
823
837
858
873
894
909
930
944
968
984
1008
1032
1063
1084
1105
1112
1117
1104
1077
1019
937
845
766
669
654
649
641
641
637
641
642
646
645
651
653
659
661
661
668
670
675
678
685
684
691
691
699
699
707
709
716
711
728
746
771
776
779
778
778
772
768
764
763
768
765
736
722
888
1240
1598
1468
684
561
628
691
729
748
769
784
802
815
835
849
863
906
925
960
992
1033
1065
1099
1121
1156
1137
1117
1085
1039
959
881
805
756
724
716
714
722
726
733
745
753
761
766
779
783
790
791
797
793
798
795
800
795
796
792
795
789
791
788
789
790
793
787
783
799
821
835
833
830
825
825
811
807
793
795
792
790
866
1191
1584
1509
731
527
581
643
676
687
705
712
730
742
760
771
789
802
820
837
860
878
908
934
962
988
1010
1026
1030
1029
1005
962
886
809
733
682
646
636
627
634
637
649
657
668
674
685
705
695
679
685
692
701
710
719
729
736
743
748
754
759
767
773
785
795
810
813
822
845
877
890
892
893
894
895
883
874
862
860
854
850
808
833
1040
1423
1609
1282
659
655
716
775
794
812
826
840
851
864
876
885
898
907
921
934
955
971
997
1017
1043
1057
1075
1077
1078
1063
1038
979
904
825
760
711
687
675
671
675
689
697
689
688
682
684
680
682
679
678
676
677
678
680
679
681
685
683
688
692
699
696
706
703
715
708
717
732
743
744
753
757
762
758
759
757
766
768
753
732
851
1159
1548
1469
759
590
655
722
747
765
778
794
806
823
836
853
859
876
886
909
922
976
1009
1042
1073
1093
1108
1108
1101
1066
1010
932
861
795
758
733
732
729
734
740
752
760
769
777
782
787
790
795
796
801
800
805
802
808
805
807
803
808
803
806
803
804
798
798
809
832
844
845
842
838
836
824
816
805
807
806
798
757
791
1001
1380
1602
585
644
719
705
697
703
718
732
743
758
774
791
805
825
840
865
887
918
942
976
994
1014
1021
1028
1012
985
925
851
770
706
659
636
624
622
627
630
637
644
656
660
669
673
686
688
697
701
713
713
721
723
729
729
738
738
739
746
760
772
783
792
794
788
785
790
793
807
815
812
783
861
1143
1541
1607
1104
626
663
728
784
810
828
849
859
877
884
900
907
921
931
949
959
980
997
1024
1050
1075
1091
1100
1103
1093
1073
1022
932
827
737
685
661
652
657
664
674
680
691
696
709
716
731
732
740
743
752
752
758
766
761
756
743
735
728
724
710
707
712
736
742
745
734
735
728
724
716
715
714
718
705
668
729
994
1401
1582
983
518
565
628
685
703
726
739
760
773
792
803
820
832
852
869
890
912
938
963
990
1019
1038
1054
1058
1058
1037
999
927
848
768
713
674
662
657
671
686
705
727
743
760
770
784
788
801
804
813
811
819
819
825
823
839
814
799
788
792
799
830
850
862
858
857
854
848
842
835
834
836
837
804
784
918
1250
1605
1530
779
623
676
744
761
781
789
807
814
830
840
854
866
880
894
910
927
946
968
1032
1050
1046
1043
1025
1001
947
868
781
708
650
614
596
589
591
593
602
607
619
624
636
642
655
658
670
671
680
681
687
690
698
700
708
711
716
719
727
728
726
732
755
782
789
792
788
790
782
782
771
775
774
780
756
732
823
1122
1530
1549
700
587
627
728
757
785
816
840
868
888
914
929
954
968
994
1010
1035
1053
1079
1101
1119
1127
1131
1126
1108
1062
988
906
825
769
730
716
707
712
714
725
726
739
739
750
755
766
766
773
775
779
780
783
783
783
782
782
784
783
785
784
788
785
791
786
788
785
808
827
832
826
813
795
775
762
749
749
740
706
693
858
1210
1583
1331
628
552
616
672
691
705
721
736
753
766
782
797
812
826
842
865
882
906
928
960
1001
1003
995
1008
1010
1010
982
935
860
791
725
688
664
659
656
667
667
677
685
696
706
711
720
724
733
733
750
755
768
778
790
798
810
817
823
827
828
833
833
836
833
851
873
885
882
882
876
879
865
858
845
848
845
837
791
816
1031
1411
1606
1309
649
635
699
754
778
795
811
821
840
848
864
874
890
899
917
928
946
963
989
1012
1037
1055
1069
1075
1077
1064
1025
819
735
679
636
618
602
602
599
602
605
612
618
634
619
611
613
624
635
645
656
664
672
680
689
693
703
704
714
718
725
717
724
740
769
779
785
781
785
782
782
774
769
768
773
757
720
787
1054
1459
1593
1018
543
594
654
713
736
762
775
796
808
829
866
884
910
937
971
1001
1037
1066
1101
1123
1144
1148
1152
1134
1101
1028
942
855
787
738
719
711
713
714
720
728
733
742
746
754
755
765
766
774
773
779
778
787
785
789
784
786
785
789
784
788
783
778
775
796
831
819
792
787
788
788
788
782
787
790
794
815
1099
1508
1603
974
525
568
625
670
693
713
729
745
759
776
787
803
813
831
841
865
882
912
936
973
998
1028
1041
1051
1046
1029
979
905
818
737
676
638
622
615
621
625
638
641
653
656
668
675
687
692
704
708
716
717
725
727
734
737
741
744
746
751
753
763
768
785
812
849
864
871
870
875
871
866
857
855
857
858
838
796
896
1194
1599
1607
1014
635
673
732
778
800
834
827
827
834
852
869
891
904
924
942
965
985
1011
1035
1061
1083
1102
1112
1110
1104
1073
1018
931
846
765
720
684
673
663
669
668
678
681
704
709
701
700
694
695
691
691
686
689
683
686
681
686
681
687
688
695
698
700
695
703
729
753
763
762
765
763
762
755
750
747
756
754
729
700
832
1156
1576
1517
749
551
614
679
716
736
755
770
787
804
815
832
845
864
877
898
918
942
961
991
1015
1067
1078
1082
1080
1049
977
879
790
738
713
705
711
718
731
740
754
760
773
778
791
793
802
799
807
805
812
812
812
811
816
814
816
816
815
816
813
815
809
806
803
825
841
853
843
842
836
832
817
810
804
808
805
785
763
878
1186
1574
1506
774
582
644
759
767
776
773
782
783
795
800
809
821
833
845
864
890
912
939
963
987
998
1009
1006
998
958
900
820
750
687
651
628
622
619
626
632
639
648
658
668
676
682
689
698
703
713
713
723
736
721
701
705
708
720
722
732
734
746
753
760
756
769
789
815
822
823
834
836
843
841
853
855
853
815
879
1138
1534
1607
1145
663
689
751
797
813
829
841
849
861
874
892
903
918
926
943
955
976
989
1011
1027
1052
1065
1079
1078
1077
1060
1029
966
891
812
750
710
687
678
676
683
688
698
705
714
719
728
730
739
741
749
755
751
742
730
725
715
714
704
704
702
705
697
700
712
739
746
750
744
748
739
736
732
732
741
728
682
665
800
1139
1534
1459
706
534
604
673
715
731
755
771
791
804
828
839
857
867
891
908
929
949
975
995
1022
1041
1061
1070
1072
1063
1039
984
903
823
676
669
668
686
698
713
725
739
750
763
775
782
791
798
806
809
813
813
817
816
821
817
822
817
823
820
818
811
819
836
855
859
857
850
849
840
832
821
816
818
812
781
764
924
1272
1608
1479
712
597
659
721
752
765
784
795
812
821
837
849
863
877
921
955
943
940
951
973
985
998
996
993
967
915
830
755
682
638
610
601
598
606
613
615
621
630
645
651
657
660
671
676
682
683
691
691
701
700
707
704
710
707
717
717
720
724
746
767
777
779
776
779
770
770
763
761
759
762
729
725
871
1214
1593
579
632
706
751
777
810
834
858
871
890
899
915
928
952
957
979
998
1019
1035
1064
1089
1107
1113
1119
1112
1089
1037
959
882
805
754
721
706
699
705
703
718
728
737
740
758
739
733
725
732
739
751
755
760
767
778
773
781
790
790
791
795
788
784
783
803
848
838
828
809
793
769
758
752
750
737
698
751
994
1378
1528
938
528
576
643
689
697
719
729
745
755
774
782
800
813
831
844
864
884
905
929
952
981
1006
1021
1021
1020
1013
973
903
837
763
710
667
659
651
655
658
672
668
674
681
698
703
707
718
723
739
737
758
771
784
790
803
807
814
821
826
824
841
867
879
881
878
873
858
869
841
813
806
817
805
790
881
1160
1528
1583
922
579
657
726
771
802
815
824
840
866
870
882
893
902
914
923
942
961
978
1000
1038
1052
1066
1074
1079
1060
1036
982
907
824
764
670
657
649
631
636
643
642
638
651
652
659
658
672
672
681
681
687
681
692
696

FIM:
29/11/2024 10:27:27
