11704
11801
11925
11943
11872
11803
12095
12492
12891
13098
13101
13093
12834
12624
12502
12298
12297
12343
12076
11864
13392
17649
23335
23979
10954
7263
9354
10556
11908
12652
13105
13357
13520
13580
13885
14022
14143
14225
14538
14689
14998
15366
15755
16171
16628
17010
17284
17382
17495
17418
16974
16444
15685
14679
13594
12656
11938
11481
11338
11185
11202
11347
11375
11476
11654
11633
11648
11712
11761
11839
11810
11888
11847
11871
11941
11875
11902
11902
11984
11781
11870
12195
12745
13045
13199
13105
12995
12764
12610
12401
12312
12325
12405
12077
12059
14881
19677
25196
20267
7363
7917
9672
11211
12250
12901
13158
13367
13557
13733
13887
14034
14237
14426
14599
14863
15133
15554
15926
16406
16822
17166
17392
17522
17496
17358
16852
16259
15421
14362
13179
12277
11661
11411
11214
11108
11142
11171
11282
11453
11635
11678
11779
11851
11890
11901
11972
11921
11856
11950
11994
11878
11921
12084
12051
12018
11959
12167
12616
12863
13076
13115
12982
12854
12652
12419
12274
12379
12437
12153
12114
14368
18616
23950
21955
8566
7250
9526
10826
12132
12900
13258
13475
13548
13666
13738
13946
14188
14293
14488
14684
14967
15379
15689
16050
16530
16948
17302
17326
17302
17153
16887
16281
15500
14505
13497
12649
11970
11480
11243
11161
11209
11301
11440
11452
11382
11677
11868
11959
11912
11871
11797
11851
11869
11911
11910
11957
11863
11826
11809
12308
12638
12908
13089
12985
12845
12660
12448
12251
12172
12272
12232
12045
12133
14434
18776
24063
22678
9186
7161
9587
10719
11926
12723
12977
13156
13300
13435
13611
13789
13939
14091
14352
14620
14955
15310
15770
16116
16618
17069
17351
17364
17298
17121
16773
16110
15302
14394
13427
12481
11819
11405
11197
11153
11212
11351
11329
11421
11497
11590
11650
11701
11845
11979
11867
11926
11811
11915
11999
11861
11852
11919
12239
12619
12808
12985
12943
12849
12718
12595
12302
12155
12280
12289
12161
11983
13322
17027
22129
24423
13316
6561
9110
10303
11564
12596
13008
13262
13415
13543
13745
14002
14205
14298
14490
14786
15092
15387
15761
16192
16637
17071
17497
17618
17658
17535
17455
16875
15990
14912
13861
12925
12185
11589
11348
11273
11206
11249
11368
11353
11435
11681
11665
11764
11865
11961
11916
11911
12008
11937
11885
12012
11931
11847
12069
12495
12775
12904
13004
12999
12850
12584
12427
12141
12206
12290
12239
11833
12383
15709
20741
25234
17285
6672
8506
9804
11251
12364
12912
13113
13314
13581
13754
13900
13990
14100
14335
14624
14804
15098
15401
15907
16383
16888
17287
17484
17528
17422
17098
16775
16120
15080
14054
12979
12124
11663
11364
11237
11198
11072
11215
11378
11444
11447
11685
11737
11742
11794
11922
11958
11908
11849
11757
11921
11926
11980
11928
11750
11708
12154
12706
13045
13071
12958
12841
12632
12476
12333
12309
12280
12257
11881
12284
15473
20137
25127
18830
6951
8220
9849
11330
12281
12877
13094
13294
13520
13712
13793
14019
14189
14346
14551
14808
15114
15401
15754
16367
16908
17308
17593
17631
17563
17363
17048
16251
15333
14279
13179
12291
11723
11487
11284
11110
11038
11250
11440
11474
11630
11666
11770
11809
11852
12006
12033
11936
11872
11919
11829
11873
11976
11962
11836
11771
12062
12504
12864
13180
13225
13041
12823
12570
12436
12248
12246
12219
12154
11809
13071
17031
22534
24838
12975
6715
8990
10286
11735
12616
13001
13256
13434
13694
13802
13959
14107
14304
14482
14692
14896
15266
15612
16054
16601
17123
17253
17496
17724
17651
17319
16796
15976
14949
13878
12759
12099
11597
11258
11163
11240
11333
11411
11413
11517
11633
11637
11597
11650
11692
11785
11831
11881
11950
11947
11932
11969
12025
11972
11895
11990
12364
12762
13108
13111
12982
12852
12511
12403
12385
12286
12384
12388
12036
12353
15553
20589
25484
17728
6832
8613
9863
11346
12386
13020
13268
13339
13506
13614
13775
13900
14292
14654
14712
14913
15273
15564
15841
16353
17056
17300
17613
17681
17605
17274
16723
16008
15105
14058
13098
12281
11777
11364
11120
11162
11242
11319
11310
11410
11406
11614
11791
11849
11809
11937
11916
11872
11914
11876
11880
11938
11863
11782
12083
12548
12794
12960
13054
13005
12832
12563
12452
12253
12225
12200
12102
11747
12779
16530
21894
25276
14539
6879
9040
10165
11572
12536
13061
13248
13399
13598
13698
13885
13978
14198
14383
14660
14738
15239
15666
16155
16681
17081
17381
17521
17531
17400
17200
16673
15968
14885
13739
12775
12070
11601
11274
10996
11087
11194
11218
11293
11482
11633
11642
11798
11862
11875
11907
11895
11832
11886
11948
11858
11885
12025
12376
12680
12906
13134
13152
13072
12698
12555
12346
12281
12268
12263
11968
11851
14350
19029
24722
21620
8435
8185
9841
11114
12180
12849
13101
13379
13568
13630
13763
13849
14023
14259
14456
14735
14982
15255
15604
16035
16708
17273
17411
17475
17513
17329
16849
16191
15196
14136
12987
12079
11558
11190
11081
11033
11058
11113
11219
11323
11439
11462
11559
11692
11855
11829
11806
11798
11824
11894
11783
11710
11616
12092
12508
12946
13080
12810
12684
12615
12354
12200
12099
12149
12269
12043
11700
13661
18033
23964
23470
9887
7684
9586
10794
11976
12670
12989
13182
13362
13545
13727
13863
14009
14219
14354
14601
14976
15333
15643
16165
16662
17076
17327
17376
17384
17268
16848
16327
15427
14289
13238
12273
11607
11243
11089
11065
11131
11070
11133
11222
11472
11585
11589
11625
11753
11822
11790
11780
11702
11724
11804
11934
11912
11840
12091
12608
12885
13041
12938
12978
12700
12581
12380
12236
12204
12240
11963
11691
13724
18286
23863
23669
10119
7541
9571
10769
11952
12681
12901
13253
13466
13624
13931
13927
14026
14326
14517
14726
15095
15439
15865
16301
16792
17220
17479
17579
17432
17334
16966
16411
15604
14522
13359
12427
11925
11539
11148
10933
11143
11314
11203
11210
11542
11556
11618
11640
11807
11839
11895
12103
11979
11774
11781
11978
11932
11744
11976
12511
12921
13038
13068
12866
12694
12545
12337
12131
12109
12233
12096
11743
12222
15629
20784
25586
17528
6883
8565
10013
11624
12497
12916
13141
13380
13619
13840
13890
13971
14092
14233
14428
14817
15113
15486
15895
16353
16911
17207
17337
17307
17061
16963
16857
16083
15096
13869
12830
11899
11372
11064
10982
10866
10880
10989
11138
11284
11423
11630
11657
11700
11743
11800
11784
11803
11740
11800
11797
11778
11689
11819
12084
12661
12874
12909
12828
12826
12572
12339
12175
12175
12210
12074
11707
13148
17276
22535
24651
12936
6927
9245
10142
11493
12491
12907
13271
13387
13533
13664
13884
14077
14242
14451
14766
15079
15413
15793
16127
16609
17069
17475
17551
17561
17329
17035
16451
15587
14497
13463
12567
11922
11470
11269
11213
11152
11176
11227
11380
11511
11578
11604
11808
11872
11929
11888
11922
11912
12027
12086
11968
11829
11900
12304
12644
12911
13060
12890
12753
12559
12453
12177
12190
12277
12235
11872
12735
16403
21500
25191
15630
7061
9259
10291
11432
12457
12997
13250
13428
13606
13712
13843
14060
14271
14439
14657
15016
15319
15702
16083
16565
16960
17372
17475
17462
17373
17006
16408
15639
14663
13550
12486
11915
11515
11232
11159
11203
11200
11279
11330
11412
11469
11551
11672
11820
11803
11760
11776
11836
11807
11857
11814
11875
11908
12173
12580
12883
13000
12917
12805
12594
12457
12296
12217
12248
12247
11914
12051
15010
19883
25172
20033
7885
8602
9830
10994
12046
12727
12982
13186
13472
13674
13844
13998
14135
14319
14516
14805
15167
15516
15908
16367
16786
17138
17336
17353
17298
17031
16609
15889
14930
13840
12801
12050
11631
11259
11146
11169
11199
11304
11455
11511
11511
11600
11685
11734
11773
11864
11849
11922
11875
11881
12033
11910
11772
11977
12359
12719
13031
13063
12943
12827
12632
12409
12215
12221
12261
12117
11594
12613
16633
22273
25440
14005
7537
9568
10712
11738
12641
13074
13335
13452
13599
13766
13915
14122
14335
14477
14701
15060
15441
15718
16127
16630
17055
17376
17481
17517
17379
17155
16587
15652
14578
13499
12538
11863
11465
11235
11193
11161
11210
11363
11527
11614
11638
11639
11748
11810
11901
11908
11874
11913
11924
11900
11995
11872
11792
12041
12399
12808
13120
13139
12993
12809
12619
12482
12268
12267
12252
12043
11712
13477
17818
23726
24123
10872
7811
9669
10904
11965
12649
12997
13218
13439
13612
13800
13919
14022
14225
14494
14779
15053
15435
15862
16266
16730
17154
17408
17575
17551
17368
17057
16435
15468
14371
13294
12352
11752
11364
11161
11064
11082
11253
11333
11419
11496
11554
11666
11697
11740
11785
11854
11922
11861
11913
11905
11956
12006
11882
11807
12016
12483
12940
13177
13166
12972
12770
12587
12432
12290
12300
12266
11995
11769
13911
18438
24171
23369
9685
7876
9753
11057
12085
12759
13059
13262
13492
13619
13762
13951
14173
14346
14482
14754
15027
15422
15844
16273
16741
17160
17481
17616
17490
17320
17055
16378
15414
14379
13277
12367
11705
11276
11035
11030
11133
11227
11289
11374
11433
11483
11594
11697
11694
11719
11730
11810
11823
11754
11811
11866
11938
11739
11744
11841
12243
12648
12991
13138
13078
12963
12781
12602
12396
12274
12308
12209
11751
12377
16084
21620
25837
16088
7067
9010
10226
11516
12457
12912
13110
13309
13494
13673
13875
14046
14200
14414
14583
14883
15276
15619
16078
16620
17039
17361
17567
17559
17436
17172
16724
15916
14860
13786
12725
11985
11516
11218
10947
10907
11029
11139
11212
11257
11420
11510
11594
11668
11704
11695
11740
11748
11777
11804
11818
11844
11804
11723
11903
12317
12624
12872
12961
12899
12753
12558
12429
12231
12191
12273
11984
11644
13685
18200
23711
23157
9915
7820
9777
10801
11859
12612
13015
13183
13401
13628
13785
13889
14042
14270
14506
14793
15065
15466
15860
16313
16723
17164
17420
17490
17415
17202
16826
16185
15245
14321
13250
12315
11585
11273
11164
10976
10952
11163
11285
11424
11529
11607
11716
11698
11803
11858
11964
12053
11896
11919
11961
11974
11873
11865
12065
12417
12762
13030
13071
13098
12943
12740
12563
12375
12302
12323
12183
11703
13759
18323
24157
23095
9734
8159
9957
11094
12133
12770
12975
13209
13474
13605
13845
14020
14188
14360
14521
14773
15042
15386
15720
16213
16763
17218
17437
17565
17490
17304
16928
16250
15211
14123
13065
12224
11635
11344
11164
11050
11099
11157
11288
11358
11524
11567
11593
11688
11784
11866
11890
11865
11857
11742
11832
12058
12037
11914
11988
12318
12749
13029
13054
12933
12835
12724
12577
12350
12239
12275
12282
11946
12585
16205
21693
25565
15221
7424
9348
10476
11737
12611
13027
13192
13312
13536
13719
13894
14019
14173
14390
14657
14902
15319
15745
16065
16484
16902
17354
17486
17489
17375
17082
16601
15818
14690
13560
12573
11868
11411
11149
11003
11013
11032
11192
11255
11365
11533
11653
11681
11784
11850
11821
11848
11881
11913
11913
11978
11999
11936
11831
12063
12424
12821
13094
13023
12881
12764
12571
12411
12212
12186
12191
12188
11716
12468
18052
23894
23550
10057
7706
9678
11122
12220
12767
13000
13288
13481
13669
13792
13985
14174
14358
14611
14798
15073
15429
15799
16217
16681
17102
17378
17462
17499
17315
17044
16454
15521
14427
13374
12469
11790
11312
11098
11020
11029
11129
11262
11379
11549
11582
11641
11741
11747
11812
11821
11880
11860
11933
11885
11891
11972
11969
11891
11816
12132
12535
12905
13131
13018
12887
12787
12586
12428
12296
12331
12337
12133
11836
14747
19603
25185
21105
8055
8194
10010
11557
12495
12992
13196
13400
13618
13727
13816
13999
14145
14382
14593
14888
15165
15581
15948
16369
16763
17162
17443
17534
17515
17311
16993
16376
15458
14362
13285
12344
11731
11363
11185
11112
11138
11165
11337
11439
11558
11619
11660
11632
11684
11744
11831
11823
11773
11767
11687
11792
11821
11773
11758
11945
12265
12672
12958
13032
12910
12822
12628
12478
12308
12230
12319
12216
11802
13285
17626
23177
24709
12252
7297
9365
10567
11821
12603
12940
13224
13342
13553
13791
13893
14037
14240
14500
14677
14969
15375
15773
16240
16723
17105
17383
17533
17522
17405
17156
16684
15861
14806
13699
12687
12005
11553
11200
11007
10962
10996
11140
11286
11361
11482
11630
11688
11707
11811
11780
11786
11887
11891
11803
11881
11783
11773
11864
12164
12589
12813
12927
12787
12699
12465
12324
12138
12181
12242
12243
11992
11917
14450
21099
25083
16637
7270
9132
10107
11408
12400
12965
13148
13252
13478
13673
13889
14017
14178
14357
14658
14943
15263
15583
16058
16499
16958
17354
17545
17587
17483
17298
16742
15948
14904
13780
12733
11947
11415
11234
11093
11069
11093
11220
11224
11340
11490
11651
11745
11754
11771
11805
11844
11850
11894
11886
11964
11934
11960
11995
12378
12687
12954
13019
12955
12865
12659
12536
12303
12254
12274
12321
11968
12170
15073
19893
25142
14667
7357
9294
10305
11616
12501
12981
13138
13323
13543
13763
13937
14096
14196
14417
14654
14908
15267
15653
16101
16550
16957
17353
17606
17611
17519
17263
16768
15914
14839
13692
12687
11938
11497
11244
11088
11048
11099
11176
11278
11418
11475
11558
11684
11833
11800
11870
11856
11842
11859
11891
11850
11857
11914
11879
11816
11928
12284
12655
13020
13110
12973
12821
12704
12532
12324
12272
12325
12315
11890
12023
15079
20007
25419
14569
7237
9113
10264
11666
12523
12985
13193
13445
13652
13728
13874
14090
14211
14450
14709
15066
15393
15764
16169
16665
17117
17525
17790
17806
17751
17512
17046
16245
15095
13922
12884
12049
11563
11285
11136
11089
11271
11363
11416
11477
11590
11696
11780
11820
11854
11920
11888
11924
11909
11902
11841
11876
11900
11838
11838
11786
11992
12450
12889
13108
13036
12998
12856
12639
12460
12283
12326
12361
12260
11741
12764
18521
24226
23321
9837
7860
9662
11036
12154
12810
13159
13385
13512
13692
13856
14013
14207
14350
14574
14797
15122
15481
15891
16333
16723
17233
17602
17808
17824
17652
17340
16759
15857
14795
13582
12583
11868
11413
11213
11077
11123
11088
11200
11327
11500
11506
11609
11694
11777
11739
11797
11801
11813
11811
11812
11865
11919
11990
12008
11965
11891
11968
11998
11985
11900
12204
12672
13058
13211
13211
13131
13040
12850
12684
12518
12488
12487
12120
11817
13954
18566
24440
23353
9889
7995
9694
11086
12184
12912
13263
13400
13575
13772
13952
14033
14157
14343
14579
14837
15207
15546
15863
16287
16803
17267
17644
17854
17873
17748
17546
16990
16063
14961
13862
12799
12095
11605
11333
11193
11178
11265
11347
11389
11484
11604
11640
11756
11799
11838
11762
11808
11803
11784
11846
11911
11894
11922
11952
11951
11973
11985
12017
12038
12037
11911
11957
12559
13043
13184
13249
13128
13037
12914
12825
12549
12567
12569
12291
11767
12993
17085
22710
25514
14320
7902
9598
10496
11908
12755
13145
13328
13459
13711
13832
13926
14053
14333
14500
14661
14938
15249
15703
16105
16511
17000
17483
17645
17724
17592
17398
16966
16199
15102
13911
12830
12077
11479
11150
10980
10958
11011
11099
11239
11242
11369
11455
11574
11585
11652
11825
11859
11764
11801
11876
11930
11837
11913
11985
12009
12009
12046
12052
12265
12245
12130
12094
12501
13009
13238
13284
13206
13336
13153
12997
12850
12687
12599
12616
12251
11801
13632
18076
24064
24238
11209
8251
9803
10983
12137
12909
13237
13367
13602
13753
13924
14122
14217
14330
14619
14870
15120
15402
15794
16292
16737
17213
17532
17801
17837
17749
17382
16920
16088
15014
13807
12789
11981
11580
11276
11150
11135
11107
11203
11220
11377
11462
11514
11556
11712
11802
11843
11842
11896
11874
11880
11949
11933
11934
12004
11981
12102
12134
12134
12126
12177
12232
12194
12101
12272
12719
13094
13338
13297
13296
13186
13020
12816
12655
12580
12667
12582
11954
12254
15573
20733
25903
18751
7928
9063
10285
11714
12547
13043
13211
13439
13591
13777
13884
14062
14184
14392
14581
14893
15194
15562
15971
16394
16929
17406
17659
17775
17799
17594
17354
16720
15729
14587
13526
12493
11820
11392
11150
11090
11090
11209
11335
11439
11555
11551
11592
11702
11783
11794
11808
11817
11854
11965
11950
11917
11953
12011
11990
12006
12021
12093
12139
12121
12169
12209
12210
12271
12351
12204
12318
12685
13104
13329
13349
13377
13412
13179
12994
12802
12708
12676
12718
12346
12179
14718
19437
25358
22205
9190
8611
10255
11594
12551
13127
13367
13583
13784
13891
14091
14208
14390
14499
14701
14965
15227
15541
15905
16347
16827
17377
17613
17819
17866
17764
17493
17008
16112
15074
13557
12559
11876
11452
11136
11049
11118
11172
11242
11261
11356
11418
11522
11625
11677
11712
11710
11714
11761
11740
11783
11776
11822
11817
11867
11862
11896
11930
11972
12070
12113
12131
12247
12311
12207
12203
12562
13027
13336
13485
13383
13306
13104
12962
12824
12712
12650
12631
12435
11959
13480
17695
23443
24963
12763
7726
9565
10840
12178
12821
13165
13354
13587
13760
13889
13984
14172
14383
14616
14832
15053
15401
15688
16403
16933
17369
17641
17849
17870
17784
17453
16983
16124
15086
13929
12943
12119
11644
11299
11092
11014
11108
11181
11254
11311
11349
11506
11527
11661
11709
11786
11879
11868
11826
11848
11868
11856
11828
11832
11811
11874
11954
12005
12086
12069
12036
11980
12396
12808
13103
13186
13180
13143
13110
12876
12613
12431
12481
12511
12226
11906
13937
18409
23981
23713
10814
8224
9866
10822
12040
12791
13052
13251
13444
13607
13771
13961
14169
14383
14646
14824
15069
15399
15723
16133
16629
17119
17476
17655
17653
17412
17110
16472
15474
14300
13258
12347
11725
11334
11193
11093
11023
11017
11132
11278
11336
11460
11505
11588
11638
11722
11726
11815
11798
11856
11867
11854
11843
11878
11922
12015
11893
11824
11863
12201
12566
12813
13119
13078
12983
12880
12758
12599
12475
12329
12370
12164
11790
13065
17065
22490
24672
13081
8061
9952
10865
11940
12730
13204
13294
13459
13686
13875
14039
14259
14439
14668
14720
14903
15266
15715
16154
16692
17162
17464
17602
17625
17392
17065
16532
15667
14588
13415
12482
11733
11357
11151
11102
11081
11122
11140
11315
11441
11534
11585
11687
11791
11824
11872
11851
11874
11909
11923
11857
11887
11954
11974
12008
12011
11959
12004
12299
12667
13026
13243
13110
13075
12956
12744
12592
12419
12483
12592
12425
11907
13260
17206
22732
24972
13204
7638
9683
10750
11872
12877
13170
13386
13616
13781
13850
13983
14169
14342
14598
14847
15172
15520
15975
16371
16851
17285
17607
17900
17896
17759
17493
16812
15908
14842
13678
12619
11844
11497
11292
11142
11095
11174
11190
11302
11391
11534
11593
11658
11701
11801
11851
11876
11891
11861
11773
11625
11760
11769
11795
11826
11821
11776
12026
12370
12681
12943
13050
12996
12972
12786
12657
12342
12195
12265
12320
11953
11830
14341
19005
24706
22128
8852
8671
10166
11547
12402
12859
13108
13293
13459
13652
13846
13934
14099
14332
14612
14909
15207
15549
15950
16393
16901
17489
17621
17753
17729
17613
17212
16566
15505
14384
13277
12420
11764
11355
11151
11021
11073
11149
11296
11308
11408
11486
11573
11637
11704
11716
11747
11824
11760
11808
11860
11766
11834
11849
11903
11958
11871
11840
12122
12597
12938
13211
13160
13092
13017
12830
12604
12465
12441
12425
12462
12089
12419
15667
23076
25146
13126
7350
9522
10855
12053
12772
13109
13272
13468
13676
13770
13916
14165
14332
14561
14788
15045
15363
15762
16189
16676
17193
17622
17863
17892
17767
17509
17115
16380
15369
14200
13121
12290
11749
11390
11215
11157
11243
11264
11328
11421
11553
11654
11678
11747
11837
11722
11775
11850
11841
11825
11815
11897
11846
11871
11937
11910
11832
11977
12327
12731
12971
12995
12929
12864
12682
12571
12400
12314
12389
12364
12017
12589
16419
21844
25681
16049
7490
9359
10310
11517
12382
12795
13076
13253
13348
13500
13747
13961
14139
14264
14381
14780
15138
15475
15913
16435
16924
17399
17613
17566
17496
17273
16835
16127
15123
14080
13033
12141
11571
11208
11000
10903
10944
11049
11167
11326
11413
11412
11537
11623
11698
11765
11810
11818
11879
11912
11923
11935
11932
11953
11833
11827
11986
12332
12742
13141
13087
12867
12835
12647
12524
12329
12316
12419
12249
11821
12728
16708
22270
25497
14800
7725
9743
10540
11720
12532
12989
13177
13297
13476
13674
13916
14007
14194
14424
14639
14901
15170
15468
15973
16472
16920
17356
17567
17580
17480
17212
16788
16010
14960
13817
12801
11957
11469
11203
11097
11086
11062
11170
11315
11362
11405
11515
11636
11674
11760
11864
11850
11828
11901
11884
11856
11925
11926
11926
12010
11984
11890
11941
12334
12784
13037
13072
13086
12995
12794
12663
12513
12400
12341
12309
11777
12438
16212
21809
25935
16424
7978
9555
10534
11689
12569
12983
13201
13347
13512
13666
13786
13951
14163
14394
14623
14862
15217
15562
15951
16425
16881
17233
17516
17626
17507
17268
16875
16203
15174
14017
12985
12216
11686
11291
11067
11050
11094
11220
11367
11399
11525
11620
11650
11697
11814
11868
11811
11858
11929
11908
11830
11941
11959
11968
12002
12015
12087
12130
12079
11937
12214
12671
12993
13237
13216
13131
12969
12800
12609
12462
12434
12478
12265
11758
13133
17303
23152
25070
12684
7892
9764
10995
12008
12748
13112
13260
13458
13692
13876
13982
14158
14292
14518
14724
14996
15288
15759
16261
16640
17072
17432
17624
17707
17664
17372
16937
16148
15162
14073
12997
12166
11583
11233
11166
11188
11233
11252
11367
11480
11511
11621
11719
11781
11742
11761
11800
11779
11853
11958
11904
11891
11867
11924
12024
11984
11982
12031
12079
12045
11991
12383
12938
13353
13380
13236
13215
13073
12865
12651
12503
12548
12554
12294
11901
13446
17814
23788
25045
12351
7948
9756
10971
12128
12830
13118
13194
13452
13656
13829
13990
14102
14314
14565
14743
14989
15331
15759
16135
16550
17055
17456
17673
17732
17599
17339
16913
16106
15130
13987
12904
12101
11576
11229
11066
11030
11103
11179
11246
11390
11539
11654
11669
11686
11708
11746
11698
11850
11926
11825
11801
11888
11873
11925
11990
12037
12062
12092
12060
12029
12375
12862
13098
13199
13130
13095
12956
12757
12601
12550
12544
12562
12259
11851
13572
18026
23750
24541
11743
7903
9918
10914
11973
12732
13043
13213
13381
13606
13716
13937
14152
14317
14421
14673
14917
15281
15664
16100
16560
17019
17324
17572
17585
17386
17120
16642
15817
14714
13636
12572
11855
11434
11256
11034
11004
11054
11205
11389
11405
11497
11621
11652
11748
11779
11714
11727
11784
11802
11886
11954
11900
11855
11896
12005
12071
12095
12001
11966
12431
13000
13228
13138
13055
13075
12898
12704
12518
12422
12390
12416
12138
11926
14330
19104
25110
22642
9360
8591
10123
11262
12243
12910
13196
13321
13435
13730
13875
13949
14066
14193
14474
14812
15071
15408
15445
15918
16751
17201
17411
17627
17640
17345
16719
15816
15094
14669
13974
13007
12127
11568
11263
11122
11086
11169
11239
11358
11364
11482
11601
11721
11750
11762
11790
11876
11843
11860
11855
11919
11823
11782
11885
11957
12109
12158
12142
12009
11924
12166
12717
13093
13325
13284
13286
13138
13014
12684
12451
12452
12596
12445
11940
13137
17218
22777
25417
13745
7888
9819
10879
12123
12921
13268
13416
13582
13586
13843
14093
14277
14410
14631
14824
15050
15282
15571
16024
16563
17121
17479
17670
17706
17639
17236
16697
15983
15212
14115
13053
12226
11644
11258
11119
11024
11142
11297
11551
11586
11604
11662
11780
11770
11836
11810
11844
11972
11852
11982
11902
11764
11804
12001
12025
11999
12028
12191
12077
11920
12101
12605
13019
13259
13142
13008
13022
12885
12835
12649
12427
12482
12481
12085
12243
15074
19660
25037
20314
7853
8591
10276
11513
12403
12798
13130
13464
13646
13843
14174
14237
14305
14458
14677
14846
15180
15605
15967
16361
16945
17476
17545
17600
17701
17410
17262
16823
15722
14679
13673
12252
11543
11320
11252
11179
11223
11423
11469
11577
11566
11661
11753
11721
11872
11969
11888
11577
11808
12013
11975
11879
12013
11963
11982
12070
12200
12255
12142
11909
12024
12686
13084
13268
13367
13397
13223
13001
12777
12663
12499
12504
12433
12216
12030
14348
18905
24581
22770
9279
8088
9851
11207
12347
13034
13272
13437
13619
13815
13878
13992
14174
14416
14555
14726
15033
15460
15830
16327
16790
17243
17571
17638
17699
17363
16787
16254
15494
14470
13328
12403
11897
11417
11184
11037
11060
11141
11228
11238
11430
11449
11582
11842
11899
11892
11853
11816
11743
11721
11764
11731
11837
11878
11840
12047
11923
12018
11878
12066
12561
12933
13232
13111
13023
12973
12609
12195
12395
12640
12610
12353
11968
13363
17431
22433
25108
13829
7375
9523
10601
11699
12458
13124
13508
13553
13693
13848
13948
14070
14122
14068
14459
15156
15437
15847
16118
16460
16810
17218
17428
17552
17421
17101
16535
15661
14594
13508
12606
11846
11376
11173
11189
11134
11188
11400
11513
11479
11728
11849
11879
11951
12009
11728
11899
12050
11981
12080
12104
12135
12110
12162
11986
11934
11990
12205
12603
13228
13288
13386
13255
13038
12873
12668
12385
12429
12416
12185
11817
13698
18147
23913
24297
11084
8046
9890
10930
11871
12746
13077
13276
13544
13624
13673
14032
14165
14400
14631
14749
14832
15148
15819
16523
16822
17196
17595
17779
17648
17487
17128
16430
15555
14273
13191
12231
11585
11116
10977
11120
11174
11169
11188
11276
11403
11524
11568
11654
11763
11842
11755
11804
11941
12005
11772
11646
11773
11891
11938
12080
11966
11858
11878
12436
12848
13015
13196
13183
13184
12902
12781
12477
12374
12458
12422
12179
11957
14110
18675
24611
23642
9834
7957
9746
11166
12248
12838
13121
13307
13485
13595
13796
13930
14034
14273
14483
14723
15231
15589
15937
16360
16890
17247
17619
17732
17595
17356
17064
16483
15436
14362
13213
12405
11708
11344
11142
11103
11080
11238
11343
11439
11501
11612
11701
11786
11759
11686
11686
11848
11934
11944
11958
11891
11919
11595
11585
11882
12171
12124
11973
11933
12325
12787
13122
13176
13028
12989
12960
12840
12669
12571
12525
12506
12295
11910
13069
17064
22766
25469
13445
7042
9390
10818
12070
12752
12987
13315
13529
13537
13657
13922
14187
14396
14614
14875
15188
15531
15963
16328
16889
17331
17690
17747
17728
17596
17272
16748
15903
14782
13626
12723
12014
11460
11108
11023
11061
11224
11336
11449
11465
11553
11659
11697
11700
11749
11736
11805
11770
11826
11886
11889
11809
11852
11841
11902
12093
12039
11860
11868
12307
12784
13057
13152
13110
13080
13002
12821
12642
12475
12386
12445
12129
12104
14793
19593
25163
22583
8951
8354
9873
11118
12207
12792
13041
13369
13559
13976
14010
14098
14265
14393
14585
14940
15290
15662
16023
16424
16937
17320
17691
17573
17462
17323
16887
16161
15099
14078
12953
12145
11536
11086
11044
10962
10852
11007
11159
11295
11414
11504
11618
11690
11671
11808
11873
11808
11886
11920
11925
11902
11936
11853
11985
12051
12016
11812
11909
12328
12928
13098
12942
12870
12953
12852
12596
12308
12330
12423
12301
12033
12291
15360
20321
25567
19604
7561
8756
9998
11680
12547
13012
13345
13546
13679
13828
13864
13976
14223
14373
14751
15087
15361
15711
16217
16670
17102
17392
17579
17813
17818
17563
17005
16273
15084
13892
12838
12082
11590
11213
11040
11121
11227
11274
11229
11314
11245
11282
11552
11777
11845
11837
11783
11654
11751
11744
11886
11833
11797
11878
11987
12003
11990
12010
12024
12340
12671
13089
13128
13054
13066
12994
12748
12500
12425
12438
12466
12360
11886
13346
17480
23109
22080
8724
8016
9776
11165
12240
12952
13182
13361
13577
13702
13883
14044
14181
14283
14489
14844
15147
15533
15909
16387
16938
17317
17574
17756
17802
17650
17244
16522
15598
14549
13631
12642
11885
11304
11142
11129
11155
11140
11241
11410
11454
11324
11533
11697
11789
11841
11761
11795
11804
11847
11879
11990
12049
11992
11900
12028
12075
11979
12030
12409
12856
13217
13173
13068
12941
12806
12798
12558
12346
12308
12401
12026
12210
16510
21898
25834
16505
6758
8777
10240
11628
12507
12991
13210
13411
13447
13750
14012
14088
14360
14479
14711
15021
15408
15748
16206
16577
17014
17387
17625
17735
17832
17629
17097
16167
15176
14144
13122
12117
11609
11328
11176
10991
10916
11116
11175
11206
11291
11421
11518
11597
11667
11777
11846
11837
11849
11756
11816
11831
11919
11930
11760
11648
11946
12347
12820
13014
12996
13009
12950
12751
12541
12364
12194
12234
12346
12037
12269
15249
20200
25472
20395
7611
8006
9896
11294
12275
12907
13202
13249
13531
13672
13794
13847
14082
14314
14500
14782
15131
15562
15975
16267
16476
17187
17724
17873
17799
17572
17218
16685
15685
14504
13411
12426
11753
11318
11096
11035
11002
11047
11224
11291
11361
11341
11598
11610
11810
11800
11838
11805
11963
11942
11897
11937
11996
11996
11984
12362
12755
12959
12998
13001
13012
12910
12684
12528
12101
12244
12344
12149
11888
14009
17869
23862
23826
10473
7391
9522
10955
12109
12721
13048
13315
13514
13676
13724
13897
13987
14205
14426
14672
14911
15371
15806
16238
16697
17214
17472
17626
17776
17565
17265
16587
15632
14560
13479
12518
11824
11386
11169
10952
10871
11026
11176
11213
11347
11472
11661
11706
11641
11647
11658
11770
11878
12052
11975
11943
11896
12075
12280
12794
13105
12882
12720
12773
12587
12398
12083
12085
12092
12045
11830
11877
21944
25641
15778
7264
8951
10376
11701
12447
12905
13105
13239
13433
13576
13781
13873
14163
14308
14478
14752
15101
15546
16092
16535
16987
17380
17610
17708
17431
17153
16862
16063
14880
13774
12767
11957
11402
11180
11019
11091
11123
11094
11295
11402
11498
11516
11599
11742
11824
11801
11887
11856
11976
11940
11889
11791
12110
12523
12786
12991
13053
13031
12795
12628
12447
12334
12196
12244
12267
11860
12046
15439
20804
25913
19564
7379
9143
10278
11565
12344
12767
12899
13156
13394
13538
13677
13854
14073
14303
14515
14763
15136
15598
16116
16600
17004
17424
17622
17584
17433
17192
16571
15588
14616
13402
12454
11639
11285
11048
10997
10955
11017
11004
11153
11212
11342
11479
11580
11742
11717
11738
11822
11766
11791
11682
11735
11799
12154
12481
12630
12859
12769
12778
12659
12438
12190
12113
12107
12123
11996
11573
13022
17361
22856
25081
13608
7356
9355
10687
11898
12499
12852
13096
13413
13454
13601
13827
14000
14057
14410
14754
14970
15241
15758
16255
16683
17110
17432
17535
17467
17471
16933
16187
15200
14151
12885
12058
11545
11279
11074
11093
11137
11140
11180
11362
11435
11471
11643
11715
11850
11780
11758
11778
12041
12005
11724
11721
11925
12066
12420
12705
12834
12744
12849
12854
12447
12157
12056
12347
12351
11853
11634
14193
18747
24484
22791
9736
8252
9955
10810
11745
12470
13102
13445
13535
13485
13665
13806
14043
14335
14523
14883
15114
15577
15730
16237
16866
17332
17527
17565
17560
17337
16734
15891
14892
13709
12602
11807
11179
11161
11204
11176
11330
11375
11266
11270
11393
11398
11545
11662
11731
11691
11779
12010
12044
11961
11929
12064
11860
11751
11982
12514
12893
13071
13050
12997
12728
12662
12530
12232
12263
12446
12377
11729
12356
15962
21256
25793
17510
7513
9233
10163
11364
12375
13052
13336
13532
13421
13629
13922
13961
14036
14362
14645
14952
15334
15873
16280
16705
17073
17459
17716
17575
17555
17163
16584
15564
14523
13376
12409
11653
11293
11149
11082
11046
11042
11189
11398
11597
11458
11520
11617
11769
11834
11953
11961
11950
11906
11909
11947
12015
11962
12101
12018
11925
11912
12315
12748
13022
13140
13002
12959
12872
12767
12518
12431
12352
12464
12065
11845
14032
18717
24647
23698
10377
8278
9818
10905
12049
13044
13207
13283
13435
13583
13881
13953
14033
14215
14488
14756
15131
15537
16049
16512
16967
17275
17466
17525
17518
17253
16900
16189
15193
14051
12963
12127
11506
11278
11160
11094
11149
11380
11335
11318
11507
11555
11519
11562
11619
11660
11805
11727
11733
11877
11876
11811
11869
11870
11887
11888
11925
11995
12044
11890
11987
12623
13009
13139
13196
13138
12947
12784
12642
12569
12490
12508
12412
12021
12332
15641
20706
25886
12991
7816
9651
11026
12078
12652
12960
13254
13486
13569
13676
13917
14026
14177
14346
14661
15027
15317
15780
16162
16619
17098
17496
17537
17533
17468
17264
16692
15978
15038
13878
12850
12037
11611
11267
11090
11102
11193
11271
11469
11518
11599
11681
11811
11847
11807
11763
11840
11953
11942
11981
11930
11978
11989
12050
12024
12120
12190
12193
12293
12219
12090
12369
12805
13377
13550
13120
13073
13056
13070
12807
12550
12459
12619
12219
11728
13365
17663
23758
24993
12290
8079
9833
11196
12243
12811
13120
13357
13557
13768
13921
14127
14305
14387
14539
14747
15114
15488
15801
16203
16741
17049
17434
17731
17788
17598
17259
16753
16018
14943
13946
12828
11946
11501
11266
11185
11132
11143
11190
11320
11386
11442
11534
11577
11644
11738
11689
11707
11756
11823
11846
11830
11857
11818
11910
11867
11874
11966
12016
11844
11868
12174
12800
13113
13203
13086
13085
12888
12743
12524
12450
12446
12345
11925
12608
16203
21643
25964
16942
7484
9187
10587
11846
12623
12985
13374
13586
13649
13756
13890
14029
14298
14542
14846
15052
15299
15631
16110
16576
17074
17490
17629
17774
17696
17491
17049
16310
15172
13986
12961
12141
11549
11269
11145
11025
10968
11143
11221
11259
11458
11617
11772
11589
11644
11694
11900
11897
11912
11845
11814
11863
11863
11887
11955
11958
11897
11793
11905
12363
12881
13139
13044
12995
12908
12709
12526
12501
12425
12400
12156
11918
13660
18002
23901
24491
11137
7293
9370
10907
12149
12707
12947
13213
13346
13510
13699
13812
14030
14137
14415
14640
15052
15373
15769
16217
16720
17099
17430
17668
17715
17603
17267
16757
15864
14765
13622
12728
11943
11495
11227
11055
10961
11060
11086
11169
11324
11430
11561
11681
11731
11824
11900
11828
11775
11777
11855
11833
11843
11949
11945
11838
11770
12078
12520
13038
13010
12960
13021
12827
12591
12422
12277
12269
12285
12079
11845
13932
18564
24407
23903
10292
7457
9425
11002
12215
12747
12969
13273
13573
13711
13818
13955
14133
14373
14564
14787
15010
15456
15918
16427
16897
17382
17670
17724
17677
17468
17090
16177
15306
14383
13443
12489
11869
11489
11261
11105
11047
11054
11166
11188
11303
11365
11494
11629
11570
11614
11825
11817
11772
11766
11789
11885
11927
11869
11829
11806
11862
12482
12834
13051
12852
12863
12657
12438
12357
12379
12423
12416
12082
11976
14293
18840
24199
22782
9456
7768
9781
10805
11917
12673
13005
13146
13437
13632
13716
13896
14131
14369
14608
14860
15153
15486
15877
16296
16776
17266
17509
17613
17618
17523
17160
16462
15434
14388
13297
12350
11663
11268
10954
10909
10952
11030
11208
11239
11377
11549
11681
11703
11695
11629
11832
11877
11874
11834
11939
11985
11843
11826
11957
12284
12595
12801
12815
12818
12784
12646
12551
12313
12299
12246
12180
11940
12284
15558
20652
25831
19276
7614
8837
9982
11241
12238
12792
13117
13337
13548
13716
13856
14044
14194
14467
14631
14842
15133
15642
16138
16574
17022
17454
17706
17785
17693
17495
16957
16213
15162
13943
12822
11965
11468
11210
11043
11047
11106
11086
11205
11285
11450
11554
11667
11763
11749
11821
11887
11975
11925
12002
11866
11905
11937
11878
11797
11975
12358
12944
13047
13007
12843
12874
12662
12409
12266
12359
12377
12248
11832
13024
17160
22900
25637
13971
7346
9304
10589
11823
12617
12893
13162
13499
13659
13700
13977
14082
14263
14543
14766
15006
15366
15719
16058
16556
17081
17553
17699
17729
17601
17329
16782
15911
14715
13559
12557
11875
11430
11128
10917
10889
11144
11164
11196
11248
11427
11584
11721
11710
11768
11799
11829
11788
11899
11877
11875
11832
11930
12014
11954
11880
11993
12538
12913
13186
13041
13006
12921
12707
12529
12406
12376
12435
12172
11934
13641
18182
24167
24741
11202
7595
9481
10983
12159
12791
13157
13307
13485
13598
13715
14009
14132
14259
14519
14803
15042
15331
15800
16245
16726
17145
17529
17756
17698
17600
17248
16626
15706
14601
13371
12417
11819
11313
11024
10944
11015
11104
11177
11345
11346
11349
11446
11535
11612
11789
11876
11716
11779
11845
11888
11926
11894
11852
12007
12038
12048
11882
12068
12414
12872
13118
13159
13126
13011
12752
12608
12359
12373
12406
12328
11885
12966
17001
22610
25885
15088
7285
9084
10489
11821
12622
12971
13258
13413
13551
13764
13973
14180
14367
14630
14818
15170
15515
15888
16293
16732
17138
17570
17831
17964
17814
17509
17054
16224
15071
13939
12823
11889
11473
11144
11045
10974
11050
11155
11182
11178
11441
11525
11563
11617
11658
11620
11734
11808
11773
11786
11844
11843
11833
12010
11881
11725
11778
12301
12874
13085
12982
12906
12836
12671
12564
12442
12321
12371
12221
11868
12476
15961
21164
25909
18422
7290
8823
9971
11312
12270
12807
13127
13413
13575
13699
13827
14037
14247
14497
14635
14966
15354
15773
16180
16568
17039
17405
17674
17773
17755
17530
17046
16191
15171
13945
12793
11861
11390
11010
10840
10851
10873
11048
11144
11304
11351
11448
11488
11589
11645
11672
11852
11905
11758
11818
11842
11799
11856
11912
11951
11889
11970
12356
12726
12977
12988
12913
12873
12706
12559
12330
12314
12318
12308
11876
12648
16254
21577
25928
17171
7279
9005
10160
11580
12502
12996
13239
13385
13560
13707
13907
14003
14233
14432
14638
14926
15367
15708
16150
16576
17139
17568
17774
17824
17766
17552
16962
16100
15061
13796
12717
11997
11364
11070
10973
11008
11014
11136
11166
11211
11448
11588
11643
11727
11706
11707
11883
11884
11844
11818
11965
11928
11886
11873
11994
12021
12039
11916
12246
12645
13002
13113
13100
13079
13018
12795
12607
12465
12483
12512
12345
11955
13409
17727
23572
25479
12940
7565
9394
10728
12034
12878
13177
13346
13499
13621
13734
13986
14173
14365
14522
14844
15173
15481
15843
16296
16776
17290
17769
17949
18023
17789
17530
16998
16090
15021
13798
12670
11904
11408
11194
11058
10950
10929
10947
11303
11396
11464
11521
11650
11630
11708
11753
11858
11785
11762
11815
11865
11783
11876
11925
11883
12009
12111
12024
11901
11959
12412
12885
13096
13174
13087
13053
12955
12731
12531
12387
12397
12473
12185
11999
14206
18854
25009
23504
9510
7775
9601
11194
12281
12916
13226
13372
13498
13671
13880
13993
14188
14379
14591
14750
15091
15550
16003
16362
16839
17357
17772
17967
17933
17820
17527
16878
15883
14716
13510
12489
11809
11359
11143
11015
11077
11100
11168
11219
11276
11369
11492
11571
11715
11738
11758
11820
11905
11869
11875
11904
12075
11932
11901
12002
11972
11949
11783
11903
12402
12810
13064
13241
13102
13076
13015
12786
12577
12409
12293
12534
12259
11906
13406
17739
23528
25673
13693
7362
9197
10465
11851
12567
12959
13285
13518
13630
13757
13890
14149
14303
14484
14738
15031
15352
15732
16177
16731
17272
17642
17860
17908
17834
17512
17026
16064
14971
13713
12720
11920
11427
11152
10985
10884
10926
10952
11156
11131
11265
11394
11481
11545
11574
11620
11672
11707
11766
11719
11775
11876
11749
11735
11869
11989
11912
11763
12046
12632
12988
13032
13018
13014
12933
12727
12546
12382
12334
12444
12329
11976
13510
17790
23649
24861
12148
7668
9517
10645
11882
12682
13117
13426
13407
13588
13925
14072
14113
14374
14660
14941
15049
15447
15784
16212
16824
17384
17728
17895
17972
17899
17596
16862
16011
14920
13717
12610
11829
11181
11054
10999
11028
11064
11196
11355
11417
11440
11539
11625
11698
11723
11793
11828
11804
11843
11928
11900
11838
11902
11860
11913
12001
12023
11920
11954
12308
12721
13031
13228
13098
13126
13057
12849
12532
12478
12547
12530
12252
11851
13628
17998
24092
24935
11738
7754
9540
10841
12049
12802
13067
13262
13492
13644
13696
13914
14136
14261
14408
14770
15032
15368
15748
16273
16729
17269
17586
17818
17842
17744
17516
17058
16157
14609
13391
12324
11666
11295
11051
10843
10851
10961
11147
11145
11271
11344
11496
11642
11749
11809
11829
11826
11855
11893
11877
11810
11906
11934
11861
11955
12016
12064
12048
12175
12259
12133
12036
12456
12853
13158
13187
13241
13186
13059
12885
12609
12444
12554
12585
12307
11976
13934
18359
24554
24388
10733
7772
9619
11111
12144
12931
13179
13434
13567
13714
13903
14052
14196
14368
14626
14961
15199
15528
15928
16384
16836
17485
17779
17949
18020
17890
17508
16842
15922
14705
13557
12525
11768
11376
11151
10954
10955
11133
11275
11300
11334
11429
11513
11644
11613
11683
11676
11671
11672
11712
11773
11845
11805
11813
11784
11943
11979
12020
12022
12037
12090
12110
12163
12082
12023
12356
12788
13093
13267
13293
13267
13132
12889
12738
12638
12613
12656
12444
12051
13420
17529
23448
25681
13814
7513
9351
10784
12078
12767
13177
13382
13557
13598
13827
14049
14268
14471
14665
14870
15221
15564
16017
16429
16836
17366
17840
18014
18000
17885
17555
17081
16146
15105
13886
12744
11850
11394
11105
10987
10880
10908
11065
11101
11264
11355
11369
11457
11537
11494
11635
11644
11740
11712
11720
11701
11742
11765
11828
11849
12002
11978
12022
12149
12025
11831
12065
12639
12973
13175
13116
13073
13069
12853
12665
12502
12468
12470
12311
12062
13373
17323
22787
25625
14362
7252
9355
10343
11705
12934
13164
13313
13481
13711
13985
14090
14192
14344
14560
14845
15122
15475
15922
16468
17001
17337
17594
17872
17943
17820
17404
16813
15866
14747
13570
12592
11832
11349
11015
10884
10819
10859
10941
11110
11161
11315
11545
11543
11617
11653
11690
11731
11790
11689
11775
11741
11933
11875
11846
11963
11971
12025
12001
11929
11971
12412
12856
13182
13191
13182
13028
12839
12700
12572
12438
12437
12378
11988
12378
15745
21137
26007
12827
7511
9445
10667
11974
12796
13134
13361
13471
13634
13799
14061
14263
14349
14513
14709
14991
15327
15802
16222
16760
17307
17710
17942
17990
17899
17544
17093
16342
15193
13875
12814
11908
11347
11090
11046
10896
10927
10955
11149
11198
11319
11486
11563
11583
11589
11663
11703
11733
11674
11699
11718
11810
11749
11793
11841
11854
11927
11940
11887
11916
12369
12829
13138
13085
13120
13131
12975
12757
12598
12511
12511
12493
12329
12992
16773
22345
25883
15399
7096
8948
10456
11864
12663
13032
13338
13558
13695
13831
13977
14193
14314
14545
14772
15075
15402
15766
16189
16706
17220
17641
17901
17946
17936
17807
17372
16606
15562
14320
13225
12326
11628
11234
11105
10957
10892
10934
11146
11233
11358
11541
11592
11580
11677
11644
11663
11735
11701
11735
11720
11794
11755
11909
11968
11993
11994
12066
12016
11944
12318
12709
13090
13244
13187
13162
13019
12741
12511
12324
12418
12557
12173
12292
15218
20167
25819
20808
7702
8035
9906
11456
12399
12979
13277
13440
13684
13844
13967
14100
14272
14461
14667
14948
15354
15788
16189
16570
17028
17519
17823
18052
17999
17820
17385
16881
16056
14845
13600
12613
11905
11469
11207
11018
11036
11065
11207
11237
11367
11444
11585
11701
11753
11694
11706
11750
11758
11765
11844
11841
11895
11905
11854
11911
11956
11905
11876
12336
12733
13046
13062
12953
12952
12789
12522
12355
12307
12506
12406
11983
12878
16723
22173
25926
16305
7180
8937
10131
11623
12574
13037
13255
13451
13597
13677
13780
14052
14202
14431
14653
14965
15293
15653
16165
16672
17110
17509
17803
17864
17826
17612
17097
16368
15396
14162
13087
12084
11545
11209
10966
10848
10901
11006
11138
11250
11330
11525
11617
11664
11675
11715
11788
11792
11765
11847
11845
11840
11799
11893
11859
11829
11899
12264
12585
12933
13004
12936
12693
12542
12446
12306
12252
12268
12130
11764
12952
16914
22467
25728
14941
7175
9178
10330
11706
12499
13020
13324
13471
13484
13650
13863
13987
14203
14429
14649
14974
15464
15702
16043
16628
17139
17552
17730
17714
17805
17519
16999
16160
15103
13897
12751
11878
11377
11240
10961
10980
10952
11042
11190
11241
11254
11514
11571
11746
11789
11749
11913
11966
11948
11769
11888
11993
12020
12042
12154
11904
11818
11982
12428
12996
13163
13085
13090
12935
12798
12553
12365
12381
12524
12365
11954
13132
17063
22863
25893
14809
7200
9130
10595
11890
12686
13038
13235
13401
13518
13692
13846
14026
14148
14397
14682
14970
15225
15561
16016
16504
17024
17517
17731
17751
17790
17523
16996
16229
15216
14035
13003
12201
11596
11148
11056
11063
11009
11120
11035
11266
11443
11556
11499
11531
11556
11674
11661
11727
11651
11733
11889
11844
11749
11774
11848
11885
12098
11928
11837
12144
12666
12972
13103
13010
12991
12851
12784
12656
12427
12371
12443
12277
11912
12921
16875
22757
25815
14592
6914
9035
10658
12006
12758
13188
13283
13445
13555
13737
13928
14205
14320
14413
14765
15113
15344
15772
16129
16562
17092
17638
17913
17895
17774
17460
17146
16509
15521
14214
13098
12328
11735
11365
11036
10922
11115
11140
11256
11432
11372
11491
11566
11710
11769
11675
11783
11862
11819
11794
11717
11817
11823
11883
11916
11938
11902
12011
12043
12013
11957
12327
12745
13009
13156
13190
13061
12841
12644
12545
12410
12383
12452
12161
12062
14567
19310
25251
22892
9103
7887
9724
11238
12414
12962
13223
13314
13582
13735
13957
14033
14267
14374
14611
14827
15067
15494
15990
16408
16876
17380
17756
17872
17848
17667
17400
16907
15993
15011
13789
12768
11987
11423
11065
11012
10991
11028
11035
11091
11235
11390
11455
11511
11697
11700
11701
11742
11699
11696
11745
11692
11757
11711
11814
11863
11966
11878
11844
11910
12385
12826
13011
12957
12885
12914
12720
12554
12421
12422
12376
12342
11948
12445
15745
20876
25802
18757
7321
8729
10083
11520
12459
12864
13100
13371
13566
13681
13797
13973
14207
14376
14572
14828
15148
15539
15994
16376
16955
17517
17811
17922
17846
17588
17120
16428
15499
14305
13186
12296
11693
11417
11181
11032
11001
11027
11072
11248
11354
11594
11662
11693
11769
11759
11728
11756
11770
11734
11808
11867
12023
11933
11988
12005
11920
11782
12047
12440
12894
13214
13123
13049
13016
12856
12688
12404
12386
12454
12302
11980
12758
16358
21768
26030
17310
7381
8963
10437
11749
12476
12920
13209
13446
13595
13646
13893
14100
14163
14406
14725
15002
15267
15620
16038
16583
17009
17430
17734
17853
17800
17604
17196
16454
15393
14287
13240
12287
11597
11246
11132
11035
10971
11033
11160
11174
11374
11462
11517
11577
11736
11805
11897
11864
11806
11754
11822
11787
11812
11817
11831
11863
11963
12040
11977
12257
12635
13025
13167
13169
13056
13031
12829
12633
12377
12391
12494
12367
11956
13208
17278
23206
25714
13761
7166
9116
10768
12043
12787
13163
13320
13463
13599
13617
13810
13977
14252
14516
14754
14976
15339
15781
16221
16677
17097
17526
17698
17780
17758
17588
17137
16315
15229
14184
13132
12233
11596
11135
10968
10958
11028
11102
11273
11434
11475
11678
11680
11676
11735
11715
11793
11737
11704
11731
11848
11852
11890
11886
11964
12014
12102
12046
11926
11999
12542
13026
13218
13249
13138
13175
13045
12834
12554
12434
12470
12520
12109
12500
15865
21180
26053
19421
7420
8511
10005
11470
12384
12855
13080
13296
13455
13678
13884
14011
14254
14401
14599
14791
15111
15508
15957
16435
16964
17396
17741
17891
17807
17580
17170
16497
15417
13926
12866
11992
11361
10975
