11173
11213
11272
11391
11528
11670
11787
11753
11677
11898
11827
11736
11785
11851
11769
11894
11966
11959
11809
11947
12257
12609
12912
13055
12886
12663
12572
12480
12279
12185
12255
12166
11958
12588
15833
20983
25404
17511
7175
8618
10195
11515
12436
12894
13046
13260
13515
13669
13802
13995
14121
14334
14549
14850
15112
15422
15774
16336
16899
17226
17276
17291
17225
16985
16538
15829
14969
13953
13115
12369
11643
11261
11143
11087
11341
11316
11420
11461
11610
11657
11800
11776
11740
11777
11824
11816
11776
11761
11956
11953
11854
11883
12039
12376
12705
12986
13114
12964
12731
12643
12472
12295
12183
12208
12201
11785
12407
15687
20935
25472
17551
7366
8667
10241
11858
12693
13112
13268
13401
13599
13740
13921
14021
14119
14334
14547
14935
15381
15764
16108
16435
16909
17277
17501
17399
17295
17059
16707
15928
14972
14043
13058
12304
11750
11399
11181
11180
11266
11335
11508
11582
11631
11715
11806
11961
11905
11885
11859
11886
11775
11877
11897
12008
11919
11991
12097
12313
12702
12915
13004
12919
12992
12827
12521
12201
12171
12333
12270
11961
12103
14645
19709
24711
19638
7588
7873
10113
11612
12539
13031
13272
13376
13488
13679
13819
13902
14208
14400
14580
14907
15267
15478
15952
16375
16810
17078
17155
17213
17115
17013
16671
16089
15159
14375
13429
12598
11848
11530
11377
11290
11337
11391
11399
11453
11510
11738
11794
11759
11698
11774
11837
11895
12024
11939
11856
11837
12007
11877
11896
11927
12236
12502
12993
13159
13094
12938
12787
12648
12447
12257
12258
12370
12099
12245
14723
19534
24639
20392
7922
7801
10052
11651
12475
12888
13093
13216
13390
13731
13874
13982
14192
14353
14582
14867
15191
15455
15834
16257
16718
17129
17296
17266
17326
17001
16717
16215
15363
14356
13309
12440
11882
11472
11147
11147
11254
11210
11281
11514
11478
11524
11671
11843
11697
11664
11844
11871
11804
11959
11915
12016
11948
11867
11907
12248
12422
12764
12977
12951
13067
12743
12504
12258
12307
12333
12326
12210
12035
13991
18789
24713
23039
9641
7809
9819
11256
12404
13011
13169
13336
13642
13714
13937
14044
14047
14160
14425
14744
15063
15387
15808
16261
16680
17083
17321
17389
17396
17180
16740
16235
15386
14404
13239
12352
11677
11381
11133
10997
11064
11104
11270
11413
11593
11707
11734
11755
11813
11877
11878
11895
11959
11922
12012
11929
11963
11976
12011
11976
12315
12721
13061
13183
13084
12866
12822
12705
12463
12335
12374
12374
12064
12313
14999
20025
25410
20196
8024
8351
10059
11421
12488
13071
13251
13432
13544
13695
13864
14064
14319
14387
14559
14836
15308
15441
15760
16300
16833
17161
17364
17432
17389
17039
16691
16133
15318
14271
13240
12420
11785
11551
11344
11317
11184
11302
11532
11644
11549
11607
11723
11852
11864
11941
11857
11949
11938
11976
12031
12035
12162
12180
12156
12013
12227
12584
12979
13231
13214
13147
13005
12653
12584
12450
12535
12448
12204
11955
13489
17628
23450
24118
11919
7016
9369
11123
12237
12913
13190
13411
13621
13815
13970
14049
14218
14425
14564
14847
15116
15412
15741
16288
16746
17069
17364
17412
17363
17187
16886
16430
15708
14843
13862
12903
12289
11765
11465
11222
11229
11341
11552
11630
11683
11709
11774
11972
12024
11946
11890
11918
11729
11901
11914
11945
11829
11959
12094
12058
12018
12001
12104
12472
12982
13345
13283
13072
12946
12700
12541
12446
12530
12514
12305
12180
14017
18325
24065
23343
10672
7238
9672
11349
12298
12890
13280
13420
13510
13631
13779
14065
14212
14478
14647
14849
15120
15592
15916
16314
16628
17035
17322
17433
17260
17188
16984
16564
15842
14811
13876
12909
12183
11489
11299
11047
11129
11193
11437
11486
11610
11587
11653
11674
11860
11919
11921
11818
11690
11763
11808
11891
11789
11935
11998
11845
11717
12044
12400
12800
12930
12986
13020
12873
12623
12493
12294
12246
12310
12254
12109
13126
16892
22297
25198
14936
6911
8824
10490
11867
12620
13024
13218
13374
13547
13715
13851
13978
14262
14496
14661
14926
15208
15572
15964
16469
16872
17302
17403
17473
17402
17048
16499
15788
14831
13757
12898
11970
11444
11199
11003
10966
11073
11117
11298
11427
11572
11628
11698
11660
11674
11678
11758
11840
11789
11773
11820
11842
11894
11822
11841
11837
12028
12337
12802
13180
13052
13016
12896
12541
12312
12165
12129
12274
12140
11907
13468
17541
23241
24095
11844
7672
9578
10819
12069
12864
12947
13107
13384
13470
13676
13914
13973
14131
14539
14688
14985
15376
15687
16175
16647
17072
17378
17840
17762
17597
17337
16800
15790
14770
13107
12138
11475
11088
10939
10953
11128
11289
11330
11409
11484
11494
11678
11804
11739
11739
11887
11888
11861
11756
11938
11711
11599
11710
11917
11882
11826
12002
12491
12662
12884
13036
12880
12911
12782
12594
12265
12263
12415
12443
12111
12489
15590
20601
25335
18576
7336
8374
10257
11798
12693
13077
13195
13414
13645
13798
14000
14176
14336
14444
14791
14960
15356
15557
16210
16527
16855
17211
17567
17578
17411
17234
16890
15885
14934
14015
13112
12311
11732
11441
11253
11225
11235
11370
11360
11604
11735
11782
11703
11901
12002
12037
11871
11821
11803
11846
11914
11851
11797
11798
11912
12030
12172
11904
11988
12383
12928
13269
13102
12946
12901
12742
12551
12503
12409
12450
12372
12287
13520
17309
22851
24462
13172
6745
9060
10971
12111
12835
13144
13391
13518
13693
13802
13985
14122
14314
14538
14711
15116
15422
15864
16171
16448
16910
17392
17493
17487
17325
17040
16546
15869
15006
13980
13031
12308
11776
11446
11253
11269
11403
11490
11586
11594
11727
11760
11903
11814
11886
11948
12097
12008
11977
11936
11958
11848
11994
11918
11820
11756
11963
12279
12656
12988
13044
12977
12799
12754
12406
12309
12270
12315
12225
12188
12761
15708
20592
25170
18604
7025
7959
10152
11744
12524
12991
13273
13607
13624
13795
13902
14022
14218
14479
14653
14923
15343
15763
16108
16461
16953
17274
17626
17508
17444
17150
16813
15972
15026
14116
13178
12233
11837
11357
11188
11055
11178
11334
11481
11538
11666
11695
11752
11803
11802
11879
11879
11896
11797
11946
12035
12053
11915
11888
11971
12367
12708
13114
13208
13088
12887
12520
12439
12355
12228
12155
12264
11960
12741
15849
20861
25289
18139
7247
8541
10299
11585
12373
12929
13100
13213
13313
13570
13895
13929
14090
14284
14530
14752
15042
15296
15845
16208
16763
17087
17296
17310
17194
16890
16496
15766
14953
13743
12792
11943
11360
11100
10868
11148
11167
11032
11267
11937
11527
11321
11487
11697
11657
11759
11879
11910
11857
11852
11719
11721
11738
12066
12467
12630
12928
12868
12811
12557
12515
12348
12128
12032
12180
12053
11854
13315
17325
22975
23969
11678
7284
9429
10675
11853
12511
12934
13035
13319
13410
13685
13777
14002
14147
14217
14369
14706
15031
15379
15835
16371
16876
17204
17325
17264
17133
16702
16174
15329
14331
13254
12495
11919
11611
11381
11379
11352
11396
11402
11542
11502
11488
11619
11740
11791
11944
11946
11768
12030
11969
11963
11850
12156
12519
12791
12965
13044
12866
12703
12447
12447
12387
12270
12198
12114
11878
13100
17203
23106
24256
12109
7407
9423
11059
11991
12837
13145
13264
13451
13650
13812
13796
13944
14144
14475
14737
14973
15219
15780
16180
16565
16789
17233
17396
17310
17172
16904
16287
15553
14359
13314
12409
11894
11537
11332
11204
11243
11411
11429
11547
11599
11697
11726
11771
11737
11828
11719
11913
11966
11925
11847
11997
12353
12707
12976
12905
12815
12636
12331
12180
12117
11974
12003
11908
11576
12401
16027
21604
24352
13736
6784
8920
10732
11924
12515
12825
13000
13185
13344
13645
13679
13902
13897
14134
14481
14779
15016
15431
15788
16230
16641
16884
16961
16912
16826
16447
16067
15393
14553
13589
12664
11867
11320
11128
11101
11130
11270
11298
11381
11427
11532
11602
11666
11637
11646
11625
11767
11856
11739
11650
11824
12205
12657
12990
12707
12497
12421
12411
12188
12038
11932
11942
11787
11487
12634
16424
22143
24274
13110
6779
9039
10571
11827
12562
12902
12982
13230
13424
13619
13732
13900
14006
14238
14507
14831
15250
15645
16072
16355
16735
16926
17112
16978
16736
16440
16135
15489
14596
13588
12773
12058
11456
11206
11247
11315
11365
11484
11623
11605
11684
11795
11734
11864
11921
11876
11824
11908
11940
11863
12111
12615
12803
13160
12990
12755
12613
12476
12271
12073
12204
12302
12006
11769
13836
18095
23697
22655
9922
8006
10114
11258
12390
12966
13168
13349
13438
13700
13883
14019
14168
14369
14430
14725
15144
15606
15865
16283
16687
17046
17329
17316
16907
16644
16289
15786
15075
14161
13394
12842
12153
11620
11299
10943
11210
11223
11438
11690
11883
11986
12022
11706
11930
12051
12094
11814
11813
11874
11827
12058
12641
13072
13346
13162
12853
12823
12957
13061
12030
11678
12074
12182
11533
12230
15998
21575
25809
16664
7781
9601
10842
11967
12656
12905
13460
13987
13619
13226
13781
14156
14571
14584
15170
15256
14968
15312
15691
16077
16690
16858
16813
16822
16602
16037
15093
14917
14003
13023
12340
11660
11208
10942
10701
10621
10858
10982
11085
10971
10833
10953
10943
11079
11553
11224
11305
11066
11187
10990
10568
11042
11677
12086
12198
11627
11644
11697
11789
11568
11415
11371
11856
11415
10930
12667
17332
22335
21382
9245
8136
9212
10222
11565
12285
12641
12723
13214
13510
13257
13474
13915
14064
14055
14270
14744
14958
15441
15826
16205
16468
16476
16767
16299
16124
15947
15463
14823
13848
12897
12262
11581
11520
11480
11639
11523
11703
11894
12035
12046
11865
11907
12210
12323
12277
12411
12343
12235
12001
12366
12478
13045
13207
13347
13076
13229
12819
12796
12620
12395
12687
12465
12101
12881
15674
19551
23040
16088
8208
9466
10512
11525
12545
13142
13646
13617
13858
13807
13899
14297
14387
14547
15018
15000
15233
15491
15813
16358
16378
16617
16793
16794
16149
15803
15709
15074
14307
13415
12806
12726
12049
11455
12089
11912
11665
11935
11965
12202
12165
12404
12549
12490
12554
12706
12850
12643
12250
12303
12595
13064
13218
13381
13340
13088
13126
12955
12552
12730
12688
12643
12269
12786
15422
18795
21193
15134
8046
9311
10878
12057
13208
13278
13506
13785
13663
13859
14149
14091
14144
14624
14736
14820
15091
15335
15622
16009
16256
16298
16398
16326
15914
15897
15525
14703
14040
13469
12892
12263
11955
12058
12103
11901
11745
12073
12365
12487
12291
12363
12422
12460
12580
12525
12678
12583
12441
12532
12577
12985
12965
12960
13238
12904
12900
12895
12649
12439
12571
12346
12400
13569
15985
19121
18771
10618
8384
10019
10721
12153
12906
13105
13164
13257
13606
13738
13739
14150
14146
14036
14448
14861
14979
14989
15575
15952
15778
15853
16102
16006
15857
15542
15132
14340
13458
12982
12604
12275
11951
11649
11727
12184
12387
11998
12195
12227
12128
12319
12546
12405
12511
12603
12448
12426
12696
12553
12477
12343
12375
12822
13059
13187
13284
13227
13001
12919
12832
12622
12565
12500
12522
12613
14731
17856
20973
17049
8519
9084
10397
11537
12371
12893
13432
13584
13729
13714
13829
13978
13904
14264
14447
14699
14902
15220
15465
15617
15842
16125
16191
15927
15837
15816
15583
15069
14271
13580
12897
12319
11965
11865
11942
11881
11990
12094
12168
12286
12171
12241
12417
12443
12459
12515
12555
12488
12422
12473
12593
12598
12513
12583
12500
12538
12538
12643
12876
13228
13450
13433
13333
13244
13148
12966
13023
12790
12638
12749
12865
14692
17839
21539
19411
9826
9076
10528
11587
12457
13046
13291
13447
13671
13867
14014
14165
14082
14249
14430
14625
14805
15222
15398
15703
15921
16168
16250
16261
16241
16042
15764
15226
14724
14159
13244
12720
12367
12113
11931
11782
11973
12132
12117
12220
12222
12260
12218
12291
12394
12418
12361
12372
12401
12350
12428
12487
12400
12311
12327
12316
12368
12415
12326
12587
13044
13322
13280
13208
13102
12860
12865
12602
12604
12651
12558
12625
14756
18060
22016
18827
9106
8982
10599
11715
12467
13028
13248
13450
13607
13738
13789
13993
14104
14325
14279
14569
14796
15073
15283
15719
15904
16222
16259
16142
16172
15891
15537
15150
14597
13780
13024
12413
12056
11785
11786
11706
11585
11756
11923
12093
12060
11930
12038
12152
12143
12288
12336
12207
12120
12156
12247
12282
12322
12259
12330
12505
12391
12220
12312
12562
12811
13093
13381
13227
13225
13106
13081
12818
12651
12670
12605
12436
13024
15614
19506
22840
15987
8476
9721
10895
12053
12892
13169
13201
13492
13657
13835
13944
14150
14270
14300
14534
14603
15145
15289
15545
15798
16144
16357
16421
16428
16283
16038
15850
15217
14483
13697
12972
12370
11917
11739
11677
11783
11835
11841
11887
12004
11976
11985
12055
12277
12154
12194
12152
12229
12331
12386
12234
12204
12225
12335
12335
12399
12337
12296
12436
12663
12942
13326
13391
13286
13094
12932
12886
12687
12799
12813
12700
12367
13476
16527
20731
22532
13019
8472
10073
11220
12219
12929
13161
13497
13561
13713
13870
14004
14124
14308
14576
14683
14751
15088
15398
15759
16099
16405
16639
16595
16508
16382
16103
15707
14988
14292
13519
12765
12287
11878
11667
11765
11645
11722
11782
11935
11969
11965
11986
12068
12082
12163
12158
12235
12240
12311
12168
12314
12107
12168
12235
12232
12282
12367
12404
12724
12892
13118
13325
13218
13301
13055
12878
12908
12915
12870
12885
12681
13166
15801
19752
23034
16377
8407
9645
11027
12081
12910
13338
13498
13664
13806
13909
14013
14175
14305
14522
14741
14821
15300
15583
15764
16063
16663
16788
16916
16886
16596
16495
16141
15497
14643
13903
13200
12617
12186
12062
11820
11780
11773
11834
12084
12139
12240
12344
12250
12278
12294
12278
12434
12398
12412
12471
12603
12609
12592
12590
12636
12696
12663
12773
12665
12897
13180
13439
13636
13637
13646
13445
13217
13069
12988
13020
12997
12796
12838
14914
18567
22780
19605
9305
9134
10624
11723
12551
13105
13450
13521
13630
13758
13851
14055
14064
14214
14467
14714
14924
15089
15382
15828
16124
16337
16503
16681
16509
16326
15990
15427
14651
13981
13094
12345
11882
11513
11464
11366
11373
11545
11557
11617
11732
11883
11762
11716
11787
11774
11914
12044
11767
11755
11858
11894
11917
11918
11907
11915
11928
11967
12113
12298
12605
12868
12945
12923
12826
12523
12489
12340
12345
12284
12145
12042
14137
18110
22715
20075
9452
8938
10191
11228
12041
12664
13158
13282
13410
13415
13527
13686
13891
14224
14360
14531
14743
14959
15534
15601
15986
16412
16414
16612
16517
16263
15898
15394
14583
13783
13031
12299
11819
11590
11539
11376
11477
11670
11660
11691
11873
11921
11907
11942
12059
12000
11983
12181
11966
12076
12165
11942
11971
12106
12158
12139
12103
12191
12214
12348
12788
13091
13356
13456
13183
13065
12885
12802
12542
12572
12665
12533
12217
13806
17575
22042
21876
11187
8336
10012
10821
11954
12884
13271
13473
13696
13830
13949
14007
14130
14309
14489
14672
14934
15259
15565
15914
16326
16612
16940
16914
16966
16617
16375
15970
15179
14307
13515
12721
12256
11825
11551
11523
11490
11652
11769
11737
11818
12061
12371
12229
11668
12079
12423
12360
12207
12398
12333
12037
12057
12318
12202
12130
11954
12477
12610
12537
12962
13250
13282
13149
12931
12647
12807
12534
12468
12586
12490
12359
14135
17814
22006
21479
10083
7657
9976
10948
12062
13097
13300
13540
13688
13866
13953
14190
14166
14318
14350
14358
14662
15414
15675
16103
16528
16746
17011
16924
16714
16610
16649
16320
15496
14564
13501
12513
11742
11672
11563
11388
11660
12043
12004
11932
11600
11916
12261
12363
12238
12081
12375
12415
12274
12288
11954
12136
12045
12158
12071
12608
12737
12488
12318
12345
12458
12751
12952
13330
13450
13283
13236
13038
13049
12497
12395
12427
12761
12531
14515
18077
22066
20654
9865
7972
10001
11150
12293
12855
12956
13607
13805
13751
13948
14079
14121
14378
14271
14638
14933
14939
15259
16144
16495
16730
16834
16865
16714
16730
16507
15932
15180
14116
13334
12576
12128
12114
11869
11678
11582
11540
11849
11922
11881
11802
11857
12210
12276
12508
12358
12307
12239
12050
12106
12306
11819
12214
12510
12297
12520
12391
12604
12655
12140
12385
12915
13148
13235
13407
13200
12824
12998
13187
12856
12502
12709
12564
12465
13681
17382
21365
21160
11147
8274
10136
10888
12114
13052
13107
13030
13299
13815
13992
14335
14526
14408
14535
14593
14667
14908
15497
16069
16338
16540
16833
16573
16707
16704
16363
16021
15346
14325
13723
13032
12054
11768
11367
11530
11707
11549
11486
12037
11990
11876
11961
11998
12060
12173
12325
12225
12195
12110
11911
11935
11994
12251
12444
12317
12254
12388
12435
12282
12420
12434
12334
11972
12510
12840
13201
13210
13232
13211
13195
12697
12770
13099
12903
12662
12774
12816
12546
14599
17658
21747
20820
10403
8309
10051
11453
12416
13296
13571
13643
13484
13953
14033
13775
14111
14424
14501
14650
14905
15386
15503
15995
16417
16657
15629
14779
13848
13063
12404
11847
11748
11797
11670
11447
11656
12018
12143
12253
12174
12236
12099
12196
12227
12255
12307
12478
12532
12426
12196
12313
12335
12399
12431
12498
12457
12394
12472
12491
12539
12571
12690
12589
12676
12615
12607
12446
12871
13050
13364
13878
14004
13468
13444
13272
13180
12978
12776
12687
12500
12638
13807
16636
20769
22866
14431
8537
10069
11161
11904
12780
13649
14120
13851
13906
14155
14020
14243
14670
14756
14607
14791
15002
15655
16111
16371
16677
16741
16798
17255
16919
16742
16270
15781
14771
13745
13032
12414
12006
11643
11662
11848
11756
11704
11916
11947
12158
12182
12259
12237
12227
12271
12351
12292
12415
12515
12407
12350
12413
12163
12111
12214
12373
12630
12459
12576
12257
12349
12299
12504
12683
12723
12585
12698
12711
12811
13178
13520
13497
13477
13403
13157
12991
12848
12797
12854
12895
12653
12601
14406
17813
22875
17736
8674
9292
10463
11759
12687
13142
13357
13658
13790
13921
14099
14332
14352
14066
14509
14979
15046
15292
15471
16039
16304
16828
16932
16888
17129
16787
16368
15959
15206
14308
13630
12880
12212
11967
11639
11559
11825
12042
11948
12107
11866
11942
12223
12180
12057
12264
12351
12215
12161
12285
12202
12304
12358
12461
12233
12362
12484
12484
12480
12434
12554
12620
12499
12656
12647
12759
12558
12736
12847
12853
12895
12908
13342
13514
13564
13499
13508
13523
13347
13259
13121
13294
12970
12745
12694
14385
17948
22481
21176
10932
9011
10311
11560
12500
13169
13610
13774
13744
13874
14029
14376
14462
14398
14679
14825
14976
15224
15472
15941
16333
16875
16954
17130
17094
16875
16762
16238
15517
14758
14038
13030
12504
12058
11950
11678
11750
11727
11829
12133
12123
12105
12198
12341
12280
12326
12358
12254
12394
12468
12139
12406
12303
12322
12348
12446
12441
12452
12576
12549
12612
12762
12736
12706
12769
12795
12874
12834
12848
12913
13227
13635
13651
13815
13755
13626
13444
13358
13267
12979
12982
12977
12713
13274
16146
20590
23570
16372
8760
10001
11124
12036
12885
13529
13715
13938
14048
14164
14257
14315
14481
14683
14768
15050
15215
15538
16172
16383
16757
17066
17266
17413
17364
17183
16816
16289
15295
14471
13385
12658
12279
11902
11705
11671
11679
11819
11944
11830
11971
12084
12048
12094
12080
12184
12262
12394
12267
12315
12107
12187
12181
12417
12247
12195
12251
12527
12329
12423
12412
12477
12618
12409
12900
13458
13516
13292
13289
13346
13159
12876
12800
12768
12923
12691
12398
12850
15192
19570
23565
17686
8360
9511
10660
11665
12385
13078
13530
13661
13715
13858
14039
14136
14276
14462
14677
14943
15150
15362
15723
16206
16701
17011
17172
17404
17515
17180
16842
16184
15224
14360
13469
12474
11828
11452
11321
11359
11360
11430
11457
11571
11702
11625
11727
11872
11846
11883
11928
12036
11942
11987
11977
12057
12111
12023
12065
12198
12253
12316
12047
12039
12097
12467
12957
13167
13036
13050
13166
13040
12875
12621
12514
12521
12623
12337
12432
14824
19032
23417
18804
8513
8879
10468
11353
12335
12966
13396
13495
13654
13863
14018
14105
14176
14396
14619
14905
15183
15529
15880
16397
16732
17226
17594
17642
17508
17366
17018
16195
15263
14213
13442
12723
12158
11853
11623
11586
11571
11597
11757
11904
11897
12060
12020
12270
12207
12284
12281
12293
12364
12341
12416
12595
12550
12450
12528
12492
12549
12534
12795
13082
13401
13492
13585
13506
13298
13126
13075
12997
12952
13076
12851
12416
13173
16460
21098
23902
15655
8230
9958
10990
11991
12965
13497
13629
13955
14288
14205
14359
14605
14757
14897
15068
15385
15703
16063
16496
16904
17416
17739
17957
18082
17834
17480
17013
16123
15170
14160
13334
12602
12235
11983
12022
11912
12009
12088
12172
12260
12329
12415
12518
12555
12600
12697
12771
12851
12806
12730
12869
12860
12861
12955
12968
12980
12856
12992
13338
13828
13969
14130
14069
14141
14120
13855
13720
13686
13765
13839
13654
13376
14535
18031
22760
24700
15275
9558
11344
12217
13463
14341
14986
15206
15398
15655
15921
16142
16431
16917
17257
17566
17882
18421
19042
19738
20625
22125
23297
24714
25470
25731
25709
25296
24411
23217
22139
21181
20299
19812
19314
18893
18759
18625
18353
18226
18040
17917
17708
17404
17214
17025
16790
16523
16245
15912
15771
15703
15370
15151
14962
14743
14598
14425
14255
14016
13833
14093
14197
14329
14227
13977
13612
13389
13206
12891
12863
12760
12710
12182
12093
14823
19195
23635
18273
8020
8576
9586
10664
11407
12094
12421
12578
12668
12574
12749
12857
13022
13097
13251
13497
13744
14108
14425
14869
15273
15648
15910
15853
15660
15489
15016
14173
13183
12252
11427
10645
10215
9996
10000
9923
9892
10014
10149
10213
10331
10434
10587
10760
10755
10883
10960
11007
11102
11109
11120
11241
11191
11246
11330
11358
11494
11440
11390
11377
11362
11207
11506
11835
12132
12248
12232
12182
12004
11864
11674
11561
11465
11475
11369
10854
11444
14712
19660
23088
14729
7113
8436
9271
10266
11078
11731
12025
12142
12318
12473
12598
12805
12994
13077
13349
13561
13914
14218
14584
15158
15632
15961
16108
16284
15983
15727
15282
14509
13432
12527
11666
10957
10626
10466
10440
10336
10342
10431
10681
10709
10704
10798
10916
10927
10997
11037
11120
11130
11149
11209
11302
11297
11284
11298
11357
11453
11543
11410
11582
11721
11749
11747
11800
11839
11994
11976
11917
12042
12438
12802
12901
12917
12971
12879
12691
12601
12404
12211
12297
12198
11936
11790
15228
19995
24174
17299
8219
9200
10042
11144
12125
12698
13026
13233
13421
13442
13445
13612
13817
14032
14250
14491
14860
15021
15459
15897
16303
16783
17056
17177
17061
16935
16557
15915
15138
14185
13261
12351
11860
11618
11243
11218
11302
11224
11326
11489
11559
11600
11803
11700
11746
11785
11806
11905
11956
11956
12023
11981
11879
11936
11974
11995
12037
12095
12114
12114
12133
12215
12277
12367
12323
12262
12456
12576
12426
12573
12892
13279
13421
13391
13307
13250
13097
12977
12832
12829
12883
12661
12248
12725
15703
20438
24709
17872
9013
9709
10483
11545
12475
13129
13428
13426
13785
13860
13927
14118
14203
14327
14460
14750
14980
15324
15670
16045
16489
16956
17235
17267
17174
17054
16689
16053
15273
14231
13283
12430
11993
11669
11542
11395
11477
11381
11481
11627
11630
11730
11798
11913
11935
11966
11974
11988
11881
11885
11958
11955
11986
12008
12049
12052
12011
12028
12073
12237
12345
12321
12146
12306
12274
12276
12369
12498
12417
12410
12591
12947
13362
13493
13407
13372
13376
13129
13094
12912
12666
12746
12585
11901
12465
16005
21307
25391
16988
9090
9945
10510
11611
12562
12987
13194
13421
13503
13592
13751
13971
14163
14258
14522
14724
14839
15202
15764
16154
16500
16947
17139
17184
17173
17036
16696
16123
15148
14112
13171
12515
11951
11569
11366
11316
11345
11357
11526
11834
11822
11721
11955
11933
12020
12015
11931
11833
11975
12017
12123
12187
12078
12100
12298
12214
12261
12196
12328
12372
12483
12584
12664
12643
12723
12707
12632
12843
13238
13580
13699
13757
13612
13640
13654
13410
13149
13121
13353
13204
12765
12251
14019
18346
23580
23358
11711
8667
9932
10812
12176
12991
13661
13806
14036
13920
13993
13954
14226
14535
14544
15034
15230
15133
15676
16353
16710
17023
17315
17587
17599
17432
16972
16449
15538
14601
13557
12789
11988
11679
11705
11578
11305
11464
11268
11446
11508
11773
11641
11663
11762
11677
11853
11842
11991
12052
11965
11943
12156
12032
11930
11991
12114
12165
12124
12238
12108
12089
12304
12503
12838
13177
13309
13179
13096
12990
12804
12655
12470
12518
12696
12527
12067
13664
17618
22241
22675
12061
7839
9825
10793
11747
12662
13119
13562
13647
13890
13874
13984
14214
14227
14460
14722
14945
15139
15608
16175
16598
17053
17322
17468
17528
17364
17037
16381
15507
14471
13514
12606
12002
11690
11661
11439
11172
11091
11239
11452
11714
11482
11824
11908
11850
12019
11892
12006
12018
11991
12046
12294
12328
12294
12165
12176
12204
12152
12257
12221
12390
12737
13091
13328
13073
13106
13051
12879
12779
12628
12669
12785
12674
12184
12066
14415
18845
23691
20210
9148
8783
10118
11108
12150
12875
13199
13404
13586
13701
13819
13872
14176
14268
14492
14832
15119
15393
15816
16515
16668
17011
17426
17471
17216
16927
16559
16009
14901
13859
12848
12167
11839
11475
11202
11165
11359
11412
11557
11553
11663
11767
11824
11923
12088
12032
12145
12115
12141
12025
12045
11980
12216
12094
12092
12227
12270
12235
12331
12426
12814
13071
13268
13260
13090
12977
12933
12738
12537
12540
12616
12489
11886
12297
15872
20992
25495
17903
8701
9619
10305
11571
12431
13017
13358
13144
13433
13676
13733
14027
14296
14305
14520
14716
15080
15518
16034
16522
16830
17179
17512
17634
17362
17054
16640
15883
14839
13797
12890
12019
11739
11419
11191
11084
11163
11255
11378
11367
11702
11650
11830
11855
12009
11910
11961
12009
11886
12169
12264
12301
12105
11933
11889
12105
12614
12848
13260
13372
13113
13092
12754
12559
12573
12457
12431
12510
12110
11959
13878
18406
23703
22463
10542
8433
9920
11019
11933
12657
12961
13135
13389
13532
13648
13799
14015
14191
14404
14680
14916
15175
15799
16149
16468
16921
17223
17506
17414
17179
16736
16080
15178
14240
13132
12349
11866
11527
11403
11318
11368
11364
11493
11552
11596
11711
11780
11905
12091
12055
12028
12214
12082
12099
12009
12116
12136
12111
11949
11959
12317
12648
12807
12917
12995
13011
13008
12735
12563
12393
12458
12526
12342
11809
12070
15292
20244
24843
18751
8576
9033
10218
11444
12204
12790
13204
13307
13483
13607
13745
13896
14074
14245
14414
14756
15096
15453
15864
16284
16763
17106
17447
17530
17247
16874
16481
15748
14879
13880
12874
12252
11567
11432
11249
11163
11268
11391
11519
11600
11626
11702
11819
11692
11805
11997
11981
12021
12065
12151
12234
12018
12097
11915
12237
12618
12915
12974
13083
12888
12891
12719
12678
12502
12442
12441
12342
11917
12219
15220
20007
24419
18500
8461
8971
10007
11167
12147
12737
13085
13374
13661
13630
13740
13994
14166
14278
14561
14867
15269
15583
15967
16331
16732
17149
17295
17327
17140
17053
16369
15418
14526
13652
12570
11831
11505
11348
11373
11284
11229
11384
11441
11493
11733
11818
11830
11936
11994
12045
12088
12145
12128
12269
12227
12171
12062
12334
12693
12925
13075
13143
13071
13067
12759
12632
12517
12507
12613
12323
11731
12553
16114
21010
24517
16112
8432
9574
10389
11517
12252
12901
13231
13406
13663
13796
13941
14071
14291
14440
14686
15049
15235
15588
16141
16628
17052
17216
17338
17478
17284
16823
16236
15466
14484
13526
12572
12066
11720
11492
11401
11510
11716
11746
11779
11934
12112
12115
12315
12334
12411
12418
12415
12208
12426
12433
12463
12296
12621
12753
13085
13350
13324
13356
13335
13149
13024
12892
12903
12928
12933
12550
12230
14587
19169
24808
22206
10729
9610
10536
11704
12659
13360
13900
14168
14046
14179
14483
14687
14807
14982
15294
15556
15878
16214
16597
17024
17490
17892
18218
18222
18057
17778
17283
16579
15629
14561
13693
13080
12624
12384
12289
12292
12351
12516
12568
12672
12793
12851
12979
12951
12948
13004
13088
13103
13097
13075
13234
13166
13254
13255
13363
13794
14051
14240
14214
14114
14023
13883
13707
13613
13694
13761
13435
12806
13846
18000
23511
25795
15862
10327
11347
12250
13426
14223
14664
14932
15126
15309
15578
15778
16121
16398
16538
16749
17005
17275
17553
17918
18356
18614
18844
18852
18736
18352
17887
17298
16339
15231
14139
13370
12742
12341
12171
12164
12139
12093
12118
12253
12268
12231
12269
12306
12319
12228
12149
12105
12153
12198
12177
12164
12205
12142
12164
12139
12433
12860
13224
13373
13541
13594
13549
13292
12989
12873
12961
12891
12666
11903
12570
16431
21759
25642
16386
9317
10119
10948
12151
12849
13198
13429
13596
13737
13874
14050
14153
14400
14642
14776
14993
15282
15645
16065
16499
16928
17162
17179
17305
17099
16659
16051
15137
14138
13117
12229
11769
11444
11437
11272
11337
11370
11448
11413
11528
11570
11731
11852
11846
11769
11700
11845
11897
11886
11862
11865
11875
11979
11865
11864
11768
11917
12518
12750
12829
12813
12755
12675
12579
12384
12196
12220
12287
12083
11505
12524
16312
21666
25073
15300
8497
9630
10579
11902
12748
13240
13529
13893
14206
14862
15066
15369
15860
16312
16657
17221
17969
18616
19101
19588
19957
20056
19993
19762
19455
18609
17720
16843
15812
14866
14205
13774
13571
13555
13488
13503
13524
13558
13593
13647
13637
13611
13700
13586
13563
13479
13386
13388
13386
13294
13422
13326
13149
12933
13139
13373
13643
13970
13798
13663
13597
13297
13061
12911
12844
12878
12697
12152
12091
14956
19590
24672
19743
9001
9448
10163
11079
11809
12477
12768
12993
13037
13209
13369
13401
13457
13597
13792
14048
14340
14640
15019
15538
15872
16226
16265
16227
16070
15772
15160
14361
13439
12423
11634
11029
10591
10388
10353
10254
10417
10470
10577
10700
10749
10832
10876
10835
10943
10946
11053
10983
11016
11025
11043
11046
11110
11093
10993
11012
11191
11539
11879
12136
12084
12127
11976
11718
11657
11607
11549
11497
11451
11061
10818
13003
17368
22975
20903
9222
8223
9163
10347
11140
11930
12493
12460
12712
12743
13025
13066
13199
13307
13530
13860
14253
14694
15252
15544
15810
16092
16393
16290
16368
16120
15778
14798
13979
13050
12047
11433
11080
10782
10757
10651
10990
11071
10995
11016
11118
11294
11385
11541
11634
11653
11732
11780
11455
11618
11645
11764
11742
11783
11833
11873
12022
11820
11994
12470
12821
13056
12862
12842
12949
12753
12604
12253
12271
12447
12463
11828
12548
15905
20584
24076
14965
7502
8994
10174
11377
12476
13117
13491
13404
13555
13696
13770
13797
14150
14312
14702
15002
15203
15338
15936
16342
16740
17094
17191
17380
16969
16533
16177
15491
14459
13372
12643
12068
11706
11422
11367
11131
11392
11577
11662
11734
11731
11774
11890
12047
11973
12328
12058
12077
12050
12257
12236
12180
12007
11955
12007
12138
12245
12718
12618
13205
13054
12866
12953
12890
12828
12827
12550
12346
12328
12177
11909
13219
16501
21111
23440
13618
7572
9717
10650
11614
12660
13225
13427
13679
13770
13879
13870
14145
14288
14649
14638
14792
15230
15742
16005
16544
16786
17236
16987
17020
16858
16551
16101
15036
14028
13232
12321
11739
11470
11343
11311
11239
11241
11446
11602
11788
11905
12045
11769
11726
11821
11960
12044
12127
11902
11948
12037
12115
12031
11941
12199
12250
12134
12652
12983
13073
13109
13245
13307
12754
12771
12646
12384
12464
12545
11975
12310
14562
18797
23570
19697
7410
9186
10051
11291
12272
13089
13323
13704
13561
13709
14185
14045
14036
14252
14951
14983
14982
15476
15856
16374
16655
17197
17306
16801
16931
16789
16314
15683
14587
13492
12562
12129
11892
11531
11235
11223
11396
11582
11800
11765
11723
11852
11840
11734
11932
12139
12164
12216
12003
12076
11991
12005
12112
12046
12164
12309
12082
12173
12915
13213
12962
12954
13178
13049
12679
12452
12656
12975
12311
12243
11787
12746
16447
22756
21043
9705
8524
9734
10510
11739
12617
13207
13509
13323
13608
14106
14015
14005
14059
14747
14846
14992
15338
15502
16077
16562
16912
17286
17129
17033
16926
16863
15976
14763
13964
13433
12667
12537
11797
11345
11595
11608
11565
11395
11489
11837
11681
11769
11917
11990
12033
11948
12019
12014
12290
12171
12074
12075
12040
11978
12134
12087
12099
12401
12749
13000
13360
13087
13029
13053
12825
12659
12438
12467
12498
12369
11969
13321
7457
9339
10264
11348
12345
12980
13300
13535
13769
13786
13803
14234
14156
14110
14563
14833
15213
15502
15837
16294
16843
17135
17374
17116
17087
16505
16064
15386
14416
13453
12689
12089
11598
11496
11416
11496
11405
11534
11772
11640
11694
11786
11865
12031
12002
12102
12109
12178
12235
12102
12027
12058
12103
12242
12219
12350
12230
12425
13058
12789
12733
12821
12838
12583
12454
12386
12011
12318
12778
12703
12241
13248
18657
23320
21166
9615
8455
9904
10768
12063
12928
13126
13282
13400
13530
14029
14080
14406
14303
14368
14651
14800
15196
15576
15878
16365
16794
17014
17043
17066
17040
16645
16089
15245
14180
13255
12646
11920
11572
11287
11267
11330
11486
11605
11644
11697
11682
11961
12013
12018
12022
12113
12077
12027
12047
12175
12118
12128
12036
11932
12103
12162
12069
12117
12640
12888
13116
13206
13154
13056
12909
12844
12656
12610
12527
12742
12155
12577
15151
19560
24166
18086
8403
9366
10224
11217
12089
12800
13129
13311
13583
13785
13920
14099
14202
14333
14585
14906
15350
15719
15806
16052
16503
16793
17091
17034
17024
16807
16508
15612
14739
13656
12814
12235
11810
11369
11386
11378
11274
11539
11548
11687
11745
11741
11976
11896
12007
12098
12290
12166
12267
12096
11855
12025
12144
12228
12218
12419
12362
12276
12156
12363
12938
13296
13305
13178
13089
12875
12891
12675
12536
12627
12563
11904
12118
15002
19713
24358
18250
8353
9244
9833
11067
12156
12865
13203
13420
13589
13633
13916
13987
14179
14463
14470
14637
15000
15424
15670
16072
16606
16934
17032
17073
17209
16793
16192
15536
14887
14110
12980
12044
11714
11652
11314
11135
11149
11538
11467
11396
11541
11739
11732
11555
11286
11495
12118
12457
12267
12285
12348
12323
12206
12016
12065
12251
12362
12389
12966
13177
13156
13204
13156
13102
12983
12589
12245
12359
12704
12420
11913
13264
16974
21644
24014
13915
8025
9830
10467
11472
12525
13122
13323
13443
13777
13892
13889
14075
14313
14382
14740
14900
15150
15750
16072
16355
16748
17258
17256
17050
17328
16740
16093
15359
14548
13460
12576
12028
11582
11537
11516
11380
11060
11301
11859
11690
11633
11875
12008
12104
11923
11891
12072
12107
11932
12172
12300
12283
12109
11806
11822
11878
12330
12841
13026
13076
13037
12993
12659
12591
12473
12399
12446
12259
12087
12077
14221
18196
22930
20375
9107
8496
9852
10970
11949
12670
13155
13235
13378
13689
13625
13757
14063
14211
14361
14588
14746
15270
15598
15882
16330
16666
17079
17051
17222
16926
16562
15827
14932
13917
13023
12172
11782
11476
11440
11367
11536
11504
11606
11553
11724
11971
11957
12016
12136
12137
12017
12041
12131
12209
12236
12024
11880
12156
12132
12183
12182
12446
12847
13143
13140
13136
13149
12896
12662
12600
12481
12559
12480
12388
11817
12819
16446
21497
23687
13562
8077
9683
10667
11765
12681
13093
13335
13490
13747
13847
13854
14005
14172
14416
14510
14812
15045
15563
15941
16445
16760
17151
17079
17265
17125
16669
16423
15599
14609
13629
12657
11885
11699
11448
11282
11261
11382
11447
11634
11775
11804
11895
12009
11846
11922
11966
12122
12058
12058
11974
12058
12044
11936
12022
12209
12228
12046
12233
12799
13062
13127
13037
13044
12982
12704
12587
12527
12578
12588
12539
12022
13463
17076
22109
22973
11916
8227
9837
10558
11709
12684
13121
13363
13431
13686
13885
14137
14203
14058
14351
14599
14825
15124
15493
15840
16391
16890
17119
17202
17174
17105
16834
16227
15382
14351
13306
12426
11874
11613
11425
11353
11382
11422
11512
11632
11655
11754
11875
11897
11973
12173
12201
11968
12014
12125
11864
12040
12200
12233
12385
12290
12257
12446
12326
12697
12931
13239
13084
13024
12846
12944
12881
12593
12618
12750
12587
12242
12276
14926
18938
23685
19746
8358
8333
9601
10975
12112
12984
13106
13369
13435
13724
13952
14138
14023
14267
14481
14482
14895
15321
15577
16128
16497
16829
17002
17316
17224
16979
16535
16009
15163
14131
13016
12305
11720
11502
11247
11143
11297
11455
11637
11666
11813
11916
11891
11855
11868
11998
11928
11987
12439
12482
12115
12229
12244
12446
12283
12187
12188
12065
12421
12808
13079
13147
13165
13101
13005
12814
12499
12293
12322
12454
12223
11912
13268
17299
22614
23125
11270
7828
9577
10579
11640
12512
12961
13345
13332
13450
13674
13928
13889
14048
14238
14490
14816
15219
15496
15921
16418
16883
17245
17237
17322
17008
16729
16263
15397
14442
13509
12552
11897
11494
11319
11145
11110
11267
11377
11648
11665
11546
11559
11836
11872
11767
11935
11929
12034
11939
12025
11969
11987
12078
12122
12079
12154
12525
12841
13126
13485
13554
13478
13138
12960
12790
12528
12303
12153
11520
10779
11724
15196
19761
20156
7784
3517
5557
6630
7753
8465
9030
9371
9541
9713
9894
10013
10104
10456
10647
11008
11539
11956
12471
12975
13670
14203
14533
14842
14903
14969
15221
15095
14474
13786
12878
12112
11619
11641
11393
11365
11453
11688
11809
12064
12108
12252
12521
12608
12710
12878
12962
13242
13366
13322
13460
13384
13443
13347
13553
13682
13900
14175
14538
14760
14640
14595
14456
14245
14235
13890
13931
14076
14018
13638
14655
18176
22982
25212
14713
8600
10762
11693
12669
13711
14105
14273
14248
14350
14499
14608
14564
14766
14932
15060
15429
15723
16232
16598
17085
17418
17802
17974
17858
17779
17650
16792
16016
14970
13917
13062
12348
11993
11802
11607
11568
11629
11756
11667
11838
11844
11950
12228
12064
12048
12274
12249
12171
12132
12190
12342
12247
12303
12335
12516
12774
12925
13009
12823
12968
12728
12604
12325
12271
12549
12561
12223
12019
14145
18289
23273
21591
9910
8581
10270
11224
12213
12996
13436
13459
13504
13836
13922
14136
14345
14528
14599
14811
15052
15439
15906
16270
16642
17106
17306
17561
17406
17253
16876
15935
15192
14391
13305
12516
12054
11759
11737
11511
11474
11628
11706
11805
11922
12002
12059
12150
12181
12126
12175
12269
12279
12294
12401
12263
12314
12326
12603
12938
13277
13194
12998
13107
12811
12706
12680
12512
12450
12536
12277
11907
13354
17347
22592
23443
12060
8445
10126
10862
11748
12649
13177
13314
13397
13503
13698
13902
14037
14104
14431
14640
14908
15091
15456
15812
16283
16742
17049
17342
17187
16997
16670
15852
15143
14125
13043
12164
11603
11357
11202
11120
10988
11118
11187
11286
11277
11354
11350
11392
11484
11438
11341
11423
11477
11420
11406
11390
11249
11301
11520
11990
12490
12672
12634
12661
12512
12496
12435
12364
12375
12491
12612
12234
12543
15249
19966
24879
19255
8907
9868
10868
12038
13162
13728
13908
14150
14300
14555
14746
14871
15073
15258
15630
15909
16235
16545
17068
17395
17826
18272
18503
18670
18639
18413
17970
17268
16229
15227
14370
13466
13115
12950
12855
12831
12778
12904
13072
13115
13296
13349
13554
13519
13536
13677
13732
13658
13699
13566
13636
13730
13654
13614
13677
14119
14454
14585
14694
14645
14607
14447
14442
14233
14021
14052
14226
13950
13440
15207
19488
24825
24328
12517
10099
11678
12746
13639
14312
14589
14774
14917
15129
15209
15328
15594
15770
15858
16034
16251
16663
16997
17348
17878
18328
18657
18671
18611
18464
18062
17450
16532
15382
14420
13502
13045
12680
12592
12354
12404
12472
12537
12619
12804
12781
12846
12697
12843
12895
12868
12941
12871
12915
13017
12922
12796
12829
13036
13429
13662
13785
13799
13737
13475
13365
13205
13060
13075
13144
12930
12526
13413
17057
21804
24625
15451
8520
10088
10914
12010
12783
13345
13642
13825
13998
14216
14186
14351
14744
14881
14752
15058
15483
15722
16205
16625
16984
17341
17553
17480
17255
17053
16475
15563
14673
13536
12531
12019
11688
11491
11374
11375
11391
11461
11556
11600
11566
11780
11844
11869
11946
12037
11931
11985
12010
12050
12011
11854
11978
12440
12673
12800
12881
12790
12666
12433
12382
12176
12101
12196
12014
11602
12087
15182
19694
23363
16187
7363
8965
9971
11032
11912
12455
12685
12944
13094
13174
13397
13492
13626
13711
13963
14230
14581
14866
15262
15731
16170
16510
16705
16836
16688
16355
15776
14936
13933
12886
11947
11192
10900
10705
10517
10443
10619
10794
10752
10972
11011
11054
11147
11256
11216
11346
11473
11440
11301
11457
11413
11301
11353
11659
12060
12425
12481
12345
12307
12109
11931
11819
11708
11732
11836
11565
11287
12689
16495
21415
22767
11713
6803
8740
9888
11171
12031
12470
12651
12680
12501
12270
12033
11925
11880
11854
11844
11891
11990
12076
12318
12808
13393
13930
14273
14375
14323
13877
12866
11163
9601
8251
7329
6699
6130
5788
5554
5468
5411
5512
5515
5488
5354
5389
5327
5360
5307
5269
5258
5304
5317
5362
5553
5667
5729
5861
6657
7366
7725
7863
8010
8167
8282
8245
8227
8331
8479
8629
8569
8911
11898
16608
21525
15891
4777
5915
7566
8981
10292
11254
11697
12141
12569
12939
13330
13957
14771
16071
17290
17817
17995
19132
20258
21403
22274
22538
22472
22258
22065
21651
20942
19931
18767
17478
16352
15317
14685
14365
14115
14015
14117
14188
14314
14286
14327
14310
14241
14215
14294
14864
15619
16444
17106
17534
17603
17676
17710
17635
17275
17459
17871
18227
18399
18346
17970
17597
17081
16577
16135
16088
15949
15789
15898
17515
21230
26010
26151
18166
11091
12719
13765
14977
15830
16077
16215
16474
16536
16502
16554
16510
16599
16754
16912
17130
17393
17784
18076
18525
18833
19057
19202
19297
19007
18715
18117
17156
16107
14942
13914
13182
12683
12408
12180
11996
12076
11570
11540
11694
11707
11672
11715
11597
11442
11256
11047
10982
10983
11004
10913
10871
10840
10717
10644
10747
11159
11603
11863
11858
11620
11579
11397
11194
10963
11073
11207
11053
10676
11472
14866
19792
23373
14276
5640
7953
9069
10209
11205
11770
12072
12348
12507
12616
12762
12938
13190
13394
13726
13974
14296
14678
15090
15463
15923
16265
16448
16611
16529
16264
15662
14933
13959
12893
11809
11158
10625
10429
10302
10209
10198
10470
10636
10718
10832
10917
11034
11047
11202
11211
11304
11448
11556
11448
11479
11566
11701
11623
11566
11683
11995
12509
12809
12740
12581
12469
12404
12153
11813
11775
11806
11669
11484
13014
16665
21359
22740
11484
5959
8652
9931
10836
11535
12015
12177
12322
12477
12927
13241
13568
13771
13814
13914
14240
14778
15272
15801
16258
16825
17170
17390
17414
17269
17105
16762
15887
14758
13878
12947
12198
11730
11534
11405
11404
11366
11709
11689
11734
11782
11971
12127
12196
12190
12169
12188
12259
12140
12042
12177
12196
12258
12197
12298
12522
12933
13134
13281
13168
12936
12932
12863
12467
12435
12414
12504
12316
12161
14530
18798
23848
20790
8480
7994
10155
11247
12178
12761
13116
13424
13636
13734
13949
14059
14124
14202
14415
14709
14985
15307
15837
16413
16781
17204
17353
17513
17477
17126
16848
16433
15394
14287
13167
12431
11848
11480
11101
11117
11230
11351
11386
11447
11456
11517
11720
11682
11752
11816
11877
11983
11991
11828
11830
11754
11806
11671
11595
11702
11930
12178
12344
12336
12178
12094
11967
11720
11626
11647
11619
11525
11094
11479
14301
18803
23278
16344
5388
6711
7920
8821
8961
8666
8011
7394
7100
6878
6781
6698
6756
6546
6345
6480
7078
7847
8712
9350
10231
10832
11416
11588
11235
10982
10676
10188
9500
8727
8021
7697
7874
8100
8250
8545
8621
9162
9774
10179
10034
10157
10378
10529
10005
9521
9326
9423
9479
9911
10603
10958
11303
11499
11721
11960
12448
12901
13282
13304
13419
13369
13228
13138
12998
13105
13783
15589
16393
17671
21328
25952
26199
23403
13405
14748
15851
17187
18409
19000
19209
19452
19546
19719
19757
19833
19878
20180
20365
20611
20790
21045
21542
21918
22348
22657
22861
22849
22710
22259
21760
20858
19727
18436
17387
16511
15854
15461
15328
15162
14953
14902
14851
14828
14765
14766
14680
14764
14725
14647
14486
14485
14354
14298
14224
14014
13906
13921
14102
14225
14367
14481
14418
14142
13906
13688
13525
13396
13359
13213
13027
13157
15656
19632
24134
20470
8478
8247
10700
11822
12978
13936
14636
14525
14281
14271
14122
14224
14329
14604
14642
14801
15034
15332
15550
15892
16242
16546
16607
16600
16522
16322
15853
15147
14144
13054
12029
11161
10620
10237
10156
10007
10134
10238
10340
10408
10531
10578
10709
10761
10795
10857
10849
10892
10856
10926
10888
10943
10882
11016
11285
11632
11844
11984
11869
11730
11519
11458
11299
11246
11281
11303
11135
12388
15973
20743
22751
12299
5968
8391
9684
10778
11718
12177
12463
12663
12929
13100
13285
13460
13633
13835
14133
14389
14696
15151
15502
15962
16395
16788
17011
17056
16836
16545
15972
15067
13910
12916
12087
11491
11064
10827
10736
10721
10786
10893
10981
11042
11220
11286
11450
11514
11508
11495
11532
11543
11601
11631
11762
11726
11657
11652
11863
12262
12556
12759
12725
12680
12580
12441
12230
12112
12025
12047
11940
11662
12677
18074
23291
22422
9675
7389
9452
10631
11738
12552
12934
13129
13310
13544
13695
13773
13956
14149
14427
14666
14986
15241
15741
16194
16638
17020
17348
17488
17453
17331
16959
16367
15400
14370
13256
12418
11676
11361
11067
11096
11060
11160
11235
11353
11458
11518
11630
11732
11845
11856
11904
11928
11982
11902
11942
11984
11979
11891
11966
12255
12649
12856
13000
12957
12877
12716
12505
12286
12138
12141
12174
12068
11798
13960
20281
25364
19109
7457
8520
9860
11157
12211
12801
13116
13310
13547
13677
13807
13920
14094
14354
14583
14814
15073
15468
15833
16314
16772
17244
17479
17594
17478
17293
16863
16104
15076
13980
12956
12127
11592
11273
11141
11073
11118
11194
11322
11407
11529
11576
11714
11712
11800
11786
11825
11846
11857
11871
11915
11817
11759
11827
12068
12438
12694
12963
12908
12861
12666
12550
12331
12189
12184
12263
12156
11925
13051
16852
22022
22211
9040
7558
9482
10711
11864
12602
13003
13203
13426
13569
13771
13931
14127
14251
14485
14697
15028
15349
15754
16185
16673
17132
17441
17593
17549
17346
16983
16394
15448
14387
13219
12325
11646
11299
11037
11000
11013
11100
11090
11192
11394
11497
11590
11595
11647
11669
11713
11696
11766
11687
11793
11717
11809
11752
12048
12349
12621
12883
12895
12774
12639
12471
12263
12158
12168
12228
12105
11950
13118
16840
21600
24138
9083
7289
9478
10572
11780
12712
13029
13259
13438
13619
13739
13920
14126
14302
14542
14766
15122
15446
15831
16268
16768
17119
17466
17518
17527
17269
16962
16278
15338
14249
13206
12396
11793
11403
11202
11130
11094
11226
11289
11443
11522
11707
11779
11873
11867
11937
11908
11897
11857
11963
11995
11952
11953
11990
12261
12606
12880
12919
12893
12743
12653
12475
