12512
12133
12147
12188
12056
11927
13108
16372
20876
23346
14077
6961
9783
11033
11688
12359
12820
12996
13074
13257
13368
13539
13721
13950
14046
14277
14598
15011
15271
15597
16086
16458
16802
16977
16995
16777
16588
16165
15535
14632
13663
13054
12376
11417
11041
10965
10950
11079
11148
11206
11418
11508
11632
11782
11745
11787
11878
11932
11887
11862
11767
11889
11712
11762
11783
12103
12422
12636
12811
12705
12614
12504
12406
12161
12173
12176
12162
12267
12369
14453
18191
22353
20085
9166
8277
10860
11710
12345
12759
12936
13144
13396
13596
13811
13930
14119
14327
14425
14687
14979
15226
15663
16106
16615
17082
17225
17122
17071
16928
16545
15874
15154
14235
13286
12566
12009
11684
11431
11278
11350
11513
11628
11761
11871
12040
12131
12173
12163
12266
12386
12411
12400
12410
12561
12504
12403
12238
12526
12889
13130
13330
13281
13171
13057
12874
12681
12564
12548
12610
12441
12448
14712
18455
22918
20831
9492
8732
11023
11888
12476
12942
13143
13431
13498
13602
13777
13920
14027
14195
14397
14659
14920
15238
15588
15896
16267
16610
16972
17051
17027
16811
16444
15819
14880
13984
13099
12346
11854
11448
11252
11197
11228
11307
11443
11520
11667
11739
11747
11769
11804
11869
11880
11889
11935
12070
12070
11970
11893
11943
12242
12560
12861
12918
12818
12705
12514
12423
12306
12227
12172
12120
11992
12381
15070
19587
24136
18100
7963
9325
11045
11952
12365
12820
13013
13207
13388
13565
13724
13834
13955
14167
14280
14541
14891
15232
15587
15958
16331
16780
17025
17082
16953
16750
16404
15669
14776
13911
12998
12241
11797
11469
11453
11360
11276
11395
11526
11604
11732
11765
11716
11782
11856
11941
11997
11896
11869
11996
11975
11851
11967
12312
12546
12777
12779
12667
12588
12525
12379
12121
11992
12131
12228
12090
12118
15726
20150
23751
16032
7406
9442
11089
12028
12533
12929
13146
13261
13417
13512
13644
13802
13974
14115
14316
14556
14882
15223
15631
16080
16494
16859
16969
16938
16870
16619
16158
15416
14531
13598
12774
12071
11670
11495
11416
11374
11328
11361
11454
11651
11750
11810
11838
11836
11936
11974
11969
12097
12000
11869
11916
11996
12324
12680
12937
13034
12920
12811
12648
12537
12350
12179
12197
12233
11995
11871
14209
18352
23515
21011
7725
9555
10947
11782
12375
12823
13115
13379
13650
13865
14245
14578
14830
15016
15394
15598
15802
15744
15603
16143
16627
16869
17056
17174
17066
16762
16191
15383
14329
13350
12558
11852
11367
11142
10976
10826
10936
11097
11296
11360
11430
11529
11622
11562
11498
11625
11499
11398
11642
11749
11990
11994
12200
12519
12720
13072
13059
12968
12813
12642
12380
12165
12185
12316
12112
11752
13783
18124
23346
22276
10026
8335
10440
11634
12434
12911
13043
13242
13417
13643
13907
14064
14180
14300
14591
14946
15232
15554
15939
16368
16763
17133
17362
17393
17240
17008
16634
15850
14882
13839
12935
12156
11711
11462
11332
11302
11338
11377
11556
11669
11778
11893
11983
12017
12011
12022
12079
12112
12068
12101
12117
12173
12142
12072
12012
12248
12661
13030
13201
13177
13134
13038
12879
12682
12471
12462
12413
12297
11917
12681
16285
21299
25062
15913
7379
9584
10675
12018
12706
13048
13302
13426
13604
13762
13928
14093
14289
14481
14653
14937
15297
15679
16070
16531
16916
17255
17409
17389
17197
16883
16312
15481
14470
13394
12535
11874
11435
11161
11050
11086
11164
11209
11311
11466
11634
11675
11736
11806
11837
11840
11835
11852
11832
11835
11871
11852
11883
11927
12003
12035
12088
12176
12089
11971
12148
12615
12999
13215
13221
13218
13167
13057
12896
12642
12603
12660
12624
12158
12480
15543
22489
24704
13184
7823
10109
10983
12008
12772
13158
13342
13547
13681
13875
14038
14166
14324
14517
14744
15002
15317
15710
16152
16583
17016
17358
17554
17498
17395
17063
16657
15918
15001
13965
13021
12222
11679
11404
11260
11254
11337
11483
11566
11611
11705
11807
11805
11880
11963
11968
11890
11890
11928
11939
11960
11944
11927
11887
11924
11986
12007
12060
12133
12095
12029
12289
12704
13012
13157
13147
13160
13051
12848
12685
12503
12531
12528
12271
11940
13687
17879
23018
23803
11942
8043
10347
11066
11994
12712
13113
13318
13498
13625
13800
13979
14210
14402
14605
14831
15075
15366
15746
16188
16581
16979
17280
17427
17399
17264
16964
16491
15652
14656
13654
12762
12027
11601
11363
11244
11206
11232
11352
11450
11576
11681
11821
11840
11910
11942
12004
12010
12049
12004
12042
12083
12098
12132
12166
12179
12225
12296
12281
12251
12300
12277
12164
12303
12981
13272
13364
13350
13296
13251
13116
13021
12793
12715
12742
12569
12041
13348
17236
22401
24613
13500
8111
10362
11221
12040
12752
13169
13407
13570
13760
13882
14021
14194
14296
14469
14722
15039
15294
15634
16037
16463
16859
17200
17416
17495
17321
17073
16578
15895
14958
13937
13005
12231
11677
11422
11263
11241
11297
11336
11455
11537
11626
11639
11756
11860
11919
11890
11920
11928
11906
11929
11955
11924
11949
11998
12028
12058
12098
12108
12119
12171
12193
12181
12097
12464
12923
13234
13345
13301
13276
13158
12979
12836
12646
12602
12614
12368
11948
13562
17607
23002
24222
12184
8351
10355
11205
12058
12824
13212
13393
13570
13753
13902
14083
14286
14555
14655
14770
14914
15271
15656
16007
16563
16924
17214
17261
17197
17374
17200
16810
16119
15104
13987
13021
12212
11785
11453
11269
11265
11354
11381
11553
11535
11584
11738
11874
11879
11973
11960
12084
12041
12026
11993
12115
12129
12182
12130
12096
12135
12239
12203
12278
12343
12293
12363
12358
12322
12110
12499
13022
13377
13495
13496
13451
13209
13000
12855
12666
12549
12683
12490
12083
13753
17827
23225
24488
12271
7948
10182
11120
11999
12632
13104
13358
13400
13437
13661
13829
13957
13994
14329
14680
14938
15257
15628
15971
16363
16805
17226
17515
17516
17364
17048
16739
16159
15118
14099
13007
12163
11666
11494
11304
11104
11237
11304
11353
11464
11603
11610
11645
11859
11779
11788
11914
11944
11933
11901
11798
11802
11999
12000
11778
11978
12083
12086
12097
12169
12309
12248
12168
12245
12290
12368
12318
12391
12836
13164
13459
13499
13506
13401
13242
13042
12785
12709
12744
12662
12386
13062
16359
21148
25389
17447
7860
9784
10977
11935
12725
13147
13339
13525
13764
13970
13910
14046
14328
14455
14672
14875
15234
15595
15973
16505
16883
17209
17488
17653
17571
17343
17032
16340
15318
14253
13225
12363
11797
11372
11115
11205
11254
11326
11463
11491
11566
11646
11674
11735
11738
11767
11830
11907
11805
11770
11780
11804
11840
12025
11976
12017
12094
12123
12119
12117
12178
12305
12317
12277
12210
12109
12563
12997
13311
13397
13405
13391
13251
13128
12921
12754
12626
12640
12393
12249
14319
18546
23702
23341
10979
8325
10497
11281
12234
12985
13328
13512
13671
13750
13877
13980
14128
14471
14607
14908
15138
15440
15880
16390
16769
17249
17471
17597
17537
17339
17004
16421
15468
14510
13521
12484
11826
11475
11221
11123
11124
11165
11243
11286
11405
11539
11590
11630
11743
11805
11792
11745
11778
11866
11798
11870
11789
11767
11835
11893
12031
12139
12163
12170
12236
12187
12096
12014
12453
12944
13285
13309
13216
13128
12977
12850
12726
12617
12587
12495
12185
12924
16200
20867
24999
16966
7729
9808
11134
11941
12815
13143
13332
13534
13768
13903
13989
14229
14383
14534
14633
15014
15429
15687
16148
16578
16972
17368
17562
17634
17466
17108
16771
16026
14986
13875
12913
12150
11605
11308
11196
11219
11055
11102
11401
11506
11250
11442
11792
11972
11873
11862
11949
11908
11955
11895
11791
11931
12087
12075
12128
12144
12086
12138
12140
12322
12245
12031
12088
12624
13072
13376
13294
13198
13213
13219
12987
12672
12581
12649
12641
12271
12328
15020
21551
25231
15809
7872
10010
11090
11988
12701
13206
13300
13414
13584
13668
13811
13972
14097
14508
14830
14944
15257
15539
15884
16395
16784
17201
17513
17568
17559
17263
16806
16152
15243
14206
13185
12356
11824
11396
11107
11005
10943
11211
11394
11367
11410
11632
11671
11768
11767
11772
11786
11792
11788
11763
11811
11943
11919
11842
11830
12005
12147
12095
12044
12118
12175
12289
12157
12016
12308
12791
13085
13224
13271
13289
13145
12956
12697
12589
12656
12717
12413
12179
14038
18111
23569
23329
10835
8464
10621
11495
12240
12929
13214
13398
13549
13724
13929
14011
14202
14383
14606
14898
15080
15217
15679
16197
16648
17047
17442
17763
17793
17651
17374
16838
16103
15074
13970
12915
12120
11673
11460
11287
11138
11198
11263
11343
11356
11430
11422
11482
11697
11803
11760
11834
11953
11907
11877
11944
11966
11806
11837
12080
12161
12184
12078
12124
12223
12296
12340
12146
12247
12327
12713
13132
13328
13413
13487
13394
13137
12946
12832
12762
12671
12634
12347
12551
15398
20028
25129
19600
8213
9374
10953
11916
12632
13092
13338
13461
13593
13712
13850
14100
14315
14466
14644
14910
15159
15417
15878
16243
16700
17255
17649
17716
17741
17618
17212
16623
15881
14836
13595
12678
11952
11511
11237
11004
10980
11271
11514
11492
11542
11662
11625
11639
11658
11684
11827
11879
11810
11832
11868
11905
11847
11842
11922
11980
12026
12041
12078
12157
12180
12212
12314
12200
12155
12332
12794
13109
13387
13481
13445
13345
13125
12945
12768
12638
12601
12633
12296
12726
15778
20696
25298
18080
7775
9475
10837
11858
12524
12977
13229
13382
13591
13727
13835
13954
14099
14283
14560
14847
15068
15454
15918
16478
16854
17256
17575
17673
17696
17577
17130
16418
15595
14698
13575
12637
11873
11402
11126
10984
10998
11044
11023
11035
11248
11278
11485
11599
11559
11515
11661
11786
11697
11803
11899
11887
11970
11914
11896
12019
11890
11857
12182
12199
12050
12064
12273
12643
12960
13149
13139
13180
13058
12870
12685
12552
12471
12488
12473
12200
13033
16166
20682
24321
16541
7356
9647
11260
12083
12641
13100
13417
13430
13468
13769
13965
14023
14221
14383
14604
14882
15155
15241
15694
16289
16772
17345
17537
17502
17542
17358
16897
16296
15334
14352
13332
12470
11633
11380
11233
11088
11144
11285
11325
11416
11534
11614
11691
11815
11866
11847
11938
11858
11845
12032
12091
12104
12053
12106
11986
12013
12113
12101
12168
12088
12247
12688
12973
13215
13242
13028
12968
12918
12711
12678
12526
12474
12443
12290
13026
16262
20968
24460
15845
7519
9813
11276
12179
12787
13143
13346
13543
13892
13903
14080
14132
14286
14449
14543
14749
15242
15655
16033
16584
16971
17277
17569
17653
17573
17383
17074
16022
15051
13903
12968
12270
11758
11531
11296
11277
11212
11212
11418
11460
11526
11655
11699
11752
11779
11828
11879
11885
11980
12033
11964
12087
12041
11997
11997
11994
12116
12136
12116
12144
11919
12058
12743
13025
13186
13290
13293
13069
12999
12876
12591
12482
12522
12568
12388
12515
15220
19664
24370
19360
8164
9133
11008
11786
12534
13114
13320
13498
13634
13712
13833
13900
14072
14342
14586
14767
15033
15418
15751
16105
16846
17259
17494
17745
17587
17230
16929
16343
15371
14402
13352
12349
11624
11393
11275
11111
11080
11333
11228
11206
11419
11569
11597
11620
11809
11803
11739
11791
11918
11837
11877
12070
11986
11908
11989
11993
12099
12154
12212
12141
12255
12233
12033
12180
12697
13134
13313
13265
13201
13196
13088
12891
12829
12645
12515
12664
12339
12319
14907
19254
24414
20778
8800
9047
10957
11809
12609
13125
13366
13458
13535
13739
13969
14130
14299
14543
14709
14828
15111
15479
15886
16319
16843
17354
17545
17675
17606
17373
17128
16531
15560
14547
13503
12512
11868
11535
11415
11280
11202
11346
11382
11308
11504
11721
11780
11622
11718
11899
11920
11907
11948
11919
11860
11913
11960
12001
11976
11976
12068
12120
12051
12055
12128
12189
12371
12358
12143
12064
12685
13207
13362
13325
13401
13327
13144
12915
12730
12568
12571
12626
12391
12263
14243
18313
23653
22974
10577
9334
11123
11968
12679
13258
13441
13641
13793
13852
13930
14110
14221
14409
14643
14856
15144
15457
15878
16310
16809
17354
17659
17725
17701
17611
17242
16664
15890
14896
13796
12871
12133
11522
11262
11173
11201
11215
11308
11361
11415
11506
11555
11683
11745
11823
11860
11913
11929
11798
11890
11982
11996
11999
11897
11896
12014
12035
11967
11956
12108
12229
12292
12263
12209
12451
12810
13111
13334
13332
13241
13145
13018
12895
12590
12589
12586
12447
12298
13799
17584
22595
24027
12813
7795
10363
11361
12215
12891
13165
13309
13572
13751
13865
13912
14009
14250
14518
14724
14949
15285
15637
16049
16527
16964
17443
17613
17628
17568
17416
16921
16231
15308
14168
13091
12229
11636
11313
11177
11222
11171
11156
11230
11321
11384
11491
11635
11611
11618
11628
11784
11896
12020
11987
11917
11861
11873
11919
11965
12016
12029
12100
12172
12272
12214
12084
12195
12765
13079
13279
13261
13177
13019
12836
12579
12469
12600
12609
12466
12218
13423
16903
21773
24324
14204
7676
10216
11458
12306
12910
13213
13425
13553
13703
13825
14026
14129
14259
14470
14700
14866
15285
15685
15934
16368
16927
17389
17676
17712
17572
17302
16894
16096
15091
14101
13038
12234
11608
11330
11188
11106
11084
11115
11390
11477
11382
11545
11698
11706
11743
11793
11809
11762
11887
12012
12030
12011
12049
11992
11995
12020
12027
11981
12175
12135
12061
12210
12745
13146
13287
13255
13191
13117
13020
12837
12596
12515
12564
12559
12295
12372
14989
19294
24376
20528
8614
8906
10783
11688
12353
12943
13165
13352
13511
13718
13856
13979
14202
14404
14475
14658
15064
15419
15771
16266
16772
17296
17677
17829
17839
17695
17487
16811
15853
14790
13561
12745
12187
11708
11396
11282
11252
11234
11172
11300
11358
11492
11595
11667
11714
11763
11785
11899
11938
11924
11920
11903
11915
12057
12105
12165
12134
12122
12197
12209
12259
12160
12161
12053
12543
13061
13283
13369
13326
13284
13201
13041
12863
12800
12724
12668
12517
12253
13588
17349
22554
24270
12984
7833
10377
11477
12312
12863
13266
13477
13670
13822
13934
13983
14135
14412
14560
14674
14931
15345
15881
16254
16564
17087
17482
17721
17820
17726
17494
17125
16446
15442
14333
13283
12383
11727
11381
11236
11055
11034
11070
11203
11457
11519
11582
11611
11742
11614
11632
11875
11923
11929
11916
11972
11957
11961
12013
12046
11910
11937
12097
12123
12166
12172
12233
12350
12165
11977
12338
12700
13127
13454
13455
13454
13223
13047
12847
12599
12569
12669
12632
12426
12741
15658
20161
24985
18916
7663
9280
11222
12153
12797
13101
13338
13473
13633
13806
13886
14026
14194
14403
14650
14904
15119
15482
15890
16431
16894
17198
17649
17869
17848
17723
17409
16743
15826
14456
13416
12596
11909
11436
11126
11059
11110
11181
11217
11298
11459
11559
11675
11730
11696
11730
11861
11785
11828
11925
11948
11904
11881
11998
12061
12011
12056
12078
12090
12141
12211
12186
12191
12334
12228
11978
12220
12877
13280
13546
13443
13362
13325
13143
12894
12722
12657
12661
12580
12378
12531
15120
19694
24606
20625
8550
8903
10907
11811
12446
13005
13280
13435
13585
13744
13880
14045
14206
14460
14638
14840
15155
15653
16007
16308
16763
17281
17800
17889
17671
17498
17216
16530
15581
14501
13425
12446
11847
11445
11176
11087
11142
11062
11085
11332
11415
11416
11534
11558
11661
11715
11772
11835
11868
11898
11798
11837
11898
11885
11852
11817
11863
11883
11975
11990
12145
12361
12158
11962
12290
12802
13147
13239
13124
13103
13162
12845
12681
12542
12557
12583
12500
12171
13482
16988
21920
24167
13579
7537
10196
11362
12130
12706
12993
13145
13502
13774
13939
14143
14243
14294
14517
14801
15008
15359
15704
16231
16757
17120
17541
17811
17840
17580
17315
16841
16052
14995
13840
12903
12082
11645
11354
11155
11129
11066
11164
11348
11406
11402
11629
11866
11864
11830
11820
11884
11924
11829
11824
11970
12008
12058
12077
12147
12212
12131
12080
12125
12312
12369
12201
12229
12801
13256
13412
13230
13248
13289
13111
12762
12635
12595
12628
12536
12301
12551
15127
19763
24977
19615
7434
10013
11273
12130
12812
13186
13380
13605
13749
13918
14026
14024
14411
14614
14685
14932
15297
15665
16030
16476
16913
17434
17861
17923
17798
17606
17267
16664
15586
14326
13204
12381
11759
11428
11308
11065
11201
11473
11479
11361
11368
11372
11521
11642
11785
11842
11853
11954
11718
11845
11963
11945
12007
12001
11983
11926
11921
11995
12138
12269
12159
12059
12108
12428
12859
13270
13400
13318
13154
12960
12735
12572
12452
12442
12684
12394
12491
15217
19703
24881
19841
8026
9034
10826
11790
12511
13080
13198
13346
13516
13669
13749
13865
14152
14417
14510
14720
15030
15278
15519
16102
16838
17250
17600
17774
17570
17445
17233
16708
15594
14713
13845
12926
12220
11716
11404
11245
11173
11108
11153
11312
11437
11482
11731
11807
11732
11715
11821
11699
11669
11818
11970
12003
12083
12223
12094
12119
12057
12243
12155
12210
12365
12472
12273
12422
12808
13343
13333
13296
13249
13138
12929
12923
12447
12275
12569
12324
12075
13393
17093
21866
24679
14442
7409
9726
10845
12005
12904
13228
13037
12852
13107
13373
13817
14322
14543
14762
14823
14855
14890
15143
16225
16487
16817
17924
18151
17928
17731
17170
16492
16498
15788
14447
13537
12553
11790
11279
11066
10841
10996
10966
10598
11467
11773
11349
11590
11888
11810
11602
11450
11915
12044
11732
12001
12235
12081
12083
12084
12055
11760
12153
12228
11999
11977
12670
13055
13241
13182
13265
12785
12845
12887
12674
12507
12532
12521
12422
12821
15669
19641
23908
18535
7601
9061
11111
12013
12548
13142
13398
13529
13778
14032
14068
14177
14221
14512
14681
14852
15084
15292
16043
16521
16893
17272
17739
17681
17766
17625
17347
16586
15547
14473
13620
12581
11904
11589
11336
11253
11059
10907
11069
11072
11460
11747
11622
11682
11848
11935
11752
11903
12111
12065
12128
12293
12105
12095
12110
12345
12243
12300
12069
12090
12640
12968
13156
13324
13274
13053
12899
12751
12686
12433
12469
12581
12410
12581
15426
19868
24967
20382
8467
9310
10687
11631
12332
13091
13181
13441
13531
13727
13682
13907
13974
14184
14399
14571
14895
15416
15680
16171
16655
16977
17259
17402
17492
17225
16768
16265
15739
14493
13302
12471
11913
11358
11167
11160
11196
11114
11145
11297
11472
11678
11623
11671
11829
12001
12007
11963
11897
11932
11874
12025
12020
11989
11873
12078
12095
12073
11913
11801
12275
13030
13255
13230
13174
13229
13156
12914
12633
12361
12453
12547
12399
12125
14054
18383
24042
24322
11172
8098
9989
11285
12273
12931
13049
13278
13432
13657
13759
13797
13904
14320
14423
14705
14951
15241
15568
16007
16351
16804
17286
17684
17780
17647
17333
16803
16052
14964
13864
12836
11954
11625
11308
11106
11059
10919
10604
11179
11589
11676
11617
11761
11832
11702
11832
11713
11840
12020
11979
11924
11882
12110
12172
12370
12372
12185
12048
12300
12801
13208
13183
13077
13046
12940
12728
12640
12627
12603
12606
12267
12000
12975
16608
21554
25374
16299
7365
9018
10618
11911
12575
12953
13197
13424
13544
13614
13733
13917
14116
14452
14592
14802
14929
15379
15922
16269
16802
17315
17456
17485
17588
17427
17061
16506
15704
14527
13512
12641
12028
11546
11346
11370
11643
11557
11625
11873
11915
11792
11793
11904
12106
12048
12073
12181
12114
12107
12073
12101
12033
11900
11864
12204
12580
12893
12981
12907
13002
12822
12561
12458
12226
12254
12071
11941
11961
12670
15667
20293
24869
18780
7946
8700
10169
11198
12267
12872
13068
13187
13546
13667
13734
13834
14052
14323
14625
15006
15073
15362
15886
16229
16777
17275
17326
17451
17389
17207
16559
16262
15359
14278
13025
12114
11385
11277
11072
10842
10999
11056
11068
11260
11318
11464
11597
11447
11699
11795
11894
11782
11866
11775
12001
12011
11981
11753
11856
12330
12693
12778
12826
12818
12758
12602
12412
12108
11985
12395
12354
11983
11977
14107
18082
23280
23293
11531
7861
9636
10536
11776
12536
13068
13182
13215
13614
13969
13856
13982
14183
14185
14510
14592
15188
15588
15995
16373
16792
17226
17306
17329
17202
17093
16412
15514
14477
13615
12668
11917
11197
11012
10998
11103
11013
11096
11174
11351
11427
11565
11768
11759
11718
11752
11747
11893
11956
11940
11725
11721
11758
12024
12484
12774
12779
12713
12879
12723
12495
12197
12293
12326
12307
12161
11818
12725
16285
21458
25223
16512
7767
9345
10148
11566
12233
12848
13023
13157
13308
13605
13728
13865
14140
14329
14471
14586
14997
15463
15893
16258
16762
17096
17544
17623
17507
17119
16785
15934
15075
13995
12936
12069
11525
11263
11133
11047
11092
11268
11351
11376
11563
11706
11707
11600
11722
11943
11983
12011
12001
12031
11975
12015
11946
11862
12145
12477
12869
13116
13042
12868
12828
12598
12565
12346
12437
12491
12525
11951
11823
14619
19318
24811
22039
9420
8599
10112
11353
12378
12971
13108
13394
13611
13590
13797
13934
14151
14277
14461
14639
15038
15242
15775
16262
16697
17105
17396
17640
17600
17492
17089
16391
15426
14500
13415
12422
11564
11302
11209
11152
11042
11115
11206
11388
11356
11337
11549
11760
11710
11680
11839
11987
11922
11936
11902
11863
11925
11992
11979
11773
12013
12371
12914
13013
12970
12891
12793
12555
12456
12262
12117
12146
12323
11930
11878
14549
19219
24867
21661
9086
8425
10031
11298
12292
12945
13273
13299
13567
13672
13768
13991
14095
14299
14387
14796
14930
15316
15729
16278
16567
17168
17567
17739
17602
17663
17285
16633
15665
14503
13316
12320
11868
11398
11222
11091
11229
11133
11240
11397
11536
11391
11633
11598
11758
11880
11948
11855
11900
11838
11865
11839
11964
12036
12021
12031
12157
12317
12121
11988
12086
12427
12785
13173
13316
13306
13192
13234
12958
12801
12550
12669
12678
12559
12049
12401
15808
20909
25777
19011
8344
9205
10470
11724
12771
13217
13397
13438
13823
13839
14015
14083
14202
14563
14750
14889
15244
15603
15922
16408
16799
17377
17655
17809
17714
17627
17276
16582
15726
14672
13045
12269
11603
11225
11168
11209
11097
11079
11375
11518
11402
11546
11720
11766
11808
12056
11944
11832
11884
11861
11855
11789
11750
11938
11936
11992
11973
12204
12211
12083
12114
12355
12627
12947
13060
13144
13103
13047
12781
12686
12582
12584
12548
12449
11875
12236
15370
19984
25117
20539
8819
9088
10305
11183
12345
12921
13253
13347
13578
13695
13792
13964
14175
14314
14537
14812
14890
15323
15790
16360
16752
17167
17505
17616
17552
17354
16778
16029
15197
14288
13065
12058
11455
11345
11191
11122
11037
11189
11504
11511
11477
11491
11603
11645
11802
11852
11976
11922
11958
11923
11985
11967
11918
11848
12213
12262
12092
12055
12184
12302
12162
11963
12182
12743
13168
13258
13085
13136
13060
12896
12514
12420
12552
12574
12276
11911
12579
16106
21253
25725
17740
8089
9314
10309
11745
12396
13038
13296
13439
13569
13687
13838
14073
14098
14242
14505
14872
15041
15478
16086
16432
16850
17390
17715
17628
17587
17242
16957
16053
14968
13843
12932
12141
11734
11251
11035
11178
11122
11071
11241
11349
11499
11656
11657
11707
11725
11816
11674
11889
11962
11765
11898
12034
11993
11954
11990
12099
12043
12038
12073
12201
12271
12301
12167
12074
12417
12778
13196
13365
13221
13142
13199
13025
13014
12784
12752
12664
12693
12260
11983
14302
18835
24650
22916
10329
8681
10097
11310
12384
12959
13359
13504
13689
13715
13947
14094
14385
14463
14605
14815
15199
15701
15999
16284
16652
17235
17653
17770
17734
17567
17172
16638
15654
14644
13395
12507
11801
11563
11279
11109
11153
11317
11354
11291
11470
11584
11460
11779
11948
11772
11835
11875
11939
11925
12079
12042
11856
11982
12082
12054
12101
12126
12148
12270
12316
12235
12166
12350
12389
12328
12279
12423
12810
13241
13359
13203
13360
13426
13300
13081
12909
12772
12777
12603
12098
12653
15846
20675
25757
19410
8604
9273
10582
11787
12660
13184
13397
13443
13821
13933
14009
14129
14245
14278
14661
14912
15159
15375
15796
16443
16804
17256
17502
17657
17607
17741
17296
16774
15783
14836
13641
12709
12026
11542
11252
11167
11176
11157
11249
11294
11482
11508
11523
11646
11688
11709
11955
11924
11907
12045
12043
12000
11887
11798
11934
11935
11937
12094
12113
12094
12157
12242
12170
12352
12439
12357
11997
12710
13045
13211
13198
13215
13279
13401
13068
12751
12641
12744
12894
12673
12079
13014
16963
22181
25548
15666
8075
9685
10886
12149
12964
13182
13445
13531
13795
13968
14115
14131
14269
14590
14697
14935
15139
15468
15846
16469
16935
17472
17695
17864
17652
17586
17212
16546
15542
14590
13392
12520
11905
11310
11234
11264
11172
11080
11405
11288
11390
11515
11580
11594
11775
11711
11813
11924
11844
11878
11987
11993
12001
11957
12029
11986
12039
12109
12102
12171
12221
12140
11953
12339
12729
13129
13272
13151
13041
13286
13014
12839
12529
12566
12725
12552
12011
12332
15724
20636
25441
18279
7956
9130
10335
11723
12668
13028
13305
13559
13742
13794
13989
14073
14219
14428
14705
14912
14970
15450
15926
16401
16802
17185
17470
17692
17668
17539
17313
16719
15729
14624
13465
12477
11790
11376
11192
11074
11101
10926
11124
11178
11448
11458
11694
11638
11656
11694
11816
11825
11910
11894
11812
11785
12039
12071
12056
11981
11916
12003
12117
12087
12046
12161
12528
13026
13128
13210
13079
13085
12923
12827
12624
12638
12620
12384
12321
12169
14132
18360
24048
23139
10450
8437
10123
11357
12281
12926
13279
13301
13633
13730
13812
14001
14224
14428
14524
14787
14964
15244
15656
16201
16614
17145
17525
17836
17825
17757
17429
16948
16073
15058
13981
12987
12077
11605
11285
11031
11032
11006
11218
11320
11293
11375
11694
11741
11609
11666
11895
11855
11858
11800
11896
11823
11942
11809
11887
11760
11988
12154
12171
12217
12119
12054
12374
12994
13238
13219
13061
12972
12897
12792
12550
12529
12545
12625
12263
12107
14551
19039
24643
22045
9255
8451
10137
11455
12435
13017
13390
13243
13600
13841
13888
13847
14225
14417
14605
14771
15107
15536
15869
16269
16770
17207
17437
17786
17915
17745
17341
17019
16257
15140
13755
12908
11896
11424
11125
11157
11009
11033
11075
11370
11271
11352
11654
11833
12086
11921
11771
11735
11905
11818
11854
11870
12066
11878
12035
11927
12018
11983
11871
11904
12370
12886
13086
13090
13050
13016
12792
12703
12483
12445
12459
12429
12057
12250
15328
19982
24877
20284
8263
8732
10044
11267
12281
12827
13256
13621
13934
13882
13859
13952
14076
14275
14554
14559
14941
15736
16201
16462
16774
17080
17485
17586
17635
17382
16954
16641
15430
14138
12997
12139
11490
11217
11088
11021
10924
11169
11292
11301
11315
11397
11469
11578
11633
11771
11704
11735
11772
11858
11728
11678
11850
11970
11847
11837
11889
11915
12364
12704
12973
12861
12872
12840
12665
12658
12527
12389
12366
12325
12027
12012
14729
19231
24439
21082
8754
8723
10060
11283
12257
12810
13073
13239
13428
13700
13834
13987
14193
14422
14638
14705
15054
15388
15744
16078
16659
17072
17492
17692
17673
17273
16820
16302
15365
14092
13117
12187
11652
11409
11229
11081
11035
11246
11312
11311
11346
11519
11557
11618
11585
11802
11786
11906
11841
11893
11850
11887
11840
11926
11971
11957
11951
11890
12439
12845
13074
13073
13145
12891
12859
12570
12445
12373
12384
12396
12130
12046
14437
18870
24524
22060
9184
8537
10037
11292
12219
12912
13080
13322
13412
13678
13782
13947
14076
14264
14406
14736
15043
15318
15855
16173
16589
16933
17486
17626
17411
17444
17211
16231
15235
14258
13315
12315
11783
11376
11106
11168
11222
11131
11155
11227
11452
11646
11664
11665
11728
11881
11907
11910
11681
11903
11880
11813
11922
11989
11970
12136
11974
11948
11765
12026
12729
13052
13123
13090
13079
12981
12709
12463
12563
12552
12473
12282
12186
12985
16572
21607
25525
15714
7699
9406
10647
11953
12834
13132
13238
13427
13713
13784
13655
13967
14254
14437
14689
14969
15119
15701
16088
16539
16889
17514
17609
17531
17329
17272
16819
15953
14838
13753
12740
12156
11617
11255
11303
11191
11144
11179
11431
11489
11507
11692
11699
11738
11901
11901
11856
11905
11840
11793
11829
11940
11959
12051
11995
12073
12002
11832
11905
12408
12753
13023
13014
12944
13172
12958
12685
12457
12544
12474
12436
12261
12075
13801
18011
23618
23915
10962
8043
9777
11064
12264
12990
13149
13227
13404
13646
13741
13953
14222
14274
14357
14762
15245
15462
15718
16219
16772
17084
17541
17607
17628
17303
17063
16623
15688
14691
13565
12583
11912
11369
11246
11243
11198
11202
11123
11433
11551
11667
11545
11686
11772
11996
11866
11862
11877
11932
11794
11864
11846
11824
11982
12037
11973
11847
11943
12258
12751
12957
13215
12990
12875
12753
12745
12518
12328
12458
12482
12213
11967
13886
17957
23427
24113
11521
7796
9682
10942
12222
12912
13248
13220
13369
13611
13872
13974
14066
14244
14748
15035
15282
15517
15770
16243
16709
17188
17325
17554
17501
17396
16886
16404
15574
14718
13477
12562
12079
11598
11209
11108
10950
11066
11265
11317
11301
11599
11799
11690
11692
11806
11985
11776
11788
11793
11862
11928
11957
11886
12043
12026
11834
11785
12099
12702
12970
13030
12977
12977
12847
12691
12489
12409
12207
12487
12167
11991
14187
18766
24154
22482
9735
8315
10111
11245
12234
12678
13097
13371
13769
13735
13902
14134
14311
14700
14829
15112
15366
15914
16220
16731
17023
17515
17507
17476
17101
16810
16255
15289
14184
12970
12147
11664
11313
11103
11117
11029
11045
11286
11457
11411
11428
11468
11600
11563
11678
11778
11878
11956
11863
11822
11973
11956
11942
11996
12021
11865
12006
12583
12932
13031
13003
12932
12697
12728
12627
12360
12292
12331
12341
11884
12624
15897
20962
25437
17271
7714
9235
10262
11702
12517
13094
13349
13401
13465
13766
13962
14109
14261
14390
14700
14942
15264
15513
16034
16443
16840
17145
17457
17331
17257
17075
16613
15741
14733
13656
12695
11920
11485
11218
11048
11098
11144
11267
11333
11411
11358
11693
11658
11694
11709
12066
12032
11981
11968
11954
11905
11993
12078
12032
12036
12178
12253
12023
12039
12490
12924
13107
13128
12892
13087
12949
12813
12633
12329
12401
12495
12235
12242
14774
19263
25037
21370
8683
8731
10155
11765
12737
13149
13298
13448
13664
13630
13747
13923
14175
14289
14468
14792
15227
15621
15892
16278
16686
17164
17437
17528
17291
17230
16838
16310
15331
14350
13186
12272
11589
11366
11163
10965
11056
11231
11369
11474
11544
11637
11765
11654
11798
11881
11999
11899
11878
11842
11949
11908
12015
11955
11984
12035
12131
12088
11868
11966
12383
12809
13039
13173
13143
13206
13012
12883
12502
12438
12505
12500
12354
12138
13862
18120
25196
21008
8350
8648
10179
11558
12303
12996
13374
13397
13511
13615
13894
14117
14239
14309
14508
14646
15156
15700
15988
16228
16778
17164
17511
17603
17483
17401
17082
16767
15889
14756
13706
12774
11953
11575
11159
11174
11238
11197
11211
11434
11577
11629
11637
11766
11846
11770
11821
11769
11845
11902
12131
12124
12031
11980
12022
11904
12074
12093
11947
11967
12280
12695
13117
13220
13095
13105
12954
12778
12522
12591
12513
12589
12297
12694
15958
21211
25685
18182
7545
8993
10220
11738
12613
13108
13186
13345
13683
13855
13972
14071
14124
14286
14596
14831
15234
15472
15984
16481
16855
17254
17614
17622
17509
17299
16946
16296
15480
14430
13246
12421
11835
11447
11121
10999
11098
10997
11178
11413
11481
11530
11619
11760
11788
11794
11866
11776
11643
11779
12001
11859
11889
11879
11969
11916
11792
11767
12215
12723
13042
13003
13051
12930
12728
12576
12402
12332
12335
12217
12134
13147
16923
21979
25182
15096
7475
9466
10404
11719
12512
13034
13316
13480
13555
13733
13863
14058
14150
14426
14711
14858
15173
15549
16010
16574
17121
17320
17460
17559
17671
17225
16668
16056
15235
14036
13016
12118
11754
11352
11172
11243
10991
11127
11442
11573
11547
11423
11531
11767
11792
11726
11652
11800
11925
11996
11889
11807
11738
11928
12005
11924
11822
11980
12549
12905
13087
13013
12947
12820
12635
12351
12488
12394
12433
12105
11972
14185
18720
24291
22841
9741
8468
10030
11169
12063
12764
13020
13283
13480
13585
13782
13884
14133
14266
14549
14844
15172
15358
15694
16052
16639
17004
17285
17554
17571
17477
17131
16612
15600
14730
13444
12592
11938
11559
11357
11157
11006
11118
11249
11272
11468
11561
11664
11650
11708
11813
11899
11901
11963
11875
11940
11929
11999
11941
12026
12068
12019
11857
12173
12569
12978
13055
12956
12965
12733
12544
12380
12332
12485
12477
12100
12326
15073
19716
25292
21039
8391
8662
9922
11518
12417
13018
13165
13286
13470
13689
13782
13965
14085
14075
14492
14803
15016
15422
15909
16194
16711
17069
17515
17703
17557
17329
17111
16455
15523
14430
13444
12501
11696
11316
11053
11014
11075
11163
11103
11102
11279
11429
11445
11607
11590
11772
11771
11775
11864
11822
11761
11718
11812
11930
12030
11940
11921
11797
12017
12377
12845
13042
12951
13001
13079
12745
12608
12517
12373
12510
12410
11972
12872
16523
21852
25817
16161
7427
9095
10352
11876
12829
13061
13185
13337
13658
13777
13890
14051
14230
14353
14722
15093
15379
15672
15939
16418
16941
17466
17672
17709
17539
17449
17209
16495
15449
14277
13123
12294
11727
11420
11159
10945
11286
11427
11473
11467
11478
11453
11762
11726
11870
11765
11749
11935
11996
11992
11922
11882
11959
12025
12053
11951
11906
12126
12438
12833
12949
12981
12934
12975
12811
12785
12451
12410
12327
12336
11985
12245
14970
19772
24936
20667
8228
8563
9904
11130
12191
12785
13255
13424
13506
13510
13904
13906
14047
14214
14558
14811
15130
15449
15887
16251
16898
17272
17467
17709
17675
17527
17005
16502
15494
14545
13441
12330
11772
11342
10958
11030
10974
11038
11188
11304
11314
11339
11657
11715
11871
11705
11832
11835
11850
11943
11996
11843
11959
11938
12036
11980
11925
11924
12284
12867
13096
12893
12993
13062
12777
12592
12488
12351
12411
12365
12068
12312
15139
20117
25348
20494
8253
8811
10153
11541
12393
12958
13099
13282
13588
13734
13884
13878
14155
14378
14674
14778
15067
15403
15973
16311
16775
17165
17473
17590
17648
17507
17136
16542
15510
14502
13401
12458
11852
11574
11274
11199
10994
11161
11311
11392
11405
11488
11556
11647
11755
11843
11875
11746
11728
11749
11910
11921
11920
11856
11921
12077
12035
11834
12125
12496
12891
12994
13151
13034
13007
12809
12585
12557
12515
12535
12441
11948
12249
15392
20250
25677
19598
8085
8998
10281
11510
12520
12920
13213
13268
13479
13638
13851
13970
14203
14425
14567
14726
14971
15543
15879
16194
16742
17302
17585
17683
17716
17543
17150
16573
15727
14564
13426
12346
11862
11487
11147
10885
11015
11143
11185
11210
11370
11461
11694
11684
11794
11806
11823
11798
11737
11739
12052
12082
12024
12044
12168
12028
12126
12180
11953
12102
12510
13017
13277
13298
13147
13105
12873
12692
12474
12482
12514
12501
12221
12484
15406
20196
25602
20286
7903
8617
10160
11460
12299
12771
13311
13425
13653
13773
13826
13918
14361
14421
14497
14877
15162
15520
15777
16310
16727
17165
17674
17848
17746
17608
17289
16822
15882
14933
13811
12818
11972
11548
11257
11329
11298
11230
11221
11414
11608
11525
11649
11612
11819
11866
11971
11822
11833
11834
11878
11918
11941
11971
12053
12106
12076
11967
11943
12270
12672
12871
13132
13142
13118
12921
12702
12463
12315
12523
12446
12138
11821
13602
17992
23253
24688
12591
7415
9456
10636
12040
12693
13044
13232
13289
13601
13884
13954
14059
14143
14402
14773
15108
15416
15601
16059
16678
17035
17393
17590
17600
17555
17432
16949
16162
15177
14105
12916
12196
11602
11391
11142
11055
11036
11116
11273
11229
11360
11556
11578
11802
11809
11718
11694
11840
11850
11853
12042
11921
11940
12008
12018
11889
12035
12266
12710
12911
13069
13025
12868
12635
12580
12444
12264
12495
12355
11966
12188
14987
19473
24431
21337
8931
8404
9777
10852
12152
12889
13168
13252
13265
13562
13870
14081
14157
14320
14483
14648
14941
15511
15859
16258
16682
17240
17517
17692
17600
17508
17227
16706
15821
14661
13450
12561
12043
11497
11285
11046
11010
11060
11299
11359
11571
11565
11639
11651
11816
11830
11749
11684
11786
11878
11949
11948
11992
12033
12010
11957
11754
12097
12349
12917
13260
13251
13086
12969
12760
12642
12343
12312
12401
12329
11906
12403
15878
20885
25764
18528
7877
9064
10112
11404
12485
13006
13297
13402
13511
13646
13858
14025
14163
14259
14540
14738
15171
15700
15968
16429
16828
17450
17659
17770
17652
17466
17104
16525
15513
14397
13349
12276
11740
11334
11102
11212
11230
11134
11182
11352
11499
11577
11612
11591
11800
11786
11842
11817
11889
11745
11821
11935
11817
11817
12123
12007
11945
11952
12276
12739
13058
13030
12950
13166
12899
12760
12625
12434
12324
12462
12157
12028
13795
18024
23627
24351
11488
7838
9580
10847
12042
12633
12981
13078
13347
13503
13812
13843
13904
14187
14529
14762
15010
15275
15647
16061
16487
17017
17435
17635
17574
17708
17406
16988
16027
15054
13990
12940
12025
11423
11088
11007
10902
11086
11215
11412
11415
11624
11663
11676
11638
11634
11757
11752
11828
11740
11932
11748
11808
11862
11915
12017
12020
11855
11836
12090
12641
12828
13019
13071
12927
12703
12646
12539
12299
12296
12239
12252
11968
13326
17477
23014
25004
13091
7601
9510
10681
11952
12520
13018
13374
13457
13553
13748
13938
14094
14306
14477
14566
14983
15396
15720
16146
16680
17111
17368
17652
17838
17753
17515
17056
16202
14888
13706
12642
11853
11304
11149
11045
10962
11007
11186
11230
11270
11317
11499
11561
11798
11827
11914
11815
11778
11686
11727
11872
11766
11872
11830
11720
11664
12047
12327
12831
13002
13048
12928
12703
12526
12514
12238
12310
12400
12377
12015
12439
15717
20448
25210
19004
7847
8831
10029
11249
12287
12825
13105
13363
13522
13717
13968
14050
14151
14346
14643
14796
15044
15508
15952
16454
16740
17464
17599
17700
17590
17526
17188
16217
15033
13878
12926
12189
11631
11337
11147
11067
10921
11122
11418
11433
11325
11447
11746
11801
11901
11845
11850
11777
11807
11973
11980
11797
11793
11832
11842
11792
12076
12516
12750
12907
12904
12846
12763
12685
12582
12448
12343
12418
12381
12030
12305
15729
20649
25581
19185
7908
8953
9986
11254
12351
13098
13255
13379
13491
13709
13740
14024
14109
14279
14477
14852
15207
15541
15964
16381
16899
17264
17585
17750
17765
17107
16764
16081
15118
13933
12972
12019
11607
11248
11129
10957
10977
11151
11401
11392
11458
11475
11614
11683
11761
11836
11872
11886
11814
11794
11868
11904
11864
11981
11993
11836
11798
12281
12700
13024
13145
13061
13058
12906
12783
12613
12349
12378
12425
12205
11766
12848
16938
22302
25448
14499
7659
9334
10390
11766
12614
12782
13072
13481
13607
13638
13897
14182
14184
14303
14477
14875
15155
15564
16005
16514
16976
17391
17486
17791
17592
17251
16737
15860
14716
13611
12667
11863
11414
11085
10961
11086
11249
11219
11314
11389
11562
11485
11597
11608
11716
11689
11669
11714
11789
11727
11806
11859
12056
12016
11969
12111
12085
11952
12008
12431
12849
13105
12969
12962
12900
12784
12599
12447
12330
12400
12248
11929
12282
15386
20363
25554
19481
7841
8849
10075
11574
12286
12997
13302
13372
13393
13714
13992
14026
14129
14343
14602
14985
15285
15581
15951
16492
17046
17453
17784
17726
17699
17450
17107
16321
15339
14227
13151
12149
11580
11226
11057
11062
11063
11134
11124
11233
11481
11544
11541
11752
11719
11737
11659
11583
11618
11603
11871
11897
11824
11988
11968
11867
11966
12103
11982
11851
12145
12626
13019
12962
12983
12924
12895
12810
12780
12478
12474
12546
12347
11791
13225
17149
22570
25484
14272
7766
9415
10621
11918
12659
12883
13268
13543
13660
13580
14085
14323
14454
14490
14691
14845
15330
16007
16260
16683
17199
17601
17915
17832
17591
17227
16734
16237
15061
13945
12969
12190
11580
11329
10958
10876
11064
11283
11325
11237
11299
11609
11683
11653
11662
11645
11798
11770
11765
11595
11811
11847
11844
11770
11816
11804
11829
12077
12408
12772
12969
12986
12923
12890
12749
12633
12414
12386
12396
12337
11938
12650
16478
21680
25396
16668
7395
9103
10081
11616
12709
13115
13256
13171
13331
13630
13855
14136
14144
14508
14829
15002
15422
15804
16373
16742
17117
17403
17567
17552
17452
17189
16793
16031
14999
13760
12686
12014
11471
11193
10898
10852
10914
10960
10968
11327
11393
11411
11493
11684
11772
11745
11740
11706
11812
11833
11870
11753
11988
11864
11852
11790
11938
12239
12479
12863
12988
12939
12804
12454
12528
12327
12151
12150
12196
11847
11810
14598
19107
24474
21786
9049
8346
9901
10844
12085
12777
13156
13215
13313
13592
15077
15302
15885
16411
16802
17223
17469
17624
17522
17358
16935
16249
15186
14086
13022
12231
11660
11317
11138
11065
11117
11319
11493
11572
11522
11614
11761
11775
11614
11791
12006
12006
12066
12303
12457
12053
11916
11850
11819
11964
12301
12695
12997
13077
13000
12850
12704
12646
12522
12399
12398
12401
11986
11898
14342
18811
24462
22385
9402
8563
9986
11160
12132
12730
12960
13159
13366
13627
13725
13815
14099
14234
14394
14824
15087
15509
15854
16265
16740
17112
17439
17646
17603
17343
17067
16292
15208
14107
13115
12141
11611
11378
11144
11045
11174
11278
11255
11219
11325
11298
11569
11774
11689
11703
11779
11858
11757
11773
11872
11795
11739
11904
11661
11714
12249
12706
12976
13053
12998
13018
12956
12686
12564
12366
12274
12307
12332
11991
12533
15973
21033
25684
17443
7618
9059
10286
11637
12420
12945
13205
13340
13440
13543
13683
13898
14019
14209
14631
14923
15213
15573
16077
16498
16868
17374
17614
17667
17513
17212
16799
16015
14959
13898
12950
12100
11579
11408
11160
11097
11193
11288
11377
11448
11481
11551
11774
11786
11859
11845
11815
11870
11920
11898
11952
12068
12084
12074
12076
11939
11862
12231
12665
12947
13052
13095
13163
13055
12737
12566
12447
12411
12521
12372
11955
12898
16658
22026
25713
15807
7611
9338
10449
11802
12610
12932
13200
13371
13563
13724
13810
14042
14318
14535
14725
15017
15406
15749
16183
16559
17062
17328
17490
17553
17413
17190
16750
15927
14803
13776
12749
11876
11387
11156
11051
11078
11056
11109
11193
11363
11471
11563
11656
11593
11681
11742
11764
11792
11796
11859
11835
11864
11871
11901
12052
11961
11856
11876
12312
12664
12889
12939
12917
12856
12637
12521
12441
12294
12272
12316
11972
12250
15021
19677
24897
21044
8617
8731
10294
11257
12239
12871
13191
13348
13569
13757
13934
14010
14190
14341
14630
15031
15247
15500
15960
16484
16924
17280
17532
17600
17603
17370
16894
16220
15233
14099
13186
12362
11732
11405
11220
11117
11115
11231
11334
11423
11504
11528
11700
11700
11819
11851
11839
11894
11934
11913
11981
11934
11890
11879
11967
11917
11993
12305
12725
12932
13025
12973
12895
12681
12272
12301
12342
12093
12477
12535
12228
14640
19123
24632
22164
9287
8488
9957
11099
12177
12917
13208
13326
13652
13816
13911
14040
14220
14396
14497
14879
15254
15612
15944
16470
16955
17213
17534
17618
17494
17169
16827
16175
15128
14249
13214
12283
11672
11238
11080
11071
11122
11250
11380
11408
11474
11705
11831
11675
11583
11732
11948
11919
11953
11861
11799
11843
11832
11794
11922
11968
11859
11807
12104
12591
12982
13158
13024
12821
12775
12488
12558
12499
12377
12500
12313
11863
12608
16169
21312
25671
16848
7664
9280
10404
12210
12808
13146
13312
13569
13659
13879
13948
14149
14424
14677
14816
15040
15370
15935
16314
16786
17222
17452
17712
17703
17607
17402
16957
16009
15217
14004
12990
12177
11676
11406
11234
11115
11260
11370
11527
11631
11651
11752
11775
11698
11787
11837
11925
11984
11902
11996
11921
11928
11904
11901
12003
11955
12004
12022
12249
12521
12881
13141
13279
13035
12947
12805
12701
12464
12487
12442
12487
12108
12298
15299
20217
25617
19899
7571
9212
10520
11996
12664
12988
13202
13434
13636
13695
13935
13940
14123
14246
14699
14944
15250
15451
15909
16483
17031
17309
17463
17678
17576
17318
16942
16192
15209
14180
13081
12208
11531
11252
11125
11067
10933
10950
11367
11459
11338
11483
11545
11659
11659
11645
11742
11833
11781
11643
11695
11752
11809
11741
11957
11945
11863
12016
12037
11842
11939
12501
12831
13081
13113
13109
13037
12907
12721
12685
12644
12600
12362
12114
12722
16100
21186
25825
17543
7805
9251
10580
11802
12739
13170
13433
13462
13532
13608
13874
14052
14178
14434
14746
15126
15195
15455
15738
16511
16719
17083
17702
17814
17484
17252
17276
16658
15609
14701
13687
12737
11924
11437
11257
11066
11148
11257
11341
11425
11533
11569
11724
11627
11693
11750
11766
11763
11809
11847
11733
11781
11811
11869
11778
11860
11958
12124
11969
11878
12132
12607
12912
13163
13028
12959
12847
12541
12638
12683
12537
12395
11956
12141
14703
19375
24798
21777
8785
8576
10124
11251
12351
12801
13137
13292
13528
13663
13906
13985
14204
14519
14603
14813
15093
15447
15897
16376
16662
17193
17489
17589
17574
17486
17017
16458
15757
14739
13565
12616
11826
11369
11120
10981
11141
11112
11215
11118
11323
11415
11517
11655
11759
11717
11812
11613
11762
11977
11903
11808
11935
11904
11854
11964
11731
11849
12191
12416
12657
13183
13039
12936
12652
12692
12539
12399
12211
12377
12190
11735
13294
17586
23098
24683
12369
7738
9590
10751
11942
12710
12845
13069
13565
13776
13734
13973
14219
14496
14617
14652
15100
15512
15874
16156
16563
17074
17439
17641
17571
17383
17026
16741
15918
15006
13891
12747
12132
11610
11011
11154
11046
11054
11171
11327
11272
11229
11522
11549
11556
11708
11692
11695
11803
11795
11879
11883
11852
11746
11905
11974
11845
11835
12173
12466
12970
13124
13064
12931
12549
12474
12437
12242
12377
12478
12197
11840
13604
17925
23699
24580
11465
7992
9552
10997
12218
12935
13152
13358
13407
13540
13644
13895
14086
14107
14221
14549
15022
15307
15669
16024
16537
17013
17297
17531
17665
17499
17139
16679
16074
15001
13900
12958
12126
11588
11156
11017
11193
11161
11365
11386
11446
11655
11692
11683
11759
11782
11812
11842
11938
11887
11831
11895
11919
11864
11956
11875
11650
11940
12491
12813
13143
13137
12981
12755
12787
12701
12421
12370
12399
12389
12134
12450
15616
20580
25555
18652
7426
8907
10278
11557
12427
13000
13299
13414
13534
13706
13932
14116
14304
14462
14705
14955
15228
15562
15900
16449
16857
17209
17419
17551
17493
17276
17016
16413
15508
14466
13431
12471
11708
11319
11171
11007
11022
11095
11108
11109
11317
11528
11665
11756
11690
11689
11735
11749
11729
11779
11882
11886
11844
11897
11836
11834
11969
12285
12619
12901
12850
12898
12875
12744
12522
12291
12255
12314
12113
11791
12607
16018
21043
25572
17493
7257
9137
10215
11529
12471
12895
13048
13312
13526
13602
13766
13940
14135
14442
14671
14841
15088
15429
15916
16287
16823
17271
17442
17398
17369
17274
16944
16300
15347
14281
13142
12182
11515
11377
11248
11155
11060
11040
11185
11464
11549
11592
11530
11556
11580
11808
11844
11783
11830
11815
11813
11781
11840
11800
11855
12010
12314
12559
12838
