10909
11105
11226
11272
11368
11498
11611
11589
11578
11747
11686
11681
11777
11837
11789
11736
11863
12061
11986
11933
11856
12129
12423
12906
13109
13067
12938
12874
12745
12640
12397
12316
12361
12129
11885
13753
18128
23829
24857
11768
7645
9678
10787
11898
12705
12988
13307
13473
13617
13757
14052
14296
14413
14502
14720
15090
15475
15860
16183
16706
17251
17721
17924
17883
17871
17540
16863
16129
14919
13747
12784
12015
11488
11121
10991
11006
11083
11086
11185
11236
11370
11509
11640
11671
11711
11779
11844
11859
11873
11855
11933
11840
11881
11971
12024
12006
12044
11924
12038
12524
13040
13267
13136
13131
13060
12991
12740
12521
12388
12434
12354
11995
12800
16735
22493
26002
16123
7360
8975
10294
11699
12604
12987
13151
13365
13567
13719
13855
14025
14221
14347
14545
14966
15226
15547
16059
16576
17105
17526
17839
17774
17756
17639
17230
16345
15331
14227
12729
11929
11450
11198
11037
10944
11042
11123
11189
11263
11395
11439
11567
11683
11683
11749
11781
11791
11832
11787
11738
11668
11812
11925
11842
11953
12126
12144
12052
11973
12313
12787
13148
13328
13259
13184
13010
12747
12626
12472
12425
12477
12268
11913
13680
18099
24244
25215
11798
7361
9395
10924
12114
12751
13059
13241
13467
13603
13716
13889
14045
14307
14494
14728
15035
15416
15710
16207
16724
17162
17535
17823
17870
17792
17370
16797
15913
14754
13586
12550
11870
11412
11168
11116
11087
11076
11246
11317
11379
11445
11560
11616
11697
11659
11698
11778
11883
11866
11818
11863
11799
11808
11882
11958
11913
12020
12019
11953
11865
12096
12550
12944
13151
13119
13110
13074
12889
12704
12459
12349
12319
12246
12011
13029
16874
22631
25965
15610
7060
8930
10359
11791
12623
12957
13173
13336
13562
13794
13894
14047
14220
14467
14690
14990
15286
15660
15969
16684
17181
17519
17753
17810
17674
17390
16940
16175
14972
13802
12850
12109
11508
11115
10920
10868
10974
11102
11186
11200
11357
11456
11560
11573
11589
11649
11712
11699
11754
11743
11818
11782
11865
11836
11802
11806
11790
11966
12301
12751
13004
12938
12941
12881
12633
12624
12426
12203
12371
12327
11939
12246
15383
20286
25584
20388
7943
8523
9987
11253
12346
12914
13171
13355
13664
13792
13882
13997
14199
14337
14539
14927
15177
15680
16104
16555
16981
17498
17795
17815
17680
17486
16964
16290
15208
14014
12886
11977
11433
11224
11070
10994
10964
10976
11232
11383
11579
11616
11656
11633
11740
11751
11816
11791
11769
11913
12007
11970
11969
12041
11986
11941
12124
12426
12798
13127
12995
13009
12995
12794
12595
12349
12289
12315
12299
11969
12205
15458
20585
25963
20394
7860
8630
9952
11388
12386
12947
13141
13361
13443
13677
13854
13962
14105
14341
14559
14974
15349
15754
16087
16580
17070
17490
17740
17795
17624
17408
16939
16025
15065
13977
12852
11969
11481
11196
11005
10882
10958
11042
11216
11289
11337
11397
11459
11617
11677
11807
11855
11843
11842
11901
11823
11791
11856
11916
11980
11963
11721
11815
12345
12822
13081
13122
13083
13046
12870
12648
12489
12336
12369
12368
12116
12029
14647
19503
25571
22480
8596
7984
9721
11231
12310
12882
13077
13224
13348
13588
13748
13995
14173
14439
14574
14854
15217
15643
16060
16539
16947
17442
17734
17855
17784
17602
17183
16441
15544
14443
13287
12180
11619
11291
11104
11109
11113
11123
11247
11373
11470
11458
11602
11638
11725
11647
11637
11672
11710
11761
11789
11753
11731
11919
11762
11784
11845
12293
12665
12874
12922
12913
12881
12661
12512
12302
12203
12260
12317
12060
12134
14405
18882
24420
22728
9157
7523
9482
10600
11771
12648
12970
13110
13271
13404
13747
13886
14136
14391
14554
14844
15253
15524
15917
16362
16916
17405
17704
17710
17705
17492
17135
16365
15387
14239
13158
12347
11726
11268
11070
11032
10992
10977
11001
11227
11261
11373
11501
11672
11818
11816
11789
11864
11804
11818
11943
12015
11915
11957
11903
12162
12500
12750
13023
12913
12948
12749
12581
12351
12291
12326
12344
12126
11928
13494
17813
23370
24780
12643
7058
9275
10290
11667
12489
12933
13020
13417
13634
13772
13760
14085
14360
14570
14770
15089
15450
15934
16456
16932
17388
17755
17814
17853
17613
17226
16584
15657
14527
13376
12460
11696
11305
11060
10938
10921
11080
11177
11310
11345
11426
11586
11645
11644
11798
11931
11852
11816
11890
11927
11832
11826
11825
12148
12511
12908
12962
12847
12776
12593
12476
12197
12166
12133
12276
12000
11795
13904
18747
24541
23723
10107
7582
9346
10508
11790
12635
13048
13263
13450
13529
13619
13757
14111
14358
14530
14713
15056
15511
15979
16446
16942
17395
17734
17727
17648
17490
17057
16204
15280
14233
13085
12149
11591
11286
11087
11047
10948
11069
11251
11280
11391
11596
11644
11704
11729
11758
11796
11818
11830
11952
11867
11813
11809
12045
12470
12820
12975
12950
12837
12653
12525
12291
12133
12052
12118
11927
11752
13370
17970
23840
25098
12306
7242
9180
10497
11848
12466
12894
13252
13381
13410
13661
13867
14009
14121
14272
14490
15137
15429
15841
16269
16822
17271
17511
17736
17700
17494
17066
16314
15331
14223
13094
12200
11619
11302
11091
10952
10981
11152
11185
11298
11398
11451
11507
11607
11692
11807
11848
11813
11757
11824
11865
11848
11808
12003
12419
12730
12907
12946
12930
12776
12525
12396
12168
12111
12200
12178
11744
12246
15671
21173
25958
18645
7274
8348
9777
11453
12388
12821
12968
13263
13457
13536
13670
13923
14148
14238
14488
14762
15126
15589
16057
16551
17087
17437
17644
17703
17607
17314
16779
15798
14754
13541
12611
11785
11381
11136
10931
10946
11058
11122
11170
11248
11374
11543
11603
11775
11770
11717
11729
11824
11693
11720
11810
11750
11790
11718
11882
12296
12605
12830
12840
12809
12781
12596
12404
12138
12146
12163
12147
11704
12195
15782
21270
26013
18988
7386
8409
9781
11179
12190
12782
13034
13255
13483
13617
13791
14015
14177
14309
14548
14843
15150
15500
16174
16676
17082
17503
17757
17704
17663
17484
16899
16007
14922
13812
12717
11938
11410
11178
10998
10862
11062
11204
11207
11414
11470
11555
11633
11678
11650
11680
11709
11650
11824
11776
11878
11861
11923
11911
11837
11732
12101
12547
12947
13099
12960
12865
12680
12639
12495
12335
12213
12256
11978
11788
13574
18056
23853
24673
11605
7391
9292
10441
11749
12576
13011
13188
13446
13565
13827
13895
14107
14339
14472
14664
15121
15576
15941
16353
16942
17398
17681
17730
17746
17565
17177
16475
15483
14350
13140
12177
11637
11322
11090
10977
10911
11143
11174
11315
11385
11521
11537
11603
11725
11763
11809
11806
11832
11843
11808
11857
11904
11891
11950
11961
11880
11798
11981
12364
12782
13035
12997
12958
12937
12742
12618
12373
12193
12245
12304
12024
11861
14526
19303
25439
22326
8779
7993
9560
11097
12281
12903
13235
13460
13614
13721
13790
14108
14294
14404
14854
15095
15325
15728
16159
16693
17106
17493
17703
17900
17899
17728
17251
16493
15384
14235
13117
12257
11718
11346
11193
11201
11210
11170
11269
11360
11416
11515
11598
11672
11672
11771
11858
11813
11829
11794
11882
11893
12007
12001
12006
12030
12088
12125
12195
12059
11960
12189
12639
13103
13280
13264
13176
13163
12951
12665
12454
12437
12486
12386
12027
12417
15490
20656
25973
19829
7551
8277
9996
11450
12404
13000
13220
13316
13574
13732
13892
14083
14238
14390
14747
15016
15316
15753
16142
16639
17097
17535
17786
17865
17792
17589
17191
16526
15446
14240
13162
12316
11675
11246
11129
11077
10988
11171
11336
11370
11527
11562
11493
11584
11779
11823
11835
11781
11749
11834
11857
11793
11874
11876
11918
11862
11866
12025
12019
11992
12077
12161
12045
12149
12536
13010
13256
13259
13268
13225
12949
12775
12632
12531
12569
12576
12203
12125
14522
19294
25245
18433
7526
8663
10252
11700
12567
12962
13264
13442
13651
13694
13885
14149
14304
14397
14645
14947
15179
15595
16027
16538
16958
17438
17720
17928
17949
17762
17469
16816
15853
14796
13588
12680
11913
11456
11237
11103
11103
11124
11204
11341
11430
11457
11543
11485
11524
11653
11705
11709
11689
11655
11605
11796
11834
11790
11798
11792
11746
11821
11880
11954
11795
12048
12493
12921
13188
13160
13066
12938
12766
12658
12427
12451
12482
12229
11987
13736
18007
23787
24782
11936
7599
9506
10753
12075
12882
13173
13390
13565
13685
13757
13994
14077
14341
14605
14833
15080
15431
15755
16203
16720
17110
17547
17773
17880
17682
17406
16961
16170
15086
14063
12959
12078
11432
11285
11187
11086
11126
11142
11297
11390
11393
11477
11553
11671
11760
11802
11769
11771
11840
11879
11824
11926
12000
11974
12006
12135
12158
12103
11907
12258
12668
13132
13264
13165
13046
13194
12941
12642
12465
12514
12596
12338
11963
13668
18035
24035
24824
11470
7268
9375
10906
12084
12815
13197
13408
13621
13715
13850
13972
14128
14447
14580
14817
15009
15460
15828
16320
16843
17213
17562
17880
17976
17860
17591
17031
16343
15230
14100
13021
12180
11525
11263
11111
11143
11161
11168
11341
11451
11523
11533
11602
11565
11625
11718
11746
11733
11781
11752
11808
11802
11817
11794
11823
12032
11941
11964
11946
12310
12723
13126
13074
13010
12893
12781
12603
12417
12395
12418
12378
12064
12268
15224
20097
25714
20244
7518
8060
9941
11497
12470
12986
13231
13425
13587
13708
13850
14029
14214
14487
14668
14889
15243
15609
16014
16449
16944
17410
17752
17808
17835
17680
17383
16804
15927
14781
13638
12614
11969
11468
11213
11143
11273
11264
11291
11324
11415
11525
11553
11696
11686
11746
11777
11849
11844
11845
11709
11723
11807
11856
11843
11934
11891
11824
12282
12619
12972
13259
13135
12953
12805
12674
12478
12331
12375
12352
12135
12164
14596
19074
24927
23256
9491
7593
9632
11204
12346
12902
13129
13405
13540
13771
13897
14014
14162
14359
14587
14816
15077
15512
15893
16338
16915
17359
17663
17890
17865
17665
17380
16885
15905
14822
13741
12696
11942
11443
11166
10985
11016
11096
11207
11295
11287
11381
11521
11543
11617
11600
11667
11749
11788
11808
11741
11792
11744
11872
11805
11847
11901
12208
12566
12894
12946
12858
12832
12617
12395
12238
12201
12211
12256
12035
12237
15202
20105
25498
20429
7684
8431
9796
11113
12194
12881
13168
13392
13540
13685
13839
13969
14137
14361
14653
14851
15184
15582
15976
16482
16976
17350
17680
17705
17715
17479
17171
16536
15683
14530
13312
12302
11689
11308
11080
10924
10977
11110
11176
11265
11400
11537
11628
11712
11805
11787
11732
11795
11831
11834
11831
11817
11984
11993
11948
11871
12148
12511
12864
13067
13094
12965
12826
12744
12497
12266
12322
12366
12228
11957
13202
17245
22965
25604
13895
7089
9170
10464
11818
12741
13053
13156
13375
13575
13733
13949
13978
14213
14473
14665
14872
15191
15562
16070
16502
17048
17502
17744
17793
17607
17327
16850
16091
14980
13775
12785
11987
11434
11280
11115
10993
11016
11195
11261
11255
11408
11574
11704
11702
11760
11736
11748
11749
11760
11817
11809
11789
11904
11896
11914
11807
11792
11908
12370
12695
13028
13011
12962
12894
12620
12439
12376
12269
12282
12216
11907
12461
15835
21275
25936
18035
7179
8519
10178
11615
12490
13003
13200
13373
13498
13687
13845
13981
14199
14368
14701
14921
15311
15580
16030
16503
16984
17321
17532
17652
17683
17446
17069
16464
15429
14293
13343
12456
11603
11336
11196
11104
11130
11171
11240
11337
11477
11511
11560
11601
11608
11692
11750
11785
11765
11693
11730
11708
11675
11776
11949
11756
11634
11755
12135
12742
13108
13107
13040
12921
12631
12425
12214
12192
12304
12207
11928
12243
15321
20329
25762
20047
7303
8051
9917
11372
12440
13097
13331
13451
13511
13568
13822
14022
14185
14303
14517
14828
15257
15556
15929
16244
16896
17254
17610
17752
17775
17532
17352
16742
15766
14590
13420
12519
11814
11455
11251
11012
11029
11231
11326
11410
11329
11482
11578
11682
11696
11699
11769
11873
11694
11761
11771
11784
11758
11877
11977
11975
11800
11781
12236
12721
13000
13055
13101
13017
12786
12520
12385
12342
12361
12320
12139
11995
13920
18457
24334
24027
10393
7306
9366
10948
12121
12816
13076
13268
13486
13621
13668
13920
14067
14281
14439
14752
15087
15433
15818
16274
16757
17214
17570
17785
17941
17739
17394
16837
16056
14889
13950
12928
11994
11491
11313
11017
10918
11025
11180
11230
11451
11499
11627
11824
11745
11765
11827
11870
11728
11770
11758
11822
11868
11998
11897
11928
11816
12092
12434
12810
13028
13097
13040
12856
12689
12524
12291
12243
12291
12166
11943
12997
16979
22581
25695
14715
7005
8955
10386
11741
12485
13036
13303
13517
13646
13855
13944
14070
14263
14537
14713
15054
15303
15735
16267
16744
17200
17590
17743
17765
17665
17466
17080
16134
15131
14012
12990
12119
11550
11247
11086
10937
11036
11063
11158
11287
11444
11558
11710
11823
11805
11806
11878
11892
11911
11860
11829
11855
11910
11998
11858
11860
11989
12347
12716
13008
13078
12993
12901
12808
12601
12492
12425
12352
12380
12197
12075
14188
18765
24744
23578
9676
7527
9584
11214
12211
12828
13082
13222
13365
13627
13721
13754
14131
14270
14451
14723
15003
15338
15817
16250
16763
17281
17536
17801
17986
17730
17420
16802
15936
14878
13753
12703
11787
11458
11240
11086
11039
11154
11249
11348
11399
11485
11611
11681
11731
11745
11711
11832
11792
11700
11744
11865
11943
11908
11812
11897
11962
11879
11780
12039
12604
12942
13047
12916
12933
12905
12769
12522
12363
12292
12343
12245
11900
13154
17218
22920
25351
13593
7036
9100
10685
11959
12637
13016
13192
13349
13553
13730
13864
14133
14230
14388
14658
14978
15366
15749
16207
16591
17124
17465
17870
17923
17795
17525
17088
16375
15414
14191
13103
12196
11500
11134
10942
10959
11039
11097
11188
11228
11298
11421
11548
11640
11613
11631
11672
11747
11701
11832
11720
11723
11863
11904
11892
11772
11752
11924
12368
12790
13016
12949
12996
12861
12663
12543
12354
12234
12359
12211
11951
12529
16114
21303
25834
17870
7069
8784
10003
11408
12384
12812
12933
13340
13497
13742
13807
14015
14260
14456
14610
14905
15197
15574
16077
16580
17167
17690
17968
17955
17895
17606
17242
16452
15517
14275
13065
12270
11811
11235
11022
10884
11018
11139
11239
11269
11383
11421
11601
11640
11711
11723
11732
11785
11833
11802
11781
11909
11872
11920
11990
11972
11923
12032
12309
12756
13011
13098
13021
12846
12866
12652
12441
12354
12404
12404
12120
12035
14552
19039
24777
22689
9265
7926
9770
11071
12187
12863
13149
13373
13559
13786
13837
13964
14271
14449
14599
14966
15252
15666
15958
16436
16985
17433
17835
18049
18064
17871
17526
16897
15924
14832
13716
12287
11809
11434
11169
10963
10962
11239
11368
11306
11438
11670
11734
11787
11782
11655
11886
11878
11787
11837
11864
11921
11858
11848
11716
11800
11921
12058
11961
11939
12017
12568
12938
13165
13164
13089
12935
12766
12644
12525
12404
12390
12481
12152
12311
15127
19979
25564
20814
8099
8374
9998
11343
12342
13025
13258
13376
13571
13695
13861
14024
14335
14406
14631
14913
15224
15609
15937
16428
16939
17439
17787
17915
17962
17850
17312
16447
15479
14375
13191
12360
11792
11333
11145
11093
11061
11155
11154
11361
11459
11466
11539
11722
11704
11670
11824
11870
11810
11838
11822
11841
11884
11785
11858
11975
11944
11951
12203
12129
12068
12216
12614
13011
13218
13156
13061
12985
12926
12696
12557
12496
12449
12662
12321
12379
15247
20313
25802
20585
7891
8258
9958
11463
12445
13040
13331
13484
13627
13756
13967
14136
14273
14306
14548
14958
15270
15691
16096
16628
17155
17504
17815
18039
17938
17684
17328
16587
15549
14333
13231
12311
11715
11304
11207
11189
11036
10954
11064
11329
11459
11566
11631
11583
11624
11817
11795
11734
11766
11769
11822
11962
11887
11874
11890
11955
11995
11996
12014
12022
12103
12140
12159
11974
12276
12673
13076
13295
13419
13327
13245
13108
12893
12620
12484
12601
12492
12376
13104
16757
22279
25965
16741
7425
9115
10693
12014
12724
13147
13340
13417
13606
13943
14188
14247
14313
14568
14856
15138
15376
15841
16279
16723
17131
17652
17844
17911
17869
17637
17178
16348
15323
14194
13034
12164
11639
11316
11180
11072
10951
10995
11223
11315
11361
11391
11569
11591
11647
11743
11787
11835
11746
11761
11736
11669
11874
11924
11895
11923
11903
12056
12040
12065
11962
12258
12621
12946
13052
13086
13039
12795
12711
12579
12465
12410
12464
12125
11956
13783
18018
23704
24496
11658
7642
9796
10717
12204
12836
13072
13293
13427
13666
13889
14184
14270
14376
14477
14841
15225
15560
15994
16496
17092
17472
17797
17912
17954
17832
17416
16763
15865
14769
13626
12510
11759
11295
11117
10988
11032
11044
11135
11274
11279
11375
11438
11667
11656
11746
11846
11872
11808
11970
11960
11813
11819
11908
11862
11906
12134
11899
11865
11988
12347
12737
13102
13137
13012
13004
12943
12697
12447
12333
12412
12481
12190
11871
13912
18353
24375
19784
7714
8724
10175
11620
12564
13118
13252
13428
13496
13661
13775
14041
14143
14363
14656
14890
15159
15489
15907
16434
16904
17383
17723
17899
17896
17636
17397
16739
15808
14676
13451
12381
11804
11300
11036
10987
11038
11085
11126
11235
11303
11535
11600
11632
11636
11726
11763
11831
11794
11849
11859
11840
11839
11932
11905
11919
11962
12096
12103
11998
11840
12222
12809
12959
13201
13197
13173
12999
12828
12658
12531
12446
12501
12206
12128
14017
18350
24413
23997
10429
7604
9662
11186
12227
12851
13222
13413
13635
13706
13789
14047
14230
14283
14559
14835
15088
15463
15829
16252
16734
17275
17620
17851
17815
17773
17531
17053
16256
15301
14101
12993
12143
11644
11228
11085
11049
11079
11097
11190
11354
11361
11372
11549
11654
11656
11694
11543
11687
11760
11868
11793
11792
11843
11922
11848
11840
12007
12033
11863
11919
12420
12823
13151
13171
13280
13097
12773
12644
12407
12305
12456
12378
12042
12832
16451
22050
25880
16071
7025
8879
10446
11770
12593
12966
13188
13412
13608
13792
13879
14024
14208
14445
14638
14885
15183
15637
16005
16566
17111
17572
17799
17873
17822
17564
17205
16558
15637
14429
13352
12331
11705
11252
11014
10932
10933
10949
11131
11231
11387
11481
11536
11687
11690
11506
11603
11753
11771
11792
11772
11901
11907
11917
11960
12011
11812
11781
12156
12481
12827
13074
12934
12920
12757
12649
12384
12270
12357
12412
12267
12079
13668
17811
23462
24405
11554
7292
9601
10712
11932
12672
13110
13242
13352
13418
13657
14031
14176
14248
14496
14942
15140
15386
15758
16269
16680
17130
17552
17957
18050
17970
17572
16854
16145
15233
14077
12977
12060
11390
11142
10918
10947
10891
10992
11072
11241
11331
11447
11544
11550
11661
11771
11636
11666
11807
11702
11702
11750
11837
11746
11795
11799
11821
11755
12495
12833
13141
13042
12981
12807
12627
12599
12397
12374
12310
12184
12011
12764
16170
21369
25828
17195
7327
8964
10165
11588
12540
13032
13189
13470
13583
13755
13902
14025
14118
14196
14559
14960
15303
15624
16053
16536
16989
17366
17665
17744
17703
17428
17239
16532
15445
14227
13262
12258
11530
11294
11048
10939
10892
11062
11237
11386
11389
11502
11648
11699
11607
11664
11629
11743
11861
11939
11820
11818
12007
11954
11887
12043
11924
11749
12217
12753
13017
13219
13109
12981
12919
12640
12462
12361
12349
12320
12198
12097
13644
17582
23509
25150
12516
7219
9321
10850
12026
12835
13050
13303
13468
13596
13651
13861
14074
14337
14440
14624
15033
15382
15678
16104
16635
17190
17514
17700
17679
17587
17456
16904
16013
15212
14221
13077
12138
11431
11210
11003
11026
11045
11262
11345
11429
11447
11327
11498
11636
11861
11858
11844
11806
11866
11821
11781
11738
11791
11806
11867
11970
12046
11933
11896
12332
12952
13064
13087
13062
12962
12750
12693
12514
12412
12416
12494
12275
12173
14377
18826
24747
22865
9283
7683
9816
11338
12382
12878
13144
13344
13532
13688
13930
14057
14210
14429
14629
14922
15184
15505
15950
16354
16962
17411
17636
17792
17780
17689
17403
16860
16034
14950
13995
12884
12013
11420
11316
11193
11124
11145
11285
11336
11377
11581
11698
11671
11672
11702
11714
11848
11874
11757
11721
11722
11782
11843
11847
11923
11841
11848
11871
12371
12778
13099
13084
12943
12876
12805
12701
12418
12287
12381
12406
12200
12325
14882
19582
25030
21662
8339
8026
9744
11118
12250
12918
13138
13300
13377
13442
13700
14033
14156
14235
14484
14918
15273
15480
15872
16314
16913
17327
17718
17770
17608
17595
17460
16708
15743
14722
13600
12555
11740
11229
11230
11153
10841
10970
11168
11264
11245
11338
11362
11648
11656
11857
11810
11671
11625
11744
11715
11750
11724
11747
11923
12024
11916
11709
11950
12355
12931
13118
13008
12905
12837
12750
12635
12341
12223
12494
12503
11967
12540
15918
21137
25793
17715
7335
8934
10253
11673
12516
12973
13291
13348
13533
13780
13942
14129
14382
14390
14588
14886
15061
15555
16144
16547
17020
17443
17695
17717
17677
17559
17095
16423
15399
14310
13154
12198
11600
11117
11039
11104
11099
11145
11173
11333
11523
11581
11505
11635
11701
11876
12014
11915
11802
11884
11970
11842
11764
11764
11897
12072
12133
11971
11977
12535
12985
13015
13120
13180
13034
12881
12749
12552
12388
12297
12323
12166
12146
14929
20097
25794
20724
7810
8152
9935
11463
12450
13002
13280
13461
13637
13754
13818
13945
14076
14340
14565
14936
15211
15455
15987
16411
16664
17234
17707
17784
17793
17611
17292
16649
15777
14693
13577
12559
11904
11384
11135
11092
11057
11085
11186
11332
11491
11469
11537
11604
11751
11696
11690
11846
11862
11842
11821
11899
11887
11872
11987
11863
11885
12047
12064
11944
12244
12752
12996
13115
13134
13111
12940
12608
12566
12439
12359
12304
12327
12145
13822
18036
23948
24431
11317
7238
9464
11141
12243
12799
13008
13345
13510
13699
13860
14040
14216
14407
14581
14810
15120
15307
15795
16388
16670
17032
17618
17828
17853
17817
17556
17041
16304
15316
14252
13126
12244
11502
11222
11161
11205
11169
11268
11330
11376
11480
11593
11699
11828
11797
11816
11796
11695
11748
11894
11859
11859
11847
11865
12020
12034
12061
12002
11914
12300
12801
13053
13179
13112
12998
12828
12749
12499
12401
12432
12383
12264
12168
14108
18400
24065
24150
10967
7140
9510
10827
12081
12769
13072
13267
13392
13564
13727
13909
14022
14190
14418
14628
14937
15379
15708
16121
16617
17245
17622
17825
17749
17714
17390
16851
16112
14654
13600
12556
11712
11323
11166
11084
11030
11010
11065
11308
11369
11399
11504
11480
11751
11847
11883
11859
11736
11652
11895
11856
11824
11793
11863
11805
11772
12007
12271
12594
12858
12977
12880
12956
12719
12553
12310
12144
12174
12336
12225
12098
14142
18436
23759
23328
10392
7472
9610
10726
11896
12709
13129
13240
13480
13599
13762
13858
14118
14299
14489
14838
15138
15356
15715
16344
16813
17298
17678
17920
17800
17698
17122
16622
15548
14504
13353
12377
11661
11345
11072
11030
10883
11040
11168
11131
11284
11551
11643
11674
11695
11659
11763
11816
11833
11721
11937
11908
11920
11987
11980
11842
11766
11968
12374
12834
13025
13023
12962
12801
12613
12486
12257
12218
12331
12348
11992
13031
16625
22249
25691
15128
6967
9022
10343
11651
12542
12962
13168
13285
13677
13831
14033
14116
14251
14442
14648
14884
15142
15426
15924
16591
17147
17525
17769
17752
17597
17309
16746
15766
14646
13632
12613
11938
11461
11115
10989
10986
10943
11164
11239
11295
11305
11438
11620
11608
11662
11742
11829
11939
11843
11772
11749
11697
11741
11997
12068
12001
11827
11947
12545
12929
13153
12970
13011
12989
12757
12617
12449
12361
12381
12371
12020
12674
16350
22056
25855
16046
6892
8789
10377
11729
12596
13053
13217
13344
13463
13740
13963
14042
14222
14335
14566
14927
15419
15556
16016
16399
16999
17550
17684
17722
17577
17346
16942
16036
14989
13869
12876
12115
11529
11264
11147
11054
10955
11115
11342
11371
11570
11737
11676
11755
11733
11754
11760
11826
11803
11773
11803
11922
11941
11882
11955
12045
11998
11948
11957
12376
12911
13192
13207
13044
12973
12855
12864
12671
12451
12414
12468
12228
12115
14210
18562
24401
23436
9824
7427
9564
11068
12225
12932
13186
13224
13500
13795
14037
14111
14217
14377
14641
14887
15132
15388
16130
16658
17075
17470
17710
17848
17827
17678
17330
16740
15740
14670
13490
12591
11941
11551
11301
11284
11183
11167
11121
11272
11508
11529
11603
11693
11662
11698
11790
11799
11811
11760
11857
11868
11881
11802
11882
11827
11755
11915
12326
12733
13044
13076
12958
12919
12660
12516
12289
12218
12181
12219
11928
12052
14588
19226
24860
22722
9114
7898
9812
11005
12073
12686
13035
13292
13510
13526
13684
13870
14125
14284
14457
14896
15240
15542
16043
16434
17012
17446
17706
17848
17772
17518
17105
16455
15455
14298
13059
12177
11588
11251
10970
11015
11007
11121
11104
11160
11299
11404
11513
11577
11701
11720
11786
11878
11833
11853
11920
11930
11906
11940
11884
11795
11907
12269
12705
12955
12909
12787
12859
12810
12570
12412
12229
12337
12281
12061
12041
14081
18405
24223
23625
10449
7691
9574
10719
11901
12758
13101
13270
13419
13702
13810
13962
14092
14249
14524
14884
15195
15477
15971
16501
16969
17413
17631
17837
17780
17595
17170
16496
15467
14363
13142
12336
11780
11383
11149
11008
10960
11001
11189
11346
11417
11360
11518
11609
11752
11764
11866
11942
11954
11844
11859
11966
12015
11903
11940
11893
11824
11958
12360
12846
13099
13077
12961
12863
12721
12558
12374
12281
12306
12337
11979
12048
14653
19414
25308
21761
8404
8074
9768
11142
12319
12853
13096
13193
13319
13573
13799
13969
14059
14341
14613
14875
15243
15592
16068
16549
17019
17460
17616
17815
17782
17547
16972
16240
15227
14156
13085
12272
11618
11352
11150
11094
11064
11131
11230
11360
11434
11521
11587
11557
11739
11830
11883
11960
11938
11831
11842
11889
11935
11882
11994
11995
11890
11817
12257
12725
12997
13145
13057
13079
12948
12702
12442
12357
12276
12393
12168
11893
13355
17502
23340
25138
12644
7189
9327
10725
11994
12668
13017
13149
13440
13665
13784
13892
14103
14254
14534
14788
15183
15446
15850
16302
16775
17309
17582
17746
17769
17556
17298
16691
15724
14697
13587
12649
11837
11409
11108
11041
11055
11131
11126
11300
11359
11472
11519
11607
11774
11772
11696
11757
11853
11800
11789
11767
11898
11896
11923
11879
11972
11982
11893
11918
12255
12695
12935
13180
13159
13094
12944
12774
12569
12435
12427
12468
12375
12207
13554
17658
23490
25318
12958
7317
9390
10787
12341
12893
13037
13348
13629
13750
13888
13985
14141
14351
14562
14859
15276
15582
15990
16396
16827
17229
17665
17778
17867
17661
17331
16775
15852
14763
13700
12633
11858
11392
11187
11114
11001
11084
11171
11321
11393
11503
11564
11685
11676
11681
11608
11754
11850
11778
11747
11733
11738
11848
11972
11936
12030
11969
11893
11798
12232
12742
13064
13079
12965
12911
12815
12611
12423
12398
12360
12454
12176
12031
14294
18840
24553
19095
7419
8771
10095
11457
12488
13029
13191
13348
13540
13749
13930
14059
14227
14454
14675
15035
15227
15608
16070
16429
17019
17431
17816
17855
17770
17618
17332
16509
15522
14441
13331
12462
11799
11328
11101
11015
10989
11013
11079
11244
11397
11459
11461
11614
11623
11680
11759
11760
11740
11834
11844
11877
11883
12017
12009
11995
12016
11938
11941
12079
12535
12964
13178
13115
13133
13025
12847
12505
12389
12526
12561
12439
12029
13354
17458
23479
25348
12956
7300
9360
10660
12026
12788
13112
13288
13496
13634
13817
13917
14078
14194
14519
14699
15007
15402
15800
16240
16745
17219
17586
17790
17790
17808
17558
17020
16140
15057
13898
12851
12014
11432
11186
11045
10944
10956
11082
11159
11285
11349
11390
11473
11707
11702
11730
11704
11772
11743
11797
11885
11904
11790
11847
11990
11954
11962
12027
12056
11875
11892
12409
12948
13151
13156
13086
13160
13006
12785
12451
12391
12387
12287
12119
12509
15516
20575
25889
19487
7519
8418
10145
11672
12589
13022
13242
13433
13523
13600
13909
14049
14218
14408
14645
14868
15194
15540
16013
16479
16933
17379
17656
17769
17752
17599
17252
16670
15706
14687
13587
12594
11832
11506
11256
11132
11087
11120
11252
11335
11415
11474
11562
11595
11697
11734
11774
11797
11893
11861
11869
11832
11906
11911
11937
11935
12006
12070
12017
11965
12090
12606
13120
13178
13192
13146
13068
12836
12712
12584
12439
12476
12445
12153
12892
16442
21879
25919
16803
7105
8793
10409
11891
12784
13226
13319
13504
13666
13836
13966
14108
14301
14538
14710
14940
15307
15582
16052
16683
17182
17605
17791
17876
17860
17690
17367
16671
15586
14457
13399
12377
11758
11379
11152
11061
11030
11003
11072
11149
11260
11408
11536
11578
11675
11666
11550
11616
11754
11994
11893
11867
11875
11894
11903
12001
11881
11858
12303
12747
12878
12930
12959
12924
12663
12532
12372
12240
12226
12223
11907
12116
15021
19662
25158
21122
8180
8196
9936
11189
12255
12781
13159
13220
13483
13599
13836
14041
14241
14459
14587
14840
15019
15489
15853
16335
16875
17411
17677
17818
17795
17679
17291
16644
15619
14459
13370
12351
11679
11254
10993
10909
10962
10929
10964
11033
11239
11349
11473
11537
11603
11688
11749
11710
11769
11803
11818
11810
11799
11873
11894
11819
12175
12682
12958
12964
12950
12822
12632
12350
12256
12255
12347
12369
12062
12010
14375
18913
24814
22583
9030
7990
9748
11089
12174
12899
13036
13324
13524
13609
13765
14051
14192
14369
14547
14847
15067
15492
15868
16246
16869
17290
17624
17726
17731
17613
17308
16611
15661
14546
13409
12427
11734
11289
11065
10999
10930
11032
11107
11265
11344
11454
11543
11749
11750
11801
11874
11891
11720
11891
11953
11865
11863
11958
12069
12045
11914
11794
12193
12710
13011
13095
13013
13062
13036
12711
12479
12292
12316
12377
12184
11968
13982
18370
24443
23981
10414
7649
9654
11094
12183
12813
13124
13304
13428
13628
13767
13938
14104
14323
14464
14764
15035
15386
15785
16226
16772
17236
17542
17791
17813
17662
17326
16837
15975
14924
13830
12698
11978
11528
11293
11118
11052
11037
11180
11384
11448
11499
11630
11705
11771
11750
11761
11946
11961
11897
11808
11915
11912
11924
11945
11948
11790
11858
12282
12915
13168
13047
12930
12856
12645
12579
12379
12293
12296
12288
12082
12299
15128
19999
25596
20772
7813
8097
9920
11340
12407
12924
13127
13282
13431
13653
13810
13952
14143
14375
14464
14833
15213
15538
15820
16294
16788
17272
17504
17735
17693
17574
17349
16699
15702
14585
13457
12548
11879
11348
11082
11067
11004
11000
11122
11217
11430
11525
11543
11526
11545
11592
11685
11784
11723
11854
11880
11909
11862
11909
11964
11896
11827
12154
12596
12976
13058
12992
12849
12868
12645
12472
12285
12281
12340
12189
12168
13770
17919
23551
25039
12440
7247
9488
10687
11884
12639
12924
13280
13439
13574
13608
13898
14077
14272
14481
14695
15053
15376
15725
16127
16691
17086
17581
17846
17879
17589
17282
16849
16159
14970
13746
12705
11884
11451
11202
11059
10982
10987
11012
11250
11246
11403
11436
11467
11541
11705
11744
11776
11773
11779
11738
11910
11851
11998
11939
11851
11929
12315
12733
13089
13113
12925
12809
12641
12436
12205
12306
12276
12218
11831
12370
15571
20586
25657
18810
7434
8767
10023
11302
12334
12976
13182
13281
13403
13563
13780
13775
14162
14414
14622
14807
15201
15535
15960
16437
16927
17305
17639
17705
17684
17487
16963
16278
15240
14106
13026
12235
11612
11238
11043
10985
10952
11014
11196
11275
11297
11353
11524
11668
11781
11775
11790
11905
11834
11801
11815
11881
11936
11948
11921
11778
12204
12599
12883
12985
12936
12897
12752
12426
12267
12240
12268
12244
12077
11813
13700
18115
23945
24227
10926
7574
9541
10859
11950
12719
12966
13265
13426
13569
13709
13941
14050
14261
14554
14775
15026
15380
15838
16167
16782
17069
17521
17758
17802
17593
17384
16771
15786
14721
13737
12658
11805
11458
11206
11094
11130
11095
11132
11217
11391
11512
11642
11711
11668
11798
11784
11908
11914
11871
11975
11921
11953
12036
12037
11947
11891
11845
12338
12783
13098
13175
13176
12978
12901
12737
12596
12443
12394
12354
12188
12037
13996
18477
24479
23729
10051
7423
9580
11076
12139
12883
13103
13268
13385
13663
13754
13948
14090
14344
14510
14760
15096
15386
15823
16271
16809
17221
17568
17732
17923
17749
17452
16830
15965
14766
13772
12847
12084
11656
11343
11075
11019
11049
11120
11285
11413
11530
11543
11610
11703
11820
11872
11844
11776
11877
11886
11955
11916
11956
11957
12032
12054
12125
12174
12106
11936
12185
12703
13109
13243
13133
13088
12933
12872
12704
12565
12539
12525
12415
12167
13094
16807
22403
25764
15438
7034
9003
10674
12065
12745
13045
13251
13651
13728
13870
13888
14091
14321
14535
14759
15126
15419
15792
16240
16709
17179
17613
17873
17936
17888
17645
17281
16459
15470
14383
13214
12332
11843
11390
11168
10981
11076
11156
11307
11290
11435
11514
11601
11661
11680
11807
11798
11843
11853
11850
11795
11815
11834
11934
11916
11994
12040
12017
11977
11951
12290
12726
13038
13180
13057
12971
12941
12750
12659
12451
12420
12434
12354
12172
13777
17765
23330
24791
12418
7144
9510
10534
11824
12742
13114
13298
13412
13643
13715
13863
14091
14238
14351
14509
15011
15421
15668
16126
16697
17174
17611
17859
17835
17636
17412
16936
16190
15113
13923
12812
11808
11229
10921
10892
10942
10887
10990
11143
11392
11482
11537
11532
11704
11778
11701
11810
11817
11755
11628
11833
11893
11753
11778
12048
12140
12071
11975
12244
12615
12973
13004
13104
13016
12911
12707
12489
12383
12403
12427
12122
11990
13402
17378
23039
25274
13221
7209
9188
10538
11900
12727
12976
13368
13633
13828
13887
13963
14072
14166
14512
14786
14946
15318
15746
16173
16785
17269
17591
17710
17877
17803
17391
16985
15817
14702
13677
12610
11964
11417
11065
10984
10921
10998
11077
11145
11226
11330
11542
11648
11626
11672
11733
11795
11822
11793
11726
11829
11830
11876
11966
11971
11959
11903
11851
11876
12357
12839
13110
12994
12900
13005
12895
12667
12427
12379
12391
12418
12046
12219
15133
20067
25585
20538
7753
8230
9961
11474
12438
13010
13275
13505
13605
13823
13947
13994
14213
14398
14488
14795
15210
15525
15875
16299
16890
17394
17818
17864
17831
17595
17224
16486
15517
14368
13283
12322
11794
11388
11050
10963
11017
11098
11146
11297
11452
11509
11631
11749
11709
11730
11640
11783
11802
11746
11756
11734
11706
11917
12000
12049
11980
11868
11954
12474
12946
13147
13095
13082
13039
12804
12803
12518
12424
12343
12437
12175
12344
14979
19719
25308
21133
8104
8086
9958
11495
12505
12900
13194
13451
13545
13728
13862
13914
14010
14294
14636
14778
15110
15404
15881
16386
17025
17512
17873
17963
17702
17544
17236
16521
15536
14490
13237
12312
11674
11337
11013
10937
10904
11063
11284
11389
11394
11449
11578
11610
11584
11677
11726
11737
11796
11841
11920
11817
11798
11857
11939
11823
11768
11963
12362
12728
12847
13016
13086
12919
12633
12439
12243
12330
12371
12308
12039
12961
16582
21870
25647
15850
6967
9010
10293
11613
12596
12966
13168
13391
13534
13547
13630
14056
14283
14423
14703
14948
15289
15643
16306
16728
17270
17504
17801
17821
17779
17452
16818
15921
14785
13683
12589
11840
11345
11094
10929
10819
10843
11066
11182
11348
11398
11601
11694
11812
11825
11802
11779
11830
11788
11811
11854
11860
11977
11906
11834
11807
12120
12448
12774
12984
12876
12895
12704
12508
12467
12301
12339
12293
12133
11856
12858
16753
22265
25694
15062
7085
9079
10286
11668
12670
12987
13158
13373
13495
13668
13816
13944
14214
14508
14663
14923
15333
15718
16227
16728
17206
17596
17793
17778
17615
17514
16876
15887
14669
13536
12591
11906
11377
11199
11024
10906
11089
11153
11261
11355
11485
11485
11621
11768
11850
11822
11876
11899
11834
11974
12018
11924
11988
11961
11992
12103
12041
12281
12558
13019
13204
13138
13014
13040
12685
12500
12279
12367
12383
12322
11861
12748
16372
21811
25896
16576
7089
8877
10350
11713
12691
13012
13191
13415
13598
13671
13849
14109
14333
14577
14793
15034
15486
15891
16233
16643
17171
17587
17795
17708
17532
17355
16931
16239
15092
13959
12913
12109
11461
11168
11139
11062
10996
11162
11305
11397
11529
11558
11558
11500
11758
11821
11891
11855
11711
11715
11886
11856
11928
11965
11872
11761
11864
12284
12666
12993
13103
12960
12907
12838
12621
12447
12179
12341
12435
12222
11994
13282
17225
23008
25178
13167
6785
9081
10729
11961
12719
13096
13279
13336
13482
13693
13854
14146
14245
14492
14851
15120
15440
15857
16305
16698
17141
17474
17608
17742
17637
17245
16765
16059
14918
13797
12809
12038
11544
11282
11099
11178
11097
11177
11380
11498
11486
11623
11745
11737
11791
11883
11855
11843
11773
11840
11842
11836
11944
11945
11855
11710
11973
12341
12741
12964
13037
12900
12889
12710
12564
12376
12229
12228
12356
12144
12251
14790
19399
25067
21799
8415
7827
9796
11231
12404
12967
13152
13231
13458
13689
13876
14043
14187
14325
14542
14781
15128
15695
16162
16552
16968
17332
17546
17707
17677
17519
17052
16203
15248
14307
13157
12286
11697
11135
10909
10848
10871
10954
11047
11075
11256
11490
11619
11713
11776
11694
11707
11680
11768
11713
11659
11683
11764
11859
11850
11762
11997
12331
12637
12867
12761
12788
12682
12529
12310
12218
12177
12308
12129
11894
13359
17396
23052
24725
12521
7375
9402
10626
11971
12680
13044
13269
13454
13571
13731
13899
14140
14330
14524
14753
15132
15488
15833
16361
16912
17311
17649
17782
17811
17696
17273
16576
15700
14630
13410
12412
11763
11337
11173
11142
11116
11147
11100
11216
11417
11433
11479
11721
11861
11780
11826
11777
11795
11918
11905
11772
11786
11998
12084
11906
11858
11838
12268
12628
13007
13190
13019
12945
12808
12684
12491
12274
12208
12377
12185
11979
13783
18106
23907
24340
11157
7505
9553
10885
11969
12785
13187
13357
13559
13671
13755
13965
14193
14356
14598
14717
15137
15497
16026
16368
16848
17282
17721
17860
17681
17558
17360
16692
15705
14620
13531
12449
11850
11524
11152
10954
10904
11210
11245
11335
11463
11700
11656
11688
11824
11933
11896
11874
11903
11852
11978
11822
11853
11944
11881
11858
12031
12241
12696
13029
13208
12942
12760
12743
12532
12386
12291
12178
12351
12139
12119
14785
19616
25363
21328
8109
7957
9850
11266
12299
12871
13109
13286
13539
13606
13859
13996
14130
14301
14589
14897
15214
15514
15925
16438
16892
17385
17595
17678
17517
17343
16977
16227
15187
14221
13138
12304
11656
11208
11036
11042
11059
11016
11262
11335
11416
11366
11577
11637
11626
11625
11726
11648
11676
11734
11683
11747
11670
11716
11866
12159
12464
12890
13029
12942
12764
12603
12451
12245
12054
12133
12160
11889
12048
14865
19562
25028
21152
8056
7899
9732
11238
12206
12885
13016
13330
13481
13656
13782
13987
14128
14259
14384
14876
15244
15549
15941
16470
16939
17294
17494
17578
17528
17197
16801
16203
15254
14148
13075
12199
11695
11286
11069
10974
11074
11204
11295
11375
11483
11654
11687
11771
11771
11783
11659
11821
11972
11984
11795
11791
11950
12409
12709
13001
13020
12813
12592
12631
12503
12244
12079
12125
12257
11848
12274
15503
20800
25600
18048
7061
8534
10264
11586
12402
12786
12996
13240
13510
13632
13798
13926
14078
14272
14585
14861
15274
15585
15986
16413
17095
17405
17525
17477
17259
16978
16590
15753
14787
13654
12674
11904
11499
11179
11023
10963
11016
11119
11279
11323
11362
11656
11654
11736
11759
11790
11657
11780
11881
11825
11734
11838
12285
12653
12866
12941
12801
12650
12413
12262
12140
12038
12055
12070
11834
11996
15065
20235
25516
19053
7280
8342
10026
11436
12378
12945
12999
13174
13463
13554
13635
13839
14120
14404
14577
14862
15232
15616
15948
16568
16942
17255
17412
17452
17341
16995
16465
15744
14917
13846
12799
12082
11558
11231
11191
11101
11157
11220
11373
11428
11491
11637
11664
11797
11812
11722
11848
12004
12058
11923
11786
11932
12198
12562
12784
12947
12849
12752
12654
12435
12267
12089
12162
12257
12087
11763
13365
17730
23649
24493
11621
7432
9544
10835
11955
12566
12908
13104
13333
13533
13745
13832
13941
14111
14339
14789
15070
15489
15876
16334
16760
17141
17389
17578
17458
17292
16842
16266
15328
14237
13107
12195
11585
11308
11173
11023
11016
11051
11232
11433
11526
11448
11550
11619
11714
11771
11863
11783
11756
11750
11744
11706
11758
11745
12123
12529
12797
12797
12764
12727
12493
12363
12129
12061
12118
12173
11914
12063
15031
19862
25047
20023
7770
8458
9962
11154
12292
12913
13119
13272
13526
13761
13946
13965
14098
14271
14644
14872
15078
15448
16136
16500
16941
17342
17539
17450
17410
17183
16658
15784
14802
13775
12780
11991
11470
11146
11072
11006
10976
11207
11272
11466
11518
11579
11638
11745
11873
11918
11707
11930
12064
11998
12020
11931
11956
11783
12030
12643
13012
13005
12931
12968
12861
12599
12430
12261
12225
12204
12136
11875
13319
17415
23453
24880
12146
7501
9436
10657
11824
12815
13115
13096
13317
13541
13714
13843
13992
14169
14518
14717
15056
15353
15727
16241
16831
17113
17417
17592
17499
17311
16921
16107
15322
14277
13240
12271
11694
11401
11217
11125
11149
11154
11270
11408
11572
11659
11734
11803
11776
11913
11915
11905
11925
11933
11849
11871
11931
11973
11997
11891
11922
11912
12310
12884
13153
13123
12998
12891
12806
12652
12468
12273
12379
12369
12178
12245
14986
19776
25504
20826
7729
8057
9870
11402
12335
12812
12965
13281
13604
13744
13781
13919
14167
14429
14646
14971
15166
15583
16021
16489
16934
17292
17498
17440
17438
17316
16939
16167
15149
14057
13136
12316
11743
11392
11297
11219
11233
11272
11388
11638
11702
11714
11694
11764
11792
11898
11964
12030
11987
11902
11836
12048
12069
11983
11990
12095
12118
12039
12059
12116
12434
12852
13201
13237
13246
13154
13056
12785
12740
12590
12523
12503
12289
12242
14173
18361
24169
23926
10391
7189
9462
11121
12173
12943
13228
13447
13561
13702
13733
13937
14174
14497
14643
14914
15078
15484
15952
16347
16819
17199
17423
17565
17563
17441
17138
16566
15729
14694
13646
12692
12075
11649
11362
11213
11169
11188
11471
11579
11618
11767
11795
11774
11842
11907
11911
11900
11823
11900
11880
11838
11786
11996
12013
12097
12056
12015
11942
12146
12587
13076
13194
13117
13034
12958
12841
12680
12507
12424
12480
12364
12141
13132
17062
22697
25541
14319
6755
9013
10560
11924
12629
13069
13397
13583
13737
13855
13928
14061
14216
14489
14797
15181
15408
15856
16383
16780
17150
17461
17571
17533
17415
17224
16670
15782
14798
13777
12710
11978
11513
11311
11164
10998
11091
11193
11273
11240
11263
11264
11523
11665
11640
11689
11647
11685
11642
11654
11764
11672
11632
11643
11659
11859
12121
12532
12832
13001
12856
12721
12468
12374
12303
12258
12083
12157
12136
12523
15411
20238
25406
19419
7291
8466
10060
11201
12207
12843
13184
13406
13474
13674
13914
14043
14200
14436
14576
14824
15293
15675
16171
16685
17051
17441
17623
17664
17506
17194
16629
15954
14862
13748
12866
11985
11534
11212
11048
10937
11032
11109
11149
11227
11377
11619
11684
11596
11759
11760
11886
11855
11918
11935
11880
11746
11735
11864
11896
12262
12587
12946
12931
12765
12725
12644
12482
12246
12089
12138
12066
11987
12372
15276
20197
25626
19878
7567
8627
10098
11289
12279
12883
13108
13239
13420
13589
13818
13992
14159
14379
14535
14844
15165
15581
15954
16424
16943
17353
17535
17515
17259
17045
16584
15720
14795
13724
12730
11952
11514
11196
11020
11000
11060
11095
11208
11312
11452
11509
11603
11737
11727
11811
11793
11849
11763
11797
11784
11843
11883
11952
11780
11761
11774
12244
12624
12914
13101
12992
12998
12807
12685
12405
12307
12293
12375
12091
11994
14381
18905
24825
22509
8768
7731
9786
11277
12338
13005
13167
13339
13529
13728
13948
14087
14274
14392
14682
15010
15314
15538
15984
16401
16895
17299
17646
17756
17716
17385
17045
16358
15507
14332
13241
12345
11819
11423
11309
11302
11221
11298
11369
11466
11501
11675
11750
11774
11754
11880
11958
11925
11774
11889
11847
11977
12039
11905
11819
11947
12369
12704
13060
13171
13035
12829
12668
12457
12371
12340
12330
12354
12128
12454
15375
20284
25640
19833
7219
8120
10002
11656
12708
13051
13261
13479
13597
13678
13865
14149
14214
14462
14571
14832
15198
15701
16147
16491
17040
17407
17494
17588
17476
17062
16763
16111
15208
14025
12923
12123
11635
11328
11137
11085
11112
11173
11219
11455
11551
11581
11611
11612
11590
11768
11790
11876
11866
11815
11979
11969
11857
11850
11856
12004
12314
12600
12888
12948
12914
12753
12738
12513
12290
12177
12324
12301
12098
12915
16435
21658
25671
16302
6719
8823
10178
11897
12629
12947
13269
13489
13631
13748
13860
14040
14245
14393
14577
14947
15275
15744
16191
16636
17061
17484
17644
17570
17471
17258
16652
15791
14785
13634
12616
11889
11499
11063
10919
10976
11095
11055
11212
11410
11491
11581
11687
11726
11699
11780
11758
11830
11875
11885
11924
11752
11740
11835
12107
12609
12787
13023
12819
12863
12695
12490
12273
12197
12167
12245
12072
11998
14404
18923
24640
22279
9016
8058
9732
10936
12164
12882
13210
13299
13435
13597
13867
13915
14051
14394
14631
14911
15230
15693
16048
16490
16875
17285
17548
17606
17468
17273
16748
16076
15048
13973
12914
12087
11525
11235
11110
11077
11099
11171
11176
11431
11592
11643
11797
11680
11754
11825
11867
11805
11809
11796
11882
11944
11848
11795
11714
11911
12330
12714
13011
12890
12807
12642
12375
12225
12081
12182
12253
12067
11781
13606
18027
23864
24284
11085
7411
9279
10731
12034
12872
13137
13332
13500
13647
13771
13893
14048
14321
14410
14803
15136
15429
15902
16468
16762
17175
17609
17671
17509
17322
17101
16394
15365
14293
13308
12378
11729
11270
11100
11050
11070
11108
11220
11396
11500
11419
11536
11753
11758
11696
11673
11710
11831
11952
11829
11939
12060
12002
11987
12293
12529
12846
13034
12962
12900
12814
12523
12363
12243
12286
12312
12085
11948
14076
18735
24606
23175
9710
7501
9694
11220
12155
12755
13039
13161
13588
13789
13864
14049
14168
14317
14522
14837
15195
15476
15784
16317
16935
17320
17523
17660
17672
17356
16948
16193
15102
14145
13165
12212
11554
11284
11140
11055
11045
11164
11202
11352
11491
11555
11504
11558
11612
11718
11698
11739
11782
11790
11799
11885
11895
11913
11915
11838
12074
12409
12779
13020
13061
12939
12733
12478
12466
12338
12323
12389
12184
12030
13865
18298
24022
24325
11265
7024
9288
10916
12066
12935
13173
13294
13489
13724
13835
14016
14201
14344
14547
14927
15237
15589
15883
16357
16978
17310
17587
17629
17630
17515
17163
16418
15525
14477
13340
12408
11844
11401
11111
10941
11062
11174
11177
11346
11453
11478
11491
11599
11700
11768
11784
11883
11924
11891
11756
11889
11926
11884
11822
11994
12270
12610
12910
12904
12815
12662
12553
12471
12242
12108
12222
12071
11895
12690
16360
21429
25564
17158
7231
8899
10149
11373
12324
12882
13087
13296
13475
