13337
13656
13787
13902
14125
14418
14609
14970
15214
15621
16154
16636
16903
17281
17435
17338
17013
16933
16566
15711
14679
13651
12794
11983
11400
11241
11040
10812
11129
11238
11221
11312
11640
11590
11625
11562
11457
11522
11786
11709
11771
11771
11807
11836
11781
11695
11933
12591
12791
13001
12941
12836
12668
12585
12468
12221
12067
12428
12278
11821
13081
17016
22425
25046
13968
7275
9245
10367
11775
12670
13092
13214
13462
13630
13958
13990
14179
14196
14492
14604
15008
15648
15963
16234
16882
17260
17512
17544
17441
17274
16873
16165
15103
14179
13270
12340
11600
11542
11398
11344
11210
11232
11251
11381
11570
11698
11699
11746
11769
11921
12143
12124
12081
11979
11961
12048
12257
12035
12011
12171
12481
12934
13413
13438
13176
13050
12977
12880
12598
12618
12464
12429
12248
12398
15025
19668
25256
21709
8606
8091
9771
11330
12319
12889
13273
13518
13651
13739
14008
14320
14493
14563
14727
15017
15426
15761
16264
16658
17145
17444
17641
17617
17587
17335
16892
16095
15196
14055
13052
12205
11719
11528
11399
11333
11199
11362
11482
11554
11616
11685
11728
11762
11820
11922
11946
12042
11939
11909
11912
11932
11966
11904
11881
11899
12422
12779
13140
13254
13061
12930
12778
12451
12378
12343
12317
12394
12288
12281
14493
18904
24687
22794
9238
7441
9495
11208
12365
13048
13192
13175
13451
13989
14033
14071
14194
14471
14609
14879
15257
15759
15969
16404
16948
17276
17536
17517
17429
17175
16817
15962
15082
14227
13111
12362
11910
11603
11292
11060
11125
11293
11356
11542
11532
11645
11700
11781
11802
11964
11835
11837
11800
11789
11870
12053
11862
11951
11929
11941
11956
12426
12926
13111
13144
13060
13086
12851
12741
12355
12373
12378
12572
12294
12200
14582
19150
24807
22323
8806
7361
9536
11233
12416
13037
13382
13408
13604
13877
14086
14110
14158
14398
14786
15129
15514
15738
16047
16620
17082
17374
17419
17515
17513
17261
16717
16103
15091
14322
13324
12395
11674
11394
11297
11262
11160
11250
11119
11365
11606
11714
11692
11817
11771
11745
11819
11871
11732
11661
11944
11924
11918
11858
11842
12108
12587
12810
12913
12835
12776
12709
12695
12443
12283
12236
12277
12240
12089
13642
17602
23103
24915
12956
7201
9340
10646
11792
12622
13308
13293
13544
13782
13909
13894
14130
14350
14555
14895
15249
15570
15980
16449
16726
17274
17529
17483
17217
17132
16740
16218
15256
14087
13137
12343
11582
11237
11028
11009
11043
10976
11173
11272
11428
11522
11619
11652
11714
11682
11876
11708
11666
11692
11910
11849
11746
11871
11974
12203
12488
12811
12930
12882
12643
12883
12692
12435
12273
12405
12241
11950
12007
14313
18651
24639
22852
9568
7977
9524
10973
12027
12757
13173
13473
13426
13633
13905
14096
14100
14340
14609
15073
15378
15565
15796
16512
16888
17100
17416
17432
17374
17137
16618
15863
14982
13831
12870
12082
11635
11364
11430
11197
11124
11273
11423
11464
11417
11481
11555
11852
11956
11987
11963
12002
11929
11906
11868
11910
11788
11854
11818
12329
12675
12922
13061
12980
12900
12896
12651
12458
12367
12183
12365
12286
12027
12599
16024
21444
25792
16711
6968
8566
10162
11639
12564
12967
13214
13403
13642
13821
14050
14106
14245
14417
14671
15113
15455
15725
16094
16627
16950
17247
17306
17408
17327
17029
16513
15547
14490
13427
12613
12039
11545
11170
11096
11124
11277
11364
11435
11381
11521
11518
11697
11706
11769
11749
11721
11673
11864
11903
11764
11842
11934
12013
11954
11978
12265
12871
13019
13030
12934
12948
12763
12581
12281
12304
12441
12438
12076
12464
15623
20581
25466
18632
7133
8083
10156
11587
12542
12967
13226
13464
14267
14405
14607
14834
15184
15685
15954
16463
16921
17316
17420
17519
17429
17178
16765
16127
15156
14112
13046
12239
11837
11540
11166
11048
11164
11220
11374
11396
11625
11674
11709
11715
11849
11905
11887
11851
11998
11945
11931
11901
11983
12020
12161
12121
11769
12059
12591
13051
13134
13199
13093
13143
12844
12776
12530
12393
12366
12242
12152
12877
16182
21278
25662
17543
6751
8279
10245
11710
12577
12915
13302
13511
13790
13861
13929
14026
14352
14601
14786
14986
15413
15944
16334
16683
17150
17321
17465
17524
17250
17022
16574
15836
14821
13774
12651
12007
11585
11343
10989
10987
11146
11257
11287
11296
11413
11535
11568
11870
11972
11736
11905
11905
11831
11729
11865
11949
11818
11866
11839
12095
12489
12789
12887
12917
12919
12832
12456
12543
12285
12226
12322
12297
11971
12954
16444
21765
25639
16286
6967
8955
10279
11621
12563
12925
13303
13466
13540
13766
13868
14026
14408
14696
14796
14998
15525
15820
16272
16632
17222
17457
17484
17515
17482
17121
16329
15430
14339
13293
12471
11858
11495
11306
11083
11064
11036
11265
11252
11327
11644
11706
11691
11727
11775
11839
11896
11780
11727
11806
12001
12028
11989
11965
11956
12239
12643
12938
13260
13089
12894
12780
12685
12487
12263
12194
12133
12140
12159
14406
19002
24938
22872
9496
7847
9522
10903
12170
12735
13003
13292
13545
13867
13954
13943
14103
14257
14598
14927
15272
15572
15936
16434
16830
17252
17519
17565
17318
17288
16819
15940
14928
13980
12854
11999
11568
11225
11037
11029
11013
10916
11251
11487
11574
11527
11703
11598
11661
11653
11819
11838
11880
11752
11886
11883
11987
12063
11999
11917
11832
12087
12664
13123
13209
12994
12895
12936
12740
12422
12240
12467
12495
12110
11912
13920
18362
24428
23894
10668
7500
9426
11029
12212
12881
13093
13272
13504
13590
13800
14187
14222
14400
14722
15023
15278
15560
15957
16440
16671
17124
17532
17596
17403
17180
16866
16240
15459
14343
13215
12257
11552
11282
11187
11162
11063
11110
11387
11444
11423
11456
11653
11755
11757
11694
11710
11776
11809
11887
11852
11907
11836
11939
11918
11853
11873
11832
11983
12536
13086
13266
13088
13021
13120
12859
12484
12212
12429
12451
12551
12176
12858
16299
21624
25693
17157
6837
8411
10388
11730
12800
13043
13127
13437
13754
13969
14171
14248
14393
14554
14784
15088
15553
15843
16337
16669
17214
17593
17665
17570
17615
17268
16693
15877
14989
13932
12916
12201
11626
11418
11331
11318
11223
11357
11398
11386
11439
11621
11666
11690
11792
11843
11937
11921
11905
11935
11863
11832
11905
11896
11993
11788
11959
12016
12367
12727
13033
13211
13219
13131
13007
12686
12294
12358
12459
12475
12269
12302
13765
17964
23486
24726
12288
7728
9822
11378
12280
13014
13297
13454
13532
13573
13850
13986
14189
14313
14585
14801
15192
15521
15890
16266
16756
17352
17662
17669
17543
17287
16973
16188
15442
14458
13318
12416
11594
11352
11117
10941
10991
11096
11077
11192
11392
11468
11429
11606
11685
11721
11712
11790
11760
11904
11817
11837
11928
11826
12031
11958
11996
12230
12338
12798
13274
13098
13020
12894
12538
12483
12475
12429
12484
12394
12100
12462
15670
20627
25315
13834
7094
9193
10524
11928
12777
13165
13288
13511
13480
13691
13941
14293
14392
14536
14798
15116
15425
15775
16118
16450
17093
17462
17770
17677
17420
17196
16771
15776
14779
13524
12692
12017
11502
11251
11096
11087
11091
11144
11275
11435
11462
11417
11642
11824
11759
11859
11893
11917
11940
11906
11908
11868
11697
12111
12140
12065
12161
12598
12957
13098
13066
13004
12848
12795
12793
12398
12403
12434
12453
12176
12306
15025
22205
25873
16049
7152
8878
10276
11682
12570
12922
13138
13194
13759
13987
14122
14068
14294
14427
14759
14982
15374
15721
16203
16617
17135
17390
17533
17555
17651
17515
16850
16082
15052
14147
12932
12175
11584
11246
10953
11064
11065
11242
11267
11280
11306
11538
11653
11656
11794
11804
11817
11857
11993
11882
11784
11809
12034
11990
12131
11995
11913
12022
12389
12909
13165
13086
13012
12850
12841
12701
12351
12165
12354
12688
12227
12639
15819
21163
25668
17614
7056
8399
10208
11792
12656
13227
13321
13353
13550
13723
13909
14199
14346
14595
14745
14972
15268
15614
16132
16539
16928
17192
17689
17799
17629
17356
17067
16306
15145
14134
13085
12237
11691
11344
11168
11102
11074
10958
11136
11464
11307
11429
11637
11737
11805
11832
11693
11700
11837
11910
11925
11780
11833
11980
12047
11841
11817
12059
12519
12822
13150
12998
12946
13022
12904
12709
12432
12257
12394
12349
12073
13446
17304
23131
25251
13395
6555
8907
10688
11984
12726
13351
13454
13675
13647
13833
14011
14086
14276
14665
14936
15119
15409
15888
16348
16674
17116
17321
17681
17852
17703
17297
16800
16121
15273
13979
12850
12118
11677
11409
11197
11079
10980
11042
11187
11413
11394
11439
11479
11788
11775
11743
11829
11785
11771
11760
11785
11714
11861
11942
11971
11910
11957
12148
12803
13190
13176
12794
12893
12897
12752
12288
12327
12325
12366
12173
12625
15765
20742
25595
19113
7234
8337
10010
11330
12308
12777
13067
13314
13561
13836
14014
13966
14126
14553
14714
14917
15331
15656
16088
16484
16850
17307
17560
17730
17678
17466
16992
16310
15319
14248
13085
12313
11630
11197
11103
10998
10895
10948
11042
11171
11245
11475
11680
11745
11797
11811
11875
11793
11792
11766
11775
11801
11956
12013
11854
11781
11936
12192
12428
12809
13027
12936
12831
12874
12696
12457
12309
12323
12322
12066
11794
13936
18160
23993
24008
10647
7358
9526
10993
12152
12948
13323
13477
13478
13593
13796
13934
14367
14568
14653
14867
14896
15350
15926
16373
16578
17154
17549
17618
17692
17732
17327
16654
15757
14663
13591
12549
11794
11239
11053
10865
11055
11077
11035
11165
11351
11263
11489
11513
11614
11735
11754
11764
11970
11954
11743
11807
11814
11821
11714
11894
11758
11765
11870
12410
12882
13266
13164
13138
12922
12706
12441
12464
12352
12440
12491
12155
12220
14929
19763
25241
21175
8186
7766
9729
11316
12280
12837
13189
13417
13510
13765
14047
14195
14284
14419
14682
14910
15122
15475
16027
16470
16885
17359
17750
17687
17664
17545
17215
16631
15721
14587
13505
12483
11874
11446
11214
11101
11006
11178
11309
11423
11397
11511
11436
11560
11617
11750
11712
11727
11774
11812
11809
11832
11945
11914
11948
11894
11828
11958
12248
12607
13007
13148
13218
13026
12940
12707
12512
12214
12384
12526
12512
12145
13478
17412
22892
25052
13949
6845
8988
10662
11749
12594
13100
13398
13579
13685
13861
14042
14224
14397
14462
14644
14932
15184
15632
16107
16708
17161
17559
17719
17801
17648
17349
16811
16121
15049
14073
12965
12144
11525
11272
11138
10984
11058
11196
11229
11272
11355
11467
11508
11519
11605
11596
11675
11637
11792
11746
11690
11631
11847
11880
11901
11764
12030
12422
12757
12944
12908
12864
12810
12527
12311
12098
12077
12433
12370
12099
12935
16495
21553
25677
16929
7146
8583
10058
11397
12372
12945
13242
13429
13601
13791
13806
13994
14113
14354
14713
15060
15374
15776
16150
16718
17196
17545
17749
17826
17676
17386
16875
16053
15093
13971
12954
12119
11490
11060
11037
10811
10805
10824
11101
11172
11221
11355
11590
11544
11729
11722
11765
11749
11786
11898
11825
11889
11918
11757
11774
11980
12128
12549
12823
13111
12967
12867
12640
12510
12434
12283
12278
12284
12104
12010
13046
16525
21643
25468
16307
7108
8857
9825
11388
12426
13071
13283
13557
13681
13671
13928
14124
14129
14328
14652
14906
15356
15615
16105
16619
17068
17428
17749
17672
17625
17478
16859
15945
15177
14063
12832
12095
11557
11299
11206
11139
11103
11216
11263
11377
11410
11549
11685
11617
11742
11914
11963
12029
12041
12131
11959
11781
12055
12108
12017
11973
12256
12562
12963
13186
13159
12931
12941
12747
12627
12374
12494
12404
12355
12099
12656
15926
21163
25844
18226
7483
8595
10036
11593
12549
13012
13427
13556
13583
13729
14012
14107
14383
14424
14683
14933
15238
15616
16130
16485
17003
17567
17759
17826
17651
17420
16777
16105
15397
14225
12972
12136
11605
11339
11018
10895
10967
11094
11130
11235
11292
11371
11491
11725
11829
11670
11798
11905
11941
11882
12054
12013
12002
11863
11940
12086
12045
11830
12013
12614
13070
13201
13153
13009
12965
12824
12683
12378
12314
12526
12510
12074
12314
15408
20610
25927
19568
7703
8258
10000
11604
12570
12981
13163
13465
13633
13787
13805
14063
14233
14450
14617
15055
15252
15527
16003
16452
16975
17500
17703
17769
17772
17562
17119
16416
15632
14410
13337
12274
11793
11392
11023
10981
11176
11257
11314
11265
11492
11597
11584
11630
11767
11874
11819
11872
11846
11867
11907
11930
11851
11922
11895
12009
12157
12138
11955
12105
12506
12964
13157
13148
13114
13099
12838
12584
12375
12305
12350
12364
12306
12216
14752
19590
25515
21799
8745
7941
9858
11290
12330
12990
13236
13465
13500
13694
13771
13833
14139
14433
14599
14873
15239
15549
15922
16362
16725
17189
17512
17781
17727
17579
17264
16488
15738
14645
13523
12394
11763
11415
11141
10951
11124
11131
11161
11200
11372
11442
11523
11489
11727
11739
11781
11778
11720
11669
11783
11842
11845
11821
11689
11892
11929
11916
11846
12129
12672
13108
13196
13210
13047
12932
12707
12536
12296
12336
12329
12274
11985
13505
17627
23352
25121
13074
7549
9276
10555
11871
12815
13151
13314
13284
13492
13691
13836
14275
14493
14575
14733
15124
15374
15868
16184
16629
17004
17457
17467
17675
17687
17295
16725
16045
14835
13662
12734
11931
11276
11160
11184
10997
10846
10976
11182
11209
11423
11557
11594
11715
11696
11741
11958
11903
11844
11818
11884
11914
12008
12086
11994
11845
11919
12309
12870
13192
13145
13041
12951
12907
12819
12581
12281
12467
12512
12272
11864
13630
17764
23672
24790
12019
7593
9292
10680
11958
12693
13188
13602
13724
13806
13852
14003
14183
14481
14604
14870
15163
15482
15900
16250
16906
17318
17619
17750
17828
17704
17502
16766
15816
14651
13651
12574
11877
11429
11129
11013
11177
11133
11214
11291
11486
11574
11667
11664
11678
11754
11816
11823
11789
11861
11778
11803
11856
11965
11992
12087
11988
11932
11813
12333
13070
13298
13189
13192
13104
13015
12840
12489
12414
12384
12427
12137
12329
15003
19873
25636
21189
8245
8023
9685
11280
12354
12901
13112
13379
13496
13579
13792
13921
14299
14503
14697
14866
15243
15670
15964
16371
16947
17340
17661
17716
17609
17523
17263
16616
15600
14491
13255
12355
11567
11259
11074
11011
10969
11177
11246
11419
11461
11566
11607
11728
11724
11817
11769
11744
11805
11752
11722
11681
11765
11882
11980
12052
12140
11903
11739
12016
12560
12941
13029
12983
13050
12961
12869
12690
12495
12364
12448
12414
12120
13166
16867
22645
25348
14170
6960
8986
10735
12014
12739
13070
13284
13543
13710
13882
14011
14127
14317
14468
14823
15101
15309
15715
16255
16642
17093
17492
17654
17711
17657
17369
16940
16196
14834
13632
12705
12096
11583
11233
11022
10976
11067
11216
11260
11453
11481
11565
11636
11827
11795
11821
11881
11870
11783
11789
11704
11775
11839
11850
11962
11840
11754
11768
12248
12618
13151
13170
13022
12918
12766
12556
12352
12337
12378
12294
12012
12122
14518
19033
24603
22455
9150
7447
9424
11133
12232
12909
13098
13262
13451
13718
13846
13995
14204
14425
14593
14816
15062
15310
15829
16371
16874
17245
17550
17612
17652
17451
16997
16274
15325
14125
13195
12318
11751
11120
10920
11136
11248
11260
11348
11374
11439
11725
11697
11557
11557
11776
11802
11816
11745
11846
11789
11771
11855
11886
11767
11872
12247
12535
12744
13035
13041
12920
12992
12716
12502
12244
12294
12324
12269
12087
13337
16962
22232
24984
14335
7265
9330
10440
11703
12660
13071
13296
13395
13532
13583
13757
13992
14235
14254
14718
15045
15347
15721
16036
16526
16999
17237
17507
17624
17413
17185
16558
15493
14429
13415
12412
11674
11268
11149
11005
11010
10972
11167
11235
11427
11485
11594
11749
11915
11871
11899
11977
12011
11935
12028
12029
12001
11991
12123
12547
12750
12976
13054
12925
12806
12723
12478
12379
12260
12275
12327
12015
12491
15521
20325
25467
19873
7594
8245
9668
11176
12261
13008
13198
13385
13639
13655
13813
14115
14318
14484
14711
14914
15242
15389
15814
16275
16861
17229
17472
17554
17610
17243
16739
15749
14725
13669
12641
11740
11445
11195
11064
11101
11262
11296
11221
11368
11476
11558
11596
11811
11660
11657
11869
12002
11918
11989
11751
11711
11831
12027
12257
12708
12971
13000
12790
12701
12566
12185
12172
12095
12200
12101
11907
12378
15568
20852
25746
18479
7135
8059
9787
11365
12312
12809
12965
13270
13451
13632
13772
14087
14213
14486
14654
14965
15183
15482
15896
16343
16783
17255
17485
17507
17419
17178
16804
15640
14689
13580
12593
11909
11513
11057
10924
10987
11116
11284
11407
11373
11472
11531
11594
11700
11740
11777
11878
11845
11803
11971
11790
11775
11751
12125
12573
12953
12968
12995
12885
12715
12530
12355
12111
12063
12217
11994
11758
13352
17592
23317
24495
12077
6824
9076
10835
11986
12758
12951
13236
13356
13532
13669
13904
14083
14302
14611
14829
15108
15379
15759
16103
16697
16911
17380
17548
17423
17364
17074
16499
15771
14669
13338
12361
11680
11344
11025
10994
11043
11248
11300
11379
11410
11416
11512
11686
11548
11562
11637
11649
11737
11881
11748
11694
11782
12196
12519
12806
12999
12874
12756
12571
12370
12149
12142
12226
12300
12036
12170
14299
18574
24012
22301
9306
7510
9367
10751
12059
12603
12896
13230
13516
13529
13660
13822
13991
14208
14589
14774
15092
15302
15829
16221
16645
17037
17334
17447
17382
17199
16824
16222
15155
14223
13205
12436
11528
11244
11149
11034
11149
11268
11222
11511
11552
11640
11675
11743
11711
11746
11775
11833
11941
12036
11990
11847
11935
12185
12506
12726
13052
12869
12804
12693
12517
12368
12226
12183
12272
12257
12089
13250
17013
22429
24844
13816
7160
9161
10297
11723
12586
13164
13340
13664
13655
13777
13969
14191
14298
14558
14800
15018
15482
15733
16187
16729
17306
17474
17533
17586
17442
17230
16834
15822
14762
13605
12659
11969
11539
11266
11218
11179
11188
11313
11493
11658
11646
11684
11641
11858
11893
11938
11821
11854
11960
12070
11925
11954
11905
12173
12749
13060
12916
12811
12751
12605
12647
12457
12214
12213
12366
11928
11914
14143
18790
24679
23033
9770
7909
9327
10714
11969
12793
13056
13218
13604
13758
13877
13900
14110
14140
14405
14785
15061
15284
15998
16377
16794
17237
17475
17535
17459
17251
16889
16180
15042
14157
13227
12404
11565
11248
11167
11155
11184
11130
11227
11388
11400
11665
11676
11677
11826
11885
11808
11701
11737
11833
11898
11859
11898
11924
11884
11784
12156
12532
12906
13007
13042
12909
12892
12694
12543
12274
12253
12500
12384
11946
13075
16970
22530
25638
14592
7238
8961
10480
11790
12641
13105
13323
13478
13630
13888
14022
14094
14253
14445
14679
14926
14900
15554
16226
16611
16912
17395
17536
17568
17366
17138
16750
15878
14962
13999
12900
12138
11648
11183
11140
11250
11224
11159
11211
11634
11794
11631
11792
11862
11885
11727
11837
11791
11798
11875
12036
11878
11998
12104
12026
11870
12045
12582
12966
13108
12873
12919
12956
12773
12471
12295
12237
12422
12235
11862
13221
17313
22950
25177
13339
6875
9000
10629
11919
12586
12943
13231
13571
13715
13886
13912
14139
14352
14577
14702
14913
15338
15860
16179
16526
17108
17352
17479
17421
17472
17217
16708
15810
14935
13786
12788
12024
11557
11300
11068
10936
11208
11362
11590
11688
11696
11723
11668
11674
11728
11767
11738
11651
11666
11780
11978
12122
11919
11978
11880
11815
11951
12540
12913
12997
12952
12871
12849
12884
12797
12449
12427
12367
12293
11994
13000
16713
22214
25745
15520
6867
8761
10264
11765
12525
13033
13376
13442
13591
13819
13949
14037
14323
14442
14743
15007
15466
15764
16053
16392
17034
17403
17313
17476
17519
17182
16581
16031
15091
14020
12889
12142
11347
11099
10930
11023
11100
11198
11244
11345
11414
11539
11631
11709
11728
11820
11742
11761
11794
11809
11829
11915
12034
11879
11867
11849
12366
12636
12907
12975
13064
12997
12788
12548
12451
12381
12337
12357
12080
12190
15260
20121
25564
19989
7692
8441
9776
11344
12417
12993
13132
13345
13545
13782
13879
14101
14417
14663
14848
15063
15346
15581
16002
16330
16828
17218
17596
17621
17578
17305
16899
16092
15154
14175
13120
11887
11485
11170
10978
10854
11027
11240
11438
11605
11644
11648
11779
11907
11849
11867
11859
11892
11843
11949
12008
12055
11907
11863
11877
12080
12491
12907
13122
13025
12996
12864
12719
12532
12308
12290
12418
12213
11946
12798
16364
21856
25910
16080
7110
8700
10192
11707
12516
13054
13231
13409
13462
13732
13832
13913
14019
14391
14640
14866
15229
15693
15922
16355
16656
17039
17476
17484
17229
17044
16715
15921
14995
13945
12939
11844
11430
11148
11113
10976
11255
11381
11437
11404
11553
11641
11672
11749
11814
11866
11850
11814
11757
11759
11708
11784
11831
11971
12011
11907
11798
12187
12703
13063
13108
13041
12991
12829
12449
12406
12351
12156
12278
12249
12328
13944
18114
23805
24127
10751
7149
9336
11010
12214
12953
13352
13511
13606
13689
13792
13925
14141
14299
14693
14839
15153
15565
15964
16316
16646
16876
17294
17424
17445
17191
16818
16528
15891
14468
13513
12590
11834
11425
11179
11065
11112
11205
11340
11458
11412
11563
11631
11704
11679
11647
11622
11830
11888
11793
11830
11877
11900
11883
11954
11920
12078
11858
12080
12521
13089
13263
13218
12980
12948
12752
12646
12356
12465
12591
12318
12110
13802
17887
23406
24727
12109
6974
9002
10872
12130
12926
13269
13417
13517
13658
13690
14050
14315
14459
14618
14820
15005
15440
15916
16250
16648
16838
17275
17562
17592
17241
16949
16359
15620
14636
13634
12591
11854
11228
11227
11337
11395
11321
11315
11379
11399
11527
11567
11790
11844
11938
11803
11759
11883
11995
11817
11895
11935
11824
11596
11736
12241
12687
13035
13120
12870
12800
12783
12523
12262
12103
12272
12170
12118
12550
15664
20634
25727
19200
7400
8488
9849
11268
12273
12788
13078
13528
13685
13773
13726
14077
14250
14464
14630
14882
15167
15440
15865
16348
16843
17162
17209
17387
17391
17216
16589
15751
14720
13501
12676
12044
11487
11150
11282
11086
11111
11115
11369
11425
11379
11483
11865
11849
11740
11926
11890
11792
11771
11896
11970
11852
11771
11942
12341
12767
12890
13061
12861
12774
12562
12429
12344
12257
12312
12379
12084
11976
14315
19107
25222
22448
8900
8033
9620
10997
12095
12786
13075
13270
13567
13795
13920
14001
14030
14122
14490
14810
14875
15416
15859
16240
16689
17091
17128
17407
17430
17171
16682
16125
15016
13847
12750
12190
11699
11313
11004
10972
11168
11186
11241
11419
11616
11707
11729
11690
11809
11763
11882
11889
11826
11891
12145
12038
11853
11734
11845
12190
12555
12938
13038
12966
12793
12799
12629
12422
12251
12203
12365
12110
11822
13804
18289
24244
23998
10627
7545
9345
10951
12067
12745
13062
13328
13324
13551
13708
14082
14055
14249
14235
14690
15009
15191
15502
16142
16733
16921
16982
17264
17436
17147
16752
16093
15311
14259
13136
12435
11924
11406
11160
11080
11282
11189
11276
11308
11542
11682
11706
11657
11792
11914
11739
11757
11816
11772
11720
11960
12088
11948
11955
11966
11964
12439
13121
13410
13100
12959
12803
12698
12527
12192
12193
12254
12313
12134
13993
18246
24117
23786
10412
7094
9324
11177
12330
12966
13057
13311
13610
13757
13848
13905
13895
14377
14526
14655
15011
15473
15868
16164
16432
16800
17157
17289
17158
17037
16785
16243
15241
14348
13267
12385
11893
11437
11128
10986
11019
11372
11497
11401
11457
11562
11873
11799
11681
11727
11831
11828
11919
11897
11881
11875
11888
12138
12051
11731
11670
12237
12735
13047
13092
13141
13095
13053
12829
12647
12235
12400
12539
12303
11942
13225
17240
23017
25240
13389
6799
8934
10629
12022
12789
12952
13244
13300
13467
13867
14089
14170
14258
14412
14670
15010
15364
15723
15994
16524
16907
17221
17296
17336
17110
16955
16409
15682
14789
13687
12613
11983
11476
11257
11171
11233
11219
11238
11304
11542
11770
11660
11740
11750
11759
11645
11780
11856
12000
11862
11849
11989
11908
11797
11960
12225
12505
12737
13031
13080
12851
12787
12556
12406
12126
12282
12223
12035
12208
14930
19578
25158
21281
8340
8332
9797
11118
12401
12967
13004
13219
13580
13824
13655
13947
14061
14290
14632
14914
15009
15344
15764
16268
16619
17061
17316
17260
17139
16870
16412
15683
14786
13827
12834
12080
11615
11269
11123
10888
10899
11058
11297
11343
11495
11685
11872
11862
11829
11654
11813
11881
11808
11842
12045
11992
11752
11903
11894
12186
12497
12817
13061
13068
12981
12888
12642
12492
12326
12296
12402
12070
12074
14422
19226
25119
22581
9070
8251
9706
11191
12324
12914
12985
13302
13595
13719
13679
13864
14073
14295
14749
14874
15136
15392
15768
16184
16651
16901
17220
17416
17343
17075
16520
15770
14841
13798
12794
11980
11629
11289
11113
11014
11153
11183
11311
11543
11541
11638
11667
11644
11835
11935
11836
11894
11857
11916
11757
11931
11956
12070
11878
12077
12061
12258
12677
13006
13271
13136
13041
12826
12665
12392
12310
12405
12431
12210
11939
13614
17983
23825
24547
11332
7466
9465
11106
12186
12850
13207
13218
13476
13718
13958
13958
14095
14331
14700
14808
15082
15423
15869
16176
16692
17094
17222
17276
17364
17282
16853
16210
15324
14426
13325
12478
11789
11582
11297
11249
11187
11385
11508
11620
11574
11553
11576
11732
11910
11839
11789
11790
11822
11795
11870
11820
11891
11916
11951
11940
12002
11952
11918
12370
12900
13194
13314
13221
12983
12782
12813
12673
12376
12432
12458
12332
12503
15067
19850
25563
20918
8059
7950
9940
11652
12537
13079
13285
13496
13606
13737
13919
14034
14020
14318
14735
15088
15189
15510
15883
16387
16758
17244
17324
17427
17407
17153
16661
15895
15171
14207
13285
12368
11732
11279
11292
11251
11139
11189
11477
11486
11589
11671
11775
11794
11793
11872
11799
11761
11881
11864
11794
11698
11801
11890
11927
11918
11979
12011
12167
12576
12890
13134
13069
13039
12822
12630
12449
12492
12385
12399
12472
12315
14049
18275
24112
24555
11405
7148
9328
10937
12159
12724
13108
13403
13478
13573
13865
14029
14139
14277
14541
14783
14881
15315
15649
16397
16809
17186
17317
17486
17360
17064
16503
16128
15376
14420
13218
12274
11635
11272
11296
11183
11093
11184
11322
11339
11489
11582
11765
11711
11674
11646
11757
11708
11810
11876
11894
11705
11785
12035
12002
12004
11890
11738
11917
12394
12605
12952
13157
13145
12847
12677
12646
12473
12307
12305
12213
11967
12835
16292
21727
25843
16746
7144
8927
10296
11761
12561
12944
13090
13387
13554
13763
13885
14104
14260
14421
14781
15114
15427
15857
16326
16804
16963
17279
17546
17591
17471
17032
16482
15696
14734
13532
12802
11973
11636
11351
11115
11057
11121
11072
11213
11599
11704
11791
11834
11853
11708
11844
11954
11964
12026
12154
11993
11963
11944
12008
11941
11927
12077
12353
12695
13043
13297
13174
13132
12980
12736
12496
12438
12387
12534
12238
12021
13853
18305
24152
24380
11042
7472
9193
10819
12203
12993
13191
13264
13497
13743
13867
13816
14085
14454
14667
14800
15079
15434
15949
16394
16982
17223
17410
17411
17331
17016
16674
16237
15360
14330
13172
12387
11747
11298
11034
11046
11081
11118
11125
11418
11633
11595
11557
11628
11613
11599
11601
11843
11911
11804
12013
11818
11768
11824
11994
12119
12023
11746
11943
12388
12698
12896
13237
13269
13048
12909
12793
12740
12553
12451
12337
12223
12086
13676
17737
23745
24877
12096
7011
9344
11182
12271
12797
12995
13279
13177
13385
14155
14170
14305
14528
14627
14875
15156
15576
15857
16193
16706
17013
17084
17545
17531
17285
16952
16489
15656
14578
13594
12671
11979
11495
11245
10909
11020
11370
11573
11460
11513
11638
11846
11795
11793
11829
11843
11865
11819
11785
11793
11992
12032
11966
11893
11928
11795
12050
12403
12770
12972
13201
13015
12803
12734
12756
12525
12503
12473
12371
12042
12979
16753
22098
25786
15977
6871
8609
10358
11854
12816
13104
13211
13604
13707
13818
14075
14269
14462
14540
14773
15172
15496
15803
16130
16746
17136
17281
17394
17652
17395
16979
16320
15540
14651
13649
12687
12088
11580
11251
10988
10909
10986
11042
11254
11329
11339
11211
11634
11828
11776
11680
11818
11821
11871
11824
11908
11876
11843
11782
12003
12087
12353
12751
13085
13245
12968
12854
12629
12585
12367
12370
12350
12266
11955
12770
16255
21646
25898
17194
7404
8829
10163
11621
12480
12831
13164
13488
13721
13832
13995
14085
14378
14560
14707
14865
15311
15718
16175
16676
17096
17314
17478
17403
17230
16815
16282
15503
14463
13480
12557
12028
11540
11264
10997
10960
10990
11096
11103
11288
11282
11513
11767
11846
11771
11666
11736
11883
11874
11720
11948
12131
12055
11808
11938
12139
12358
12762
13154
13097
12762
12727
12652
12386
12175
12147
12199
11909
11813
14258
18911
24936
23067
9586
8107
9609
10979
12160
12854
13090
13402
13579
13571
13746
14022
14244
14279
14439
14664
15043
15482
15839
16302
16730
17184
17339
17482
17365
17143
16704
16012
14847
13856
13000
12158
11540
11116
10966
10956
11170
11168
11247
11362
11520
11439
11498
11665
11741
11782
11797
11803
11894
11919
11912
11926
11895
11980
12061
12046
12064
12392
12834
13259
13292
13264
13017
12763
12548
12410
12373
12423
12378
11873
12540
16224
21946
25885
16483
7020
8826
10590
11965
12678
13180
13450
13667
13950
14032
14179
14335
14490
14691
15109
15309
15813
16316
16706
16963
17225
17430
17442
17232
16814
16292
15546
14596
13458
12738
12146
11749
11451
11360
11248
11282
11422
11561
11562
11624
11790
11798
11801
11842
11949
11933
11994
11995
11967
11863
12021
11899
11825
12000
12200
12151
11990
11823
12113
12826
13235
13379
13122
13115
12913
12800
12458
12408
12470
12660
12279
12473
14727
19291
25037
22501
9023
7703
9855
11949
12675
13233
13452
13444
13632
13955
14160
14199
14323
14512
14778
15048
15304
15607
16082
16444
16959
17219
17521
17592
17423
17231
16803
16184
15410
14302
13454
12570
11884
11550
11203
11120
11170
11395
11370
11401
11447
11476
11593
11592
11628
11767
11817
11754
11917
11909
11914
11771
11784
11837
11872
11800
11950
12245
12733
13040
13130
12977
12924
12717
12664
12504
12306
12437
12248
11912
12992
16896
22289
25842
15890
7279
8975
10831
12030
12758
13139
13255
13295
13520
13757
13916
13992
14213
14445
14678
15001
15315
15771
16210
16601
17024
17337
17381
17421
17083
16763
16307
15646
14503
13350
12476
11773
11295
11124
11008
10930
10967
10978
11219
11443
11632
11573
11589
11638
11736
11821
11871
11711
11833
11834
11922
11827
11833
11881
11825
12107
12486
13008
12945
12909
12832
12627
12423
12294
12340
12377
12290
11813
12258
15494
20639
25784
19099
7647
8821
10650
11996
12695
13034
13198
13311
13463
13733
13767
14031
14242
14442
14673
14915
15191
15694
16029
16514
17062
17205
17364
17306
17140
16822
16265
15466
14685
13586
12531
11804
11322
11058
11107
10917
11047
11193
11236
11458
11664
11773
11716
11812
11802
11747
11649
11929
11971
11999
11858
11900
11971
11972
11924
12168
12489
12794
13081
13137
12926
12693
12664
12624
12455
12423
12402
12242
11850
12907
16860
22895
25703
14227
7462
9663
11375
12407
13011
13210
13342
13467
13723
13897
13916
14160
14403
14663
14787
15107
15451
15885
16014
16582
17040
17450
17444
17285
16965
16843
16327
15374
14441
13304
12430
11966
11636
11175
11026
11062
11243
11249
11441
11517
11676
11579
11676
11900
11757
11785
11897
11859
11747
11831
11830
11836
11880
12067
11929
11834
12058
12567
12902
13121
13120
13110
13141
12767
12562
12420
12302
12295
12318
12073
12779
16229
21755
25917
16973
7296
9319
10958
12279
12862
13049
13329
13741
13887
13939
14015
14093
14248
14441
14722
15243
15603
15734
16168
16594
17114
17335
17408
17380
17143
17005
16573
15640
14739
13749
12773
11944
11684
11370
11168
11223
11202
11363
11469
11538
11494
11584
11787
11917
11921
11726
11789
11968
11972
11893
11836
12077
12077
12008
11919
12090
12576
12774
13194
13264
13009
12719
12703
12644
12401
12218
12262
12310
12098
13031
16919
22662
25345
9379
7325
9545
11249
12457
12938
13029
13253
13532
13527
13767
13902
14076
14266
14558
14767
15161
15397
15743
16225
16671
16956
17144
17266
17316
17206
16787
16155
15381
14608
13435
12512
11865
11644
11252
11104
10973
11195
11271
11486
11482
11459
11560
11688
11769
11723
11881
11798
11788
11818
11916
11929
11974
11868
11812
11756
12101
12373
12872
12980
12848
12896
12826
12542
12431
12197
12242
12447
12065
11908
13752
18333
24167
24205
7751
8251
9702
11384
12307
12755
12967
13249
13330
13715
13926
13999
14104
14243
14563
14835
15137
15498
16020
16337
16870
17272
17646
17422
17289
17056
16716
15985
15128
14036
13110
12304
11641
11256
11123
11015
11062
11185
11187
11254
11324
11693
11726
11753
11848
11880
11796
11940
12036
11963
11936
11965
11909
11701
11832
12281
12764
12933
13093
12945
12797
12634
12624
12310
12239
12326
12394
12146
12306
15163
20175
25715
20495
7510
8996
10298
11846
12812
13135
13410
13625
13723
13666
13995
14190
14398
14487
14671
14954
15318
15620
16005
16465
16851
17268
17476
17574
17204
16991
16282
15505
14645
13513
12467
12186
11722
11368
11082
11072
10947
11199
11378
11447
11767
11792
11742
11770
11886
11606
11819
12025
11935
11937
12042
11993
11937
11841
11912
12131
12481
12887
13191
13269
13100
12988
12717
12658
12288
12477
12498
12386
12024
12516
15605
20890
25799
18341
7483
9330
10690
12028
12844
13098
13194
13293
13319
13730
14006
14166
14400
14305
14591
14889
15200
15566
16205
16672
17068
17292
17320
17286
17121
16695
16293
15672
14786
13711
12668
11909
11413
11318
11114
11074
11075
11343
11400
11373
11417
11719
11622
11779
11901
11994
11908
11675
11759
11810
11962
11960
11955
11661
11846
11923
12084
12416
12680
12980
13117
12861
12791
12760
12589
12353
12179
12223
12226
11976
12976
16824
22625
23077
9364
7299
9540
11480
12362
12825
12997
13351
13495
13694
13708
14131
14254
14333
14387
14745
14982
15320
15698
16154
16634
16915
17269
17249
17311
17075
16570
16138
15411
14348
13568
12513
11873
11541
11341
11255
11175
11183
11224
11310
11406
11726
11694
11753
11941
11876
11816
11716
11597
11789
11956
12044
11983
11994
12077
12173
11981
11705
11961
12677
13271
13349
13180
13013
13031
12781
12438
12257
12464
12541
12338
12148
14311
21040
25781
18702
7152
8126
10332
11939
12712
13216
13377
13503
13647
13779
13848
14071
14170
14493
14717
14905
15310
15752
16040
16429
16782
17050
17292
17390
17460
17071
16629
16336
15408
14191
13318
12439
11940
11508
11305
11124
11320
11384
11254
11357
11575
11549
11604
11782
11717
11756
11787
11883
11775
11873
11837
11923
11932
11886
11894
11943
12180
12665
12848
12973
13010
13047
12974
12658
12341
12077
12279
12439
12210
12245
16594
22045
25874
16449
7168
8847
10261
11509
12416
12934
13235
13428
13539
13623
13645
13961
14185
14490
14472
14932
15382
15762
16053
16473
16671
17180
17460
17374
17238
17039
16564
15878
14965
13805
12818
11865
11317
11212
11198
10775
10758
11019
11282
11456
11629
11610
11656
11695
11826
11839
11785
11732
11904
11966
11963
11963
11837
11791
11794
12173
12591
12999
13090
13117
12854
12516
12606
12567
12335
12395
12319
11979
12196
15428
23101
25520
13725
7309
9271
10572
11954
12772
13023
13299
13569
13600
13689
13755
14168
14437
14564
14732
15065
15414
15646
16092
16619
17035
17254
17420
17290
17067
16794
16505
15715
14699
13469
12625
11889
11408
11122
11047
11089
11241
11416
11466
11531
11558
11564
11597
11939
11868
11851
11943
12000
11936
11904
11968
12104
11960
11931
11819
12133
12468
12868
13320
13289
13111
12998
12755
12455
12335
12362
12455
12188
11864
13142
7087
8997
10696
11916
12508
13093
13413
13557
13556
13745
13779
13864
14140
14497
14765
14871
14961
15479
16115
16393
16649
16964
17255
17255
17049
16658
16331
15728
14769
13765
12870
11959
11531
11244
11040
11019
11062
11231
11328
11385
11541
11612
11611
11708
11732
11752
11800
11965
11782
11683
11890
12059
11969
11909
11863
12247
12837
13107
13216
13032
12885
12581
12631
12516
12337
12353
12418
11964
12281
15520
20807
25613
18818
6844
9173
10965
12094
12692
13017
13367
13470
13625
13810
13963
14051
14300
14514
14763
14935
15243
15650
16180
16451
16875
17288
17433
17202
16897
16903
16466
15625
14632
13517
12594
12040
11434
11260
11156
11121
11166
11213
11434
11602
11575
11662
11632
11821
11868
11864
11895
11835
11855
11883
11891
11995
12065
11774
11761
11823
12262
12824
13031
12983
12961
13002
12806
12644
12493
12321
12304
12321
11966
12775
16248
21831
25750
16780
7276
9394
10887
12234
12847
13124
13183
13443
13456
13729
13913
14127
14359
14448
14629
14978
15293
15638
16053
16403
16942
17271
17402
17244
17074
16794
16286
15572
14681
13605
12653
11966
11557
11167
10940
11086
11029
11114
11199
11382
11330
11661
11766
11892
11748
11686
11788
11862
11866
11663
11898
11771
11792
11796
12193
12430
12698
12834
12843
12739
12800
12507
12344
12212
12247
12218
11950
11861
14058
18694
24510
23427
9953
8810
10026
11456
12403
13008
13197
13358
13547
13691
13796
14031
14091
14447
14641
14916
15119
15553
16040
16438
16949
17309
17376
17324
17213
16904
16496
15740
14921
13955
12904
11879
11511
11269
11268
11081
11001
11111
11288
11412
11650
11763
11770
11833
11807
11932
11856
11931
11814
11876
11976
12030
11955
12068
12024
12133
12524
12845
13217
13147
12993
12950
12682
12450
12501
12535
12633
12399
12047
13359
17523
23511
25386
13107
7697
9902
11351
12403
13040
13154
13413
13508
13646
13802
13861
14046
14433
14702
14732
15167
15468
15749
16159
16705
17049
17336
17389
17245
16775
16642
16317
15364
14169
13161
12322
11580
11188
11208
11352
10972
11056
11394
11582
11448
11550
11551
11719
11872
11936
11772
11699
11672
11743
11911
11867
11734
11813
12030
11963
11861
12113
12644
12900
13164
13019
12969
12763
12621
12551
12468
12376
12358
12205
11977
14028
18662
24729
23182
7460
8494
10454
11947
12745
13016
13215
13426
13567
13662
13784
13818
14136
14411
14775
14975
15226
15665
16062
16333
16757
17181
17238
17375
16994
16728
16561
16222
15342
14299
13205
12431
11769
11454
11218
11125
11255
11399
11346
11390
11729
11863
11824
11730
11869
11815
11786
11745
11768
11737
11889
11985
12135
12048
11937
11890
12154
12524
12777
13000
13075
12981
12843
12855
12758
12425
12245
12497
12398
12034
13093
16995
22699
25347
9656
7563
9638
11244
12330
12858
13115
13408
13547
13546
13842
14047
14226
14307
14520
14752
15031
15259
15786
16171
16683
17106
17402
17520
17262
16941
16649
16290
15557
14533
13431
12512
11855
11620
11239
11203
11096
11108
11144
11352
11528
11587
11546
11708
11872
11794
11766
11677
11698
11641
11805
11912
11864
11661
11952
11964
12106
12348
12790
13003
12751
12838
12683
12516
12368
12214
12235
12252
11926
12088
14308
18905
24753
18558
7515
8761
9919
11506
12385
12906
13117
13407
13538
13714
14054
14061
14169
14414
14711
14903
15235
15477
16093
16626
17032
17022
17367
17459
17200
16901
16670
15998
15072
13907
12882
12042
11581
11363
11241
11005
11024
11289
11291
11374
11348
11543
11854
11982
11842
11902
11848
11865
11840
11907
11902
11819
12025
12025
11877
11910
12467
12791
12901
12887
13122
12982
12752
12528
12494
12397
12343
12212
11838
13000
16837
22586
25779
9981
7927
9323
11021
12316
12861
12998
13285
13481
13509
13745
13927
14155
14370
14558
14695
14985
15542
15867
16083
16498
17084
17410
17486
17364
17190
16794
16155
15337
14349
13239
12421
11736
11392
11104
11205
11236
11264
11291
11409
11498
11618
11767
11856
11795
11799
11820
11862
11956
11960
12078
11938
11940
11828
11828
11979
12208
12579
13031
13141
13019
13133
12970
12690
12358
12460
12420
12395
12189
11873
13129
17206
23077
22445
8958
7759
9751
11463
12349
12780
13249
13473
13518
13567
13812
14044
14190
14354
14612
14810
15170
15424
15863
16153
16574
17125
17388
17423
17287
16973
16767
16298
15415
14331
13322
12426
11733
11521
11205
11211
11052
11205
11432
11490
11412
11471
11665
11787
11936
11938
11760
11717
11969
11899
11848
11821
11913
12015
12104
12003
12028
12306
12605
12961
13200
13063
12896
12771
12740
12635
12383
12352
12531
12202
12203
14726
19670
25632
15600
6896
8780
10799
12062
12733
12925
13062
13247
13693
13875
13978
14123
14280
14448
14567
14889
15093
15608
16008
16439
16748
16984
17082
17331
17197
16999
16502
15824
14904
13895
12948
12185
11589
11133
10923
10917
11369
11643
11760
11463
11472
11339
11328
11451
11745
12081
11907
11850
11847
11906
11910
11839
11774
11721
11581
11862
12260
12523
12717
13161
13098
12909
12796
12602
12445
12408
12408
12482
12181
11982
13088
18580
24234
23984
10717
7550
9704
11025
12271
12817
13153
13066
13254
13554
13786
14009
14149
14244
14464
14856
15092
15336
15636
16112
16784
17284
17349
17380
17330
17254
16672
16133
15506
14491
13559
12602
11799
11299
10993
11099
10861
11078
11376
11309
11410
11496
11664
11630
11680
11640
11758
11694
11793
11722
11660
11623
11837
11784
11821
11733
11708
12223
12857
13196
13079
12873
12833
12675
12572
12206
12043
12218
12244
12058
12609
17567
23068
25280
13471
7332
9317
10592
11900
12812
13177
13208
13560
13654
13718
14045
14396
14270
14495
14761
15059
15359
15880
16181
16624
17123
17483
17549
17365
17223
17051
16548
15529
14600
13693
12818
11992
11515
11270
11210
11180
11314
11208
11327
11450
11706
11828
11815
11769
11991
12052
11873
11735
11779
11986
11949
12073
12037
11918
11894
12048
12292
12599
12829
13007
13137
13087
12844
12442
12359
12459
12455
12245
12111
12996
16751
22535
25772
14836
7389
9319
10870
11847
12715
13224
13339
13364
13624
13786
14003
14231
14246
14452
14624
14919
15260
15828
16129
16391
16814
17378
17537
17503
17208
16973
16566
15783
14812
13825
12837
12043
11604
11255
11140
11028
11172
11196
11377
11426
11501
11618
11762
11557
11715
11806
11799
11906
11804
11788
11868
11888
11795
11874
11776
11751
11976
12423
12831
13322
13260
13081
12696
12563
12512
12399
12262
12211
11970
12449
15429
20369
25298
19291
7688
8396
10230
11495
12185
12972
13428
13336
13543
13815
14025
13947
14069
14292
14568
14802
15126
15528
16018
16439
16813
16980
17311
17541
17245
17012
16551
16085
15325
14268
13092
12332
11817
11523
11259
11055
11022
11231
11525
11488
11557
11681
11754
11789
11850
11910
11803
11708
11698
11842
11975
12057
12031
12058
11994
11936
11889
11944
12317
12779
13078
13292
13018
12998
12709
12693
12436
12174
12258
12272
11922
13364
17368
23159
24840
13114
6857
9166
11104
12200
12854
13051
13463
13623
13539
13838
14152
14199
14343
14499
14830
14961
15256
15680
16226
16474
16962
17344
17518
17516
17380
17091
16475
15845
15070
13981
12866
12248
11737
11327
11085
11266
11341
11298
11331
11506
11581
11579
11437
11763
11789
11532
11779
11881
11981
11768
11894
11927
11999
12009
11971
11851
11879
12052
12524
12760
12950
12948
12920
12875
12816
12470
12333
12437
12322
11980
12380
15174
20190
25650
20164
7714
8170
9865
11410
12529
12891
13158
13343
13446
13679
13736
14007
14254
14557
14613
14902
15101
15458
15921
16517
16994
17261
17325
17457
17417
17227
16768
16153
15250
14074
12979
12121
11548
11233
11189
10918
11000
11110
11318
11234
11454
11648
11705
11605
11566
11760
11842
11861
11880
11911
11880
12028
12072
12025
11908
11983
12101
12388
12721
13052
13060
12922
12849
12954
12840
12486
12378
12543
12301
12049
13388
17366
23038
25409
13862
7464
9284
10734
12030
12710
13150
13301
13598
13646
13831
14076
14157
14272
14585
14775
14909
15268
15727
16064
16574
17212
17459
17534
17499
17240
16975
16537
15617
14508
13465
12743
12025
11509
11349
11183
10979
10964
11271
11491
11557
11480
11640
11559
11799
11856
12018
11968
11796
11848
12048
11990
11885
11882
12011
12073
12098
12183
12265
12668
12988
13281
13169
12943
12779
12601
12311
12388
12440
12221
11764
12664
16384
21869
25826
16665
7062
8489
10479
11970
12678
12859
13153
13428
13672
13719
13954
14031
14229
14517
14922
15001
15202
15505
16072
16484
16896
17174
17292
17359
17325
17028
16525
15999
15067
14091
12894
12107
11681
11479
11297
11230
11168
11249
11444
11438
11423
11601
11802
11781
11848
11920
12014
11816
11794
11743
11898
11804
11895
11862
12149
12074
11928
11971
12369
12774
13008
13155
12951
12829
12640
12648
12480
12463
12504
12470
12193
12952
16286
21622
25199
16329
6885
8817
10942
12271
12834
13192
13362
13601
13795
13922
14150
14353
14551
14593
14769
14968
15315
15617
16048
16456
16817
17133
17469
17531
17378
17088
16748
16108
15129
14119
12962
12309
12048
11895
11502
11300
11089
11178
11340
11316
11267
11423
11477
11595
11529
11549
11595
11645
11729
11631
11648
11639
11653
11716
11876
11749
11740
11796
12189
12469
12809
12853
12797
12630
12439
12237
12156
12128
11829
12124
12072
12778
16133
21118
25029
16881
6954
8506
10389
11455
12364
13089
13164
13156
13375
13543
13702
13809
13889
14212
14695
14842
14918
15270
15735
16227
16703
16997
17232
17319
17213
17034
16568
15871
15003
14014
13023
12188
11527
11118
11080
10977
10752
11063
11334
11290
11514
11542
11466
11510
11647
11748
11704
11694
11770
11796
11815
11877
11958
11790
11872
12036
12461
12733
12970
13027
12954
12818
12668
12557
12334
12249
12414
12464
12218
13319
16873
21698
24756
15479
7193
9370
10625
11623
12532
13022
13289
13571
13690
13683
13777
13842
14023
14045
14692
15099
15373
15761
16114
16611
16840
17008
17402
17342
17311
17052
16479
15750
14743
13901
12668
12170
11821
11424
11299
11340
11044
11374
11992
12088
11936
12192
12393
12230
12021
11937
12261
12470
12406
12297
12385
12051
11974
11732
11964
12685
12916
13134
13130
12900
12704
12464
12360
12332
12400
12431
12515
13297
15914
19559
23049
18262
8088
8624
10726
11789
12674
13389
13641
13703
13704
13636
13720
13865
14163
14416
14870
14711
14862
15547
16035
16487
16775
16737
17010
16837
16704
16500
16151
15423
14537
13948
13385
12480
11862
11841
11606
11237
11620
11691
11690
11757
11757
11710
12122
12553
12421
12473
12372
12010
12030
12272
12328
12088
12255
12279
12431
12568
12781
12514
12468
12583
12622
12619
12671
12621
12907
12863
12731
13537
15815
18321
20047
13402
8587
9874
10598
11918
12862
12704
13021
13620
13551
13466
13711
13844
13792
14000
14193
14385
14652
14942
15222
15591
15966
15937
16111
16428
16070
15629
15697
15374
14404
13513
12884
12133
11668
11703
11810
11754
11724
11709
11838
11882
11868
12068
12054
11999
12271
12380
12098
12285
12451
12290
12009
12058
12353
12673
12657
12496
12514
12467
12662
12988
13275
13207
13145
13022
12635
12596
12520
12806
13027
12900
12865
13780
16164
19392
22112
15338
8294
9662
11086
12197
13064
13295
13591
13790
13767
13531
13853
14302
14365
14403
14443
14700
14969
15331
15624
16019
16363
16626
16786
16860
16721
16567
16233
15633
14835
14025
13272
12654
12242
11942
11668
11554
11614
11711
11989
12099
12137
12195
12215
12166
12207
12193
12163
12142
12120
12076
12060
12112
12151
