17527
17228
16543
15546
14547
13630
12737
12026
11580
11286
11239
11126
11197
11314
11373
11390
11480
11513
11647
11812
11752
11780
11923
11986
12031
12003
12004
12002
11871
11511
11234
12098
12572
12663
12751
12715
12746
12632
12255
12093
12593
12450
12435
12204
12146
14340
18580
23631
21962
9716
7687
9908
10670
11708
12672
13214
13411
13299
13502
14024
14160
14153
14211
14516
14755
14829
15186
15826
16166
16394
16689
16908
17100
17361
17152
16806
16195
15281
14187
13173
12303
11674
11421
11296
11241
11300
11299
11207
11183
11294
11479
11629
11651
11764
11950
11979
11982
12000
12087
12093
12139
12216
12079
11975
12033
12390
12896
13174
13265
13168
13096
12932
12799
12608
12514
12531
12564
12315
12002
13928
18072
23526
23193
10725
7600
9712
10725
11823
12709
13122
13284
13472
13631
13805
13956
14081
14204
14455
14698
14948
15339
15779
16199
16607
17074
17417
17667
17683
17496
17157
16521
15488
14335
13459
12640
11876
11504
11281
11225
11211
11277
11353
11438
11326
11582
11832
11846
11776
11744
11761
11841
11922
11875
11919
11907
11717
11789
12173
12034
11880
12338
12761
12849
13195
13408
13269
13012
12763
12513
12511
12554
12435
12223
12002
14066
18581
24307
22903
10194
8112
10009
10776
11998
12870
13147
13248
13518
13944
14098
14009
14068
14445
14658
14874
15124
15359
15687
16051
16497
17013
17448
17650
17736
17595
17146
16450
15525
14424
13346
12441
11817
11399
11213
11152
11169
11143
11265
11402
11495
11469
11535
11602
11762
11790
11614
11647
11817
11750
11835
11777
11691
11803
11853
11859
12112
12485
12702
12873
12691
12704
12720
12552
12385
12185
12189
12334
12165
11818
13277
17128
21869
23574
12677
6967
9235
10132
11513
12580
13174
13463
13543
13518
13636
13815
13929
14099
14256
14484
14746
15092
15399
15756
16182
16716
17218
17176
17022
17126
16903
16279
15491
14575
13595
12683
12025
11572
11275
11129
11100
11126
11270
11357
11450
11633
11660
11693
11856
11897
11925
11906
11951
11980
11943
11921
11986
11890
11915
11964
12233
12594
12851
13007
12901
12789
12658
12605
12421
12331
12352
12376
12214
12079
13764
17324
21553
22170
11498
7244
9694
11044
12140
12867
13239
13388
13534
13647
13757
13882
14066
14167
14342
14479
14725
15004
15326
15753
16120
16532
16900
17017
16968
16806
16544
16043
15254
14369
13487
12702
12100
11833
11665
11566
11512
11651
11728
11881
11922
12001
12019
12114
12156
12195
12237
12212
12240
12219
12235
12308
12255
12192
12184
12334
12661
12903
13086
13033
12941
12815
12760
12655
12530
12495
12529
12538
12440
13552
16284
19750
21760
13468
7885
9485
10783
12163
12957
13245
13364
13487
13622
13731
13904
14033
14138
14311
14445
14591
14850
15129
15481
15871
16255
16612
16774
16768
16724
16452
16003
15230
14399
13473
12716
12191
11914
11751
11641
11610
11657
11727
11869
11939
11916
12017
12092
12153
12179
12218
12204
12198
12101
12032
12292
12303
12242
12246
12395
12611
12958
13144
13173
13072
13015
12750
12708
12734
12540
12106
12139
12603
13066
15104
18518
22866
19321
8518
8552
10630
11836
12763
13124
13316
13384
13623
13782
13896
13981
14130
14407
14484
14638
15005
15248
15727
16270
16548
16805
17119
17127
16960
16711
16383
15830
14949
13957
13079
12190
11719
11381
10922
11231
11840
11783
11364
11711
12065
12216
12183
12110
12120
12305
12042
11995
12039
11810
11908
12290
12115
12049
12192
12362
12099
11966
12308
12789
13138
13243
13239
12905
12890
12905
12620
12545
12651
12570
12610
12584
13066
15757
19827
23585
17395
7551
8793
10683
11797
12710
13039
13368
13452
13663
13937
13998
13993
14357
14442
14541
14834
15293
15542
16012
16406
16818
17142
17441
17285
17191
17336
16932
16182
15207
14114
13122
12590
11843
11771
11566
11474
11586
11582
11536
11509
11525
11680
11669
11814
12043
12079
12061
11845
11816
11873
11903
11671
11793
11795
11968
11873
11962
12123
12377
12799
13141
12995
12963
12889
12616
12591
12362
12475
12516
12480
12209
12491
14640
18592
23491
20940
8712
7773
10130
11326
12127
12825
13327
13445
13531
13686
13841
13827
14116
14353
14528
14803
14966
15471
15943
16187
16788
17206
17381
17423
17437
17140
17017
16266
15407
14357
13390
12707
11993
11602
11277
11190
11327
11596
11458
11430
11432
11671
11710
11715
11790
11955
11775
11879
11941
11881
11762
11834
11808
11907
12051
11960
12114
12026
11908
11813
12355
12726
13074
13091
13112
12935
12752
12674
12495
12472
12344
12382
12317
12279
14150
18345
23768
22157
9474
7950
9868
11001
12048
12869
13213
13502
13684
13858
13905
14103
14212
14329
14580
14807
15066
15346
15959
16539
16961
17288
17473
17526
17670
17280
16669
16395
15846
14723
13656
12535
11861
11536
11330
11274
11196
11230
11328
11407
11629
11818
11701
11724
11760
11772
11691
11721
11684
11672
11754
11807
11922
11936
11993
11944
12057
12013
11873
11805
12350
12764
12962
12840
13105
13158
12934
12691
12465
12363
12555
12526
12062
12098
14277
18536
23862
21964
9124
8034
10027
11217
12235
12882
13318
13483
13487
13746
13907
14012
14222
14334
14674
15009
15184
15467
15713
16236
16782
17202
17577
17639
17590
17395
17265
16621
15696
14581
13557
12512
11795
11592
11541
11206
11134
11271
11304
11435
11564
11628
11726
11856
11869
11853
11679
11816
11796
11793
11937
12111
12023
12024
11900
11966
12063
12093
12161
11736
12275
12698
13008
13262
13246
13167
13147
12896
12681
12365
12398
12596
12646
12107
12681
15980
20927
25124
16325
7068
9851
10850
11802
12783
13276
13529
13652
13680
13651
13995
14129
14429
14480
14766
14979
15357
15574
16114
16582
17126
17533
17779
17776
17536
17528
16971
16193
15109
14115
13097
12217
11615
11336
11060
11194
11312
11330
11355
11359
11469
11624
11684
11541
11498
11692
11813
11724
11745
11837
11932
11826
11825
11815
11931
12040
11921
11711
12127
12722
13001
12925
12905
13017
12855
12657
12339
12380
12330
12298
12158
12151
14036
18132
24771
18946
7364
8718
10151
11160
12166
12970
13289
13529
13648
13847
13875
13995
14201
14385
14723
14847
15284
15695
16191
16475
16933
17263
17684
17777
17627
17491
17131
16463
15463
14543
13567
12587
11855
11510
11190
11211
11187
11259
11326
11402
11514
11707
11594
11750
11769
11868
11895
11929
11941
11891
11975
11934
11969
11957
12063
11938
12001
11982
12177
12537
12952
12954
13038
12933
12962
12988
12895
12594
12416
12489
12132
12115
14712
18872
24144
21933
8829
8158
10069
11324
12153
12806
13146
13245
13507
13689
13765
13996
14170
14324
14626
14836
14988
15440
15928
16358
16799
17144
17432
17652
17739
17602
17328
16627
15852
14751
13710
12709
11848
11444
11305
11006
10847
11183
11309
11370
11695
11838
11728
11667
11598
11779
11775
11747
11669
11666
11753
11914
11943
11816
11751
11991
11956
11843
11866
12185
12650
12952
12957
12853
12865
12784
12563
12326
12308
15011
19332
24514
20253
7912
8207
9911
11230
12233
12674
12941
13200
13428
13571
13887
14010
14112
14299
14549
14767
14940
15405
15825
16370
16628
16948
17588
17777
17623
17421
16890
16459
15828
14875
13500
12438
11747
11621
11409
11185
11221
11273
11276
11158
11337
11593
11639
11528
11740
11609
11915
12023
11947
12067
12096
11970
12024
12017
11944
11930
11946
11913
12044
11955
12205
12781
12975
13091
12959
13057
12997
12674
12382
12242
12705
12801
12416
12083
13512
17274
22801
24641
12529
7407
9678
10974
12190
12953
13339
13444
13579
13544
13825
14112
14242
14159
14544
14785
15175
15421
15818
16223
16500
16947
17557
17677
17568
17742
17565
17030
16088
15185
14186
13150
12225
11610
11407
11335
11129
11016
11228
11426
11365
11423
11634
11693
11720
11685
11826
11832
11834
11734
11911
11910
11820
11751
11983
11959
11777
11861
11987
11962
12072
12136
11958
12296
12724
13234
13247
13117
12887
12997
12805
12686
12485
12396
12526
12415
12152
13630
17470
22903
24686
12631
7592
9666
10978
12196
12996
13355
13603
13702
13779
13804
13964
14169
14371
14539
15015
15251
15487
15845
16285
16721
17169
17448
17601
17833
17550
17380
17114
16365
15373
14222
13124
12506
11837
11439
11175
11040
11059
11303
11370
11520
11618
11493
11657
11796
11876
11806
11787
11749
11929
11893
11850
11883
11951
12040
12199
12177
12076
12048
12015
12134
12297
12460
12434
12115
11935
12610
13038
13408
13528
13480
13436
13282
13054
13015
12815
12676
12624
12625
12170
13155
16892
22361
25556
15196
7750
9488
10789
12005
13025
13386
13547
13650
13779
13911
14187
14212
14282
14576
14847
15074
15535
15832
16230
16695
17065
17542
17768
17790
17864
17728
17315
16720
15637
14613
13618
12613
11834
11435
11234
11094
11144
11159
11342
11485
11311
11476
11745
11732
11844
11935
11747
11662
11793
11862
11833
11906
11953
12024
12020
12117
12194
12196
12149
12066
12152
12196
12074
12285
12593
13051
13237
13230
13332
13306
12922
12725
12658
12584
12574
12451
12199
12779
15943
20729
25286
18274
7673
9166
10272
11481
12498
12934
13349
13579
13818
13928
14146
14297
14309
14533
14718
15007
15398
15649
16077
16496
16784
17223
17777
17911
17892
17637
17203
16578
15778
14551
13544
12615
11899
11438
11205
11059
11021
11060
11171
11316
11351
11395
11473
11568
11644
11718
11734
11749
11800
11761
11824
11848
11763
11795
11943
12039
12027
11935
12090
12215
12166
11980
12150
12636
13016
13068
13174
13245
13178
12810
12698
12484
12312
12424
12617
12316
12336
14771
19313
24936
20826
8293
8365
9872
11252
12420
13173
13308
13347
13625
13946
13969
14066
14325
14469
14628
14733
15047
15641
16144
16497
16966
17342
17667
17887
17921
17866
17431
16751
15932
14888
13321
12368
11713
11337
11029
11094
11105
11132
11187
11230
11319
11508
11636
11697
11734
11868
11917
11933
11876
11898
11833
11845
11884
11866
11919
11991
12021
12189
12156
12051
12154
12221
12317
12159
12021
12419
12895
13110
13241
13325
13173
13238
13020
12735
12604
12616
12591
12371
12063
13246
17022
22544
25327
14088
7647
9646
10723
11938
12748
13227
13534
13599
13584
13968
14216
14311
14372
14476
14690
15014
15394
15882
16084
16753
17172
17529
17891
17934
17663
17361
16881
16165
15100
13969
12780
12012
11584
11252
11199
11067
10930
11180
11243
11225
11460
11533
11491
11685
11782
11782
11738
11711
11798
11845
11897
11912
11917
11906
11915
11925
12086
12133
12034
12062
12118
12193
12326
12426
12448
12300
12382
12712
13277
13440
13483
13315
13339
13158
13083
12929
12709
12691
12683
12363
12823
15973
20807
25760
18629
8006
9320
10428
11756
12706
13288
13485
13626
13912
13948
14045
14169
14427
14618
14817
15120
15521
15729
16345
16877
17250
17598
17754
17852
17766
17657
17222
16546
15595
14347
13355
12510
11810
11350
11110
11016
11089
11123
11068
11335
11530
11567
11513
11596
11661
11749
11811
11767
11816
11847
11818
11796
11883
11925
11857
12034
12124
12072
12036
11997
12036
12148
12277
12340
12330
12466
12447
12334
12477
12863
13197
13481
13482
13442
13387
13204
12952
12856
12788
12802
12494
12400
13285
16807
21983
25761
16068
7734
9560
10736
11981
12859
13188
13417
13699
13806
13843
13967
14141
14275
14374
14700
15056
15185
15506
16121
16530
16899
17264
17787
17912
17816
17671
17321
16686
15781
14633
13645
12711
11906
11319
11198
11231
11338
11171
11156
11271
11444
11491
11547
11663
11762
11852
11868
11919
11908
11825
11846
11821
11728
11946
12108
12059
11889
12069
12092
12145
12201
12247
12222
12251
12358
12230
12151
12506
12921
13196
13443
13376
13352
13323
13153
13007
12802
12669
12593
12800
12401
12900
16237
21462
25978
18301
7779
9251
10461
11754
12712
13194
13367
13441
13514
13810
14171
14300
14395
14601
14759
14942
15225
15649
15872
16427
16902
17413
17778
17958
17941
17650
17292
16705
15909
14853
13679
12588
11670
11426
11329
11025
10835
10953
11076
11217
11252
11438
11577
11561
11575
11705
11712
11672
11791
11810
11762
11775
11803
11844
11859
11890
11895
11940
11967
11968
11926
11960
12449
12884
13067
13129
13119
13079
12917
12706
12508
12403
12600
12590
12185
12341
15008
19308
24470
21047
8515
8462
10145
11032
12158
12967
13213
13517
13578
13712
13899
14031
14104
14316
14691
14883
15052
15376
15737
16178
16806
17366
17622
17711
17758
17767
17407
16726
15724
14606
13478
12421
11795
11213
10990
11024
10990
11026
11045
11229
11308
11313
11503
11562
11527
11660
11863
11946
11953
11843
11851
11795
11865
11997
11973
12082
12161
12157
12170
12122
12466
12918
13001
13151
13106
13071
12822
12798
12624
12382
12572
12611
12351
12151
14118
18440
23846
23096
10299
8039
9984
10947
12169
12951
13274
13428
13657
13839
13949
14049
14195
14188
14600
14900
15085
15447
15807
16270
16834
17279
17535
17805
17867
17620
17450
16950
16012
14818
13710
12725
11989
11440
11254
11000
10936
11088
11096
11069
11173
11459
11442
11550
11720
11754
11624
11852
11920
11873
11747
11825
11860
11836
11705
11869
12054
11976
11796
12063
12528
12803
13088
13075
12943
12906
12795
12611
12543
12483
12470
12468
12248
12135
14412
18820
24327
23066
9847
8108
9755
10937
12189
12871
13071
13307
13570
13688
13807
13913
14093
14264
14384
14670
14965
15389
15912
16333
16702
17023
17636
17934
17880
17699
17380
16790
15874
14823
13745
12693
11988
11423
10949
10996
11040
11050
11232
11199
11370
11355
11472
11693
11804
11784
11727
11711
11793
11913
11999
12046
12020
11959
11901
11950
11965
11881
11654
11997
12632
13035
13098
13121
13135
12987
12734
12543
12436
12361
12392
12422
12116
12362
15327
20044
25399
20542
8023
8323
10023
11403
12379
12931
13087
13338
13727
13839
13862
14054
14190
14402
14544
14679
15088
15566
15819
16331
16839
17286
17429
17806
17816
17494
17360
16659
15705
14558
13374
12384
11739
11398
11148
10860
11039
11045
11208
11387
11461
11504
11608
11638
11883
11905
11965
11952
11910
11878
12068
12060
12118
11998
11975
12008
12035
12154
12031
11946
12160
12673
12943
13242
13245
13072
13059
12924
12795
12516
12339
12384
12686
12107
12403
15804
20914
25853
19135
7813
8958
10226
11679
12657
13133
13094
13454
13769
13872
14086
14127
14189
14416
14804
14971
15220
15515
16037
16326
16846
17410
17722
17851
17869
17721
17340
16617
15827
14242
13110
12161
11567
11208
10966
10961
10975
11102
11225
11462
11488
11612
11607
11721
11697
11768
11799
11851
11818
11830
11693
11838
11987
11915
12048
12050
12081
12176
12151
12208
12583
12857
13102
12966
13134
12996
12755
12837
12596
12669
12747
12642
12134
12524
15739
20697
25546
19155
7766
9191
10265
11307
12177
13028
13398
13509
13671
13838
13967
13961
14159
14409
14558
14673
15066
15702
16090
16519
16921
17362
17634
17687
17640
17236
16801
16069
15050
13693
12882
12197
11549
11236
11131
10851
10861
11085
11138
11165
11291
11388
11474
11667
11742
11878
11937
11943
11852
11932
11803
11854
11848
11962
12018
12096
12152
12146
12059
12114
12437
12700
12999
13124
12959
12841
12997
12770
12663
12529
12493
12379
12114
12184
14701
19085
24733
21858
9097
8487
10099
11137
12112
12860
13195
13366
13488
13708
13909
13983
14076
14397
14541
14755
14978
15382
15754
16141
16977
17476
17665
17768
17678
17524
17069
16307
15314
14204
13135
12178
11758
11278
11048
10841
11011
11131
11142
11158
11275
11364
11463
11488
11625
11716
11690
11686
11620
11774
11876
11978
11747
11904
11936
12110
12060
11965
11965
12060
12117
12349
12569
12992
13286
13245
13119
13002
12858
12654
12523
12572
12549
12318
12030
12705
15986
20722
25723
18420
7797
9118
10295
11606
12426
12878
13194
13530
13644
13721
13923
14169
14227
14473
14713
14956
15386
15852
16154
16574
17090
17503
17726
17607
17631
17507
16945
15998
15199
14037
13042
12228
11606
11183
11139
11127
11095
11093
11475
11537
11497
11628
11666
11647
11699
11793
11585
11716
11812
11913
11841
11997
11989
11978
11954
12020
12095
12175
12022
12137
12136
12222
12139
12317
12784
13117
13351
13261
13179
13000
13010
12940
12685
12632
12679
12619
12178
12524
15686
20426
25813
19395
8179
9285
10433
11725
12599
13258
13372
13652
13854
13904
13961
14205
14192
14417
14627
15095
15490
15804
16052
16576
17086
17570
17688
17782
17733
17535
17065
16175
15256
14189
13161
12246
11676
11243
11241
11118
11096
11072
11140
11203
11414
11535
11544
11601
11635
11724
11788
11894
11842
11855
11873
11898
11838
11951
12113
12156
11947
12093
12161
12168
12183
12293
12334
12418
12329
12172
12556
12894
13241
13393
13347
13344
13229
13033
12839
12586
12598
12683
12586
12121
13952
18123
23851
24128
11653
8122
9811
10983
12198
12963
13319
13484
13505
13719
13949
13989
14121
14479
14595
14858
14982
15450
15869
16240
16704
17145
17526
17856
17884
17799
17559
17054
16328
15298
14148
13099
12406
11757
11377
11170
11208
11145
11293
11380
11431
11486
11609
11810
11794
11800
11735
11878
11857
11803
11843
11983
11985
12090
11994
11909
12010
12169
12118
12048
12178
12358
12265
12131
12145
12454
12877
13211
13296
13281
13216
13167
13045
12795
12597
12549
12680
12352
12151
13628
17678
23165
24877
13063
7840
9768
10732
11968
12916
13360
13387
13470
13752
14000
14032
14102
14171
14464
14661
14969
15188
15749
16205
16584
17008
17432
17631
17687
17644
17311
16870
16200
15124
14082
13250
12356
11725
11222
11019
10919
10941
11094
11134
11254
11304
11149
11372
11726
11802
11927
11872
11816
11842
11972
11930
11823
11679
11854
11930
11913
12017
12124
12027
11944
12060
12457
12850
13136
13193
13080
13006
12831
12657
12426
12320
12363
12411
12172
12162
14362
18782
24075
22521
9691
8300
10069
11033
12065
12824
13310
13552
13499
13650
13970
14016
14042
14266
14595
14898
15135
15363
15825
16270
16724
17195
17550
17524
17620
17545
17231
16738
15842
14701
13532
12756
11988
11551
11291
11241
11099
11120
11277
11273
11294
11382
11471
11547
11652
11748
11827
11893
11903
11761
11859
11966
12035
11977
12084
12010
12157
12096
12070
11922
12343
12821
13161
13196
13212
13164
12972
12570
12448
12489
12558
12576
12340
12008
13295
17279
22614
25096
13381
7482
9439
10649
11855
12584
13137
13471
13629
13697
13828
13994
14106
14124
14315
14504
15012
15336
15604
15995
16485
16919
17536
17737
17798
17629
17390
16820
15972
14980
14137
13095
12149
11709
11374
11139
10907
11020
11258
11294
11271
11433
11552
11690
11698
11768
11675
11799
11756
11851
11946
11949
11830
11834
11967
12182
12247
12093
11895
11924
12462
12855
13212
13200
13221
13129
12882
12716
12646
12477
12388
12531
12356
11906
13530
17712
23218
24716
12140
7945
9800
10926
12045
12757
12959
13482
13455
13632
13839
13979
14192
14303
14550
14709
15033
15307
15666
16061
16541
16980
17375
17758
17903
17638
17464
16880
16190
15056
13914
12822
12062
11530
11336
11153
10996
10951
10991
11308
11423
11481
11392
11585
11730
11726
11652
11935
12049
11966
11846
11902
11925
12065
12029
12133
12096
11932
12025
12278
12669
13188
13319
13276
13324
13139
12892
12695
12615
12510
12635
12506
12108
12541
15816
21012
25965
18370
7494
9045
10142
11558
12481
12992
13178
13201
13562
13908
13911
14018
14142
14404
14556
14865
15318
15710
16087
16430
16829
17340
17660
17603
17598
17426
17145
16401
15443
14335
13387
12347
11650
11235
11078
11078
10988
10895
11133
11267
11418
11457
11608
11619
11667
11702
11758
11771
11788
11920
11793
11764
11844
11972
11869
11972
11808
12140
12543
12843
13128
12968
12864
12709
12571
12449
12296
12365
12407
12193
12038
13149
17035
22153
24942
14091
7201
9563
10579
11584
12562
12940
13132
13530
13662
13806
13936
14214
14318
14493
14592
14862
15133
15552
15740
16271
16817
17402
17762
17745
17476
17288
16827
15948
14987
14005
12870
11906
11472
11403
11314
11035
10922
11059
11326
11374
11516
11468
11747
11734
11882
11972
11980
12002
11904
11871
11828
11829
11910
11945
11918
12064
12197
12710
13069
13078
13030
12980
12680
12442
12388
12295
12418
12477
12240
12075
13885
17931
23277
23953
11340
7575
9785
10647
11768
12676
13056
13295
13486
13651
13771
13784
14026
14177
14284
14559
14941
15275
15681
16101
16561
17030
17434
17618
17521
17403
17170
16570
15673
14784
13778
12668
11900
11534
11254
11139
11127
11091
11224
11447
11380
11411
11512
11568
11778
11776
11826
11958
12058
11875
11926
11961
11887
11961
11982
11842
11942
12156
12611
12934
12913
12996
13004
12981
12692
12587
12361
12449
12409
12371
11911
12679
16291
21657
25776
16258
7456
9385
10598
11737
12521
12909
13385
13544
13559
13694
13888
13970
14050
14141
14498
14816
15175
15377
15850
16368
16843
17160
17410
17599
17468
17261
16812
15970
15027
14044
12903
12168
11425
11268
11072
11052
10998
11055
11057
11377
11403
11599
11751
11815
11781
11981
12027
11934
11930
11868
11895
11894
11947
11969
12120
12070
12014
12077
12531
12927
13231
13159
13086
13110
12816
12814
12565
12468
12536
12568
12214
12172
14613
19166
24781
22302
8863
8229
9835
11177
12267
12957
13228
13371
13469
13571
13775
13813
13969
14143
14549
14861
15128
15415
15805
16239
16798
17194
17560
17698
17535
17382
17096
16633
15820
14389
13465
12543
11799
11392
11014
11202
11176
11063
11200
11429
11512
11600
11582
11715
11707
11684
11629
11797
11886
11863
11749
11735
11833
11958
12035
11980
11911
11895
12398
12739
13033
12954
12796
12596
12612
12590
12548
12385
12346
12482
12279
12462
15116
19710
24643
20246
7744
8271
9957
11172
12375
13025
13266
13427
13558
13650
13687
13941
14065
14379
14608
14904
15241
15527
16008
16362
16798
17044
17337
17383
17395
17288
16865
15967
15038
14088
13069
12081
11580
11348
11244
10978
11045
11175
11255
11309
11544
11697
11609
11710
11732
11921
12006
11928
11831
11946
12000
12066
11965
11951
11973
12040
11942
12134
12540
12885
13089
13087
12917
12860
12784
12505
12412
12124
12129
12382
12046
13134
16755
21764
25075
15251
7018
9207
10274
11588
12557
12921
12995
13549
13842
13797
13912
14181
14235
14356
14560
14875
15233
15617
16078
16719
17254
17355
17488
17430
17333
17108
16681
15859
14679
13555
12824
11969
11528
11178
11248
11278
11241
11098
11257
11346
11487
11629
11673
11722
11715
11913
11850
11833
11833
11793
12002
12039
11984
12037
11910
12346
12210
11899
12167
12646
12713
13200
13152
13005
13024
12825
12654
12460
12561
12528
12358
12066
12276
14938
19528
25053
21082
8180
8714
10182
11245
12211
12852
13233
13348
13480
13553
13670
13972
14206
14174
14586
14771
15090
15493
15796
16262
16764
17163
17447
17569
17498
17161
16937
16208
15185
14235
13118
12240
11789
11450
11175
11262
11204
11169
11230
11535
11470
11524
11623
11879
11858
11851
11892
12022
11871
11798
11794
11826
12051
12191
12106
11983
12129
12248
12228
11964
11953
12168
12821
13094
13351
13276
13305
13207
12922
12638
12546
12557
12438
12541
12169
13118
17029
22640
25568
14581
7684
9688
10766
11995
12795
13105
13431
13642
13665
13605
13872
14165
14387
14584
14921
15238
15489
15807
16210
16731
17219
17367
17469
17510
17463
17192
16723
15944
14902
13743
12794
11999
11440
11232
11076
11177
11160
11348
11541
11590
11509
11590
11636
11789
11889
11805
11680
11952
11875
11797
12045
12098
12089
12112
12048
12099
12106
12059
12082
12054
12108
11918
12381
12922
13237
13346
13314
13233
13145
12935
12662
12551
12643
12762
12623
12243
12741
16125
21421
25963
17607
7392
9184
10371
11651
12697
13176
13619
13626
13514
13745
14188
14172
14303
14473
14742
14977
15309
15780
16177
16575
16867
17397
17616
17713
17570
17274
16768
16060
15097
13941
13004
12376
11892
11535
11170
10958
11183
11312
11326
11299
11493
11475
11633
11663
11829
11743
11687
11797
11831
11768
11746
11827
11898
12065
12059
12050
12054
12064
11929
11903
12363
12882
12974
13028
13161
13223
12945
12790
12625
12460
12520
12478
12295
12070
14035
18264
23445
24157
11610
7660
10228
11302
12270
12857
13231
13453
13583
13680
13936
13924
14187
14332
14393
14821
15095
15314
16035
16399
16730
17246
17517
17626
17307
17173
17230
16694
15817
14642
13515
12381
11664
11543
11295
11163
11227
11238
11198
11333
11553
11612
11555
11580
11810
11717
11791
11851
11914
11775
11826
11796
11778
11852
12037
11975
12001
11881
11907
12268
12636
12930
13082
12904
12808
13097
12941
12849
12491
12380
12497
12420
12054
12578
15707
22875
25167
13161
7590
9713
10583
11751
12766
13008
13269
13512
13668
13738
13767
13804
14205
14609
14872
14874
15185
15569
16058
16399
16910
17446
17705
17676
17499
17050
16615
15712
14466
13781
12980
12357
11714
11424
11232
11128
10992
11156
10955
11170
11716
11811
11720
11813
11844
11836
11847
11853
11915
11760
11730
11866
12059
12035
12107
12079
12164
12027
12061
11985
12420
12834
13010
13084
13225
13280
12932
12661
12505
12369
12501
12541
11959
12280
15339
20130
25508
20000
7942
9000
10246
11509
12339
12948
13024
13209
13388
13782
14036
14001
14105
14295
14606
14922
15132
15459
15889
16253
16615
17083
17498
17627
17591
17415
17140
16578
15676
14565
13384
12480
11854
11370
11066
11104
11107
11206
11211
11277
11598
11731
11658
11664
11666
11762
11905
11865
11940
11821
11800
11993
12159
12043
12118
12064
12116
12043
12255
12181
12207
12215
12345
12651
13012
13321
13279
13100
13107
12891
12715
12572
12574
12566
12373
12287
14029
18193
24046
24591
11266
8007
9965
11201
12251
12926
13116
13365
13499
13750
13978
14058
14167
14401
14505
14835
15034
15324
15885
16179
16617
17199
17540
17645
17613
17493
17345
16765
16102
15089
13918
12862
12065
11568
11278
11111
11052
11010
11185
11399
11321
11340
11450
11659
11642
11671
11968
12015
11827
11784
11957
11964
11836
11976
12001
11935
11892
11945
12006
11951
11986
12553
12907
12992
12927
13102
13120
12854
12686
12269
12235
12539
12571
12200
12368
15145
19919
25286
20878
8132
8667
10276
11370
12421
12901
13265
13392
13741
13834
13823
13964
14159
14350
14728
15050
15105
15286
15824
16350
16649
17071
17462
17680
17445
17433
17048
16440
15486
14404
13386
12400
11604
11477
11203
11033
10872
10893
11154
11260
11366
11461
11652
11611
11793
11838
11849
11813
11668
11814
11861
11796
11978
12054
12030
12050
12061
11913
11864
12058
12739
13029
13009
12912
13004
13101
12894
12798
12388
12313
12655
12621
11995
13155
17124
22346
25424
14666
7553
9600
10783
11894
12678
12996
13239
13404
13666
13802
14017
14188
14368
14485
14816
15039
15372
15576
15826
16451
17043
17497
17673
17658
17621
17345
16948
16299
15107
13808
12824
12125
11635
11332
11171
11080
10998
10940
11226
11359
11378
11362
11611
11636
11701
11782
11949
11838
11952
11958
12014
11899
11874
11927
12162
12110
12149
12256
12122
11962
12356
12696
13057
13423
13203
13107
13163
12948
12816
12714
12505
12360
12174
12019
13075
16876
22199
25704
14891
7506
9540
10750
11935
12776
13009
13237
13561
13670
13890
14080
14330
14346
14424
14630
15045
15266
15542
16148
16628
17011
17239
17562
17669
17593
17393
16920
16220
15177
14171
13390
12487
11790
11388
11185
11128
11114
11087
11382
11422
11397
11477
11762
11796
11774
11893
11885
11889
11791
11834
11892
11858
11851
11961
11974
12032
12083
12066
11894
11825
12097
12611
12933
13188
13151
13159
13107
12885
12816
12550
12495
12484
12366
12092
12662
15622
20651
25719
19492
7739
9045
10324
11565
12490
13136
13326
13405
13540
13725
14046
14237
14354
14455
14655
14896
15214
15464
15917
16473
16936
17247
17575
17551
17632
17548
17138
16461
15572
14670
13520
12551
11885
11443
11267
11145
11142
11250
11156
11450
11491
11595
11602
11808
11596
11759
11963
11987
12002
12003
11957
11912
11973
11902
11976
11921
12115
11948
12028
12080
12296
12829
13187
13230
13228
13009
13034
12921
12668
12419
12390
12379
12102
11941
13704
17980
23485
24827
11958
7500
9648
10656
11864
12759
13078
13289
13279
13380
13701
14084
14197
14316
14497
14844
15137
15345
15824
16120
16648
17003
17377
17568
17646
17511
17267
16816
16018
14898
13826
12820
11857
11401
11201
10945
10927
10968
10998
11323
11374
11345
11453
11500
11617
11861
11704
11827
11826
11878
11917
11918
11912
11913
11826
11818
11914
11966
11973
12147
12525
12786
13130
13138
13032
12720
12519
12571
12500
12390
12401
12490
12018
12818
16434
21633
25551
15979
7289
9364
10452
11677
12480
13084
13211
13442
13507
13666
13820
14046
14247
14362
14567
14807
15053
15590
16068
16366
16835
17241
17688
17607
17487
17260
16776
16019
15136
13636
12688
11835
11510
11296
11132
11099
11195
11237
11328
11430
11443
11592
11643
11803
11850
12060
11918
12002
12107
12082
11905
12039
12110
12127
12045
12057
11957
11995
12327
12718
13094
13204
13138
12993
13078
12878
12734
12493
12514
12531
12364
12070
12992
16720
22116
25787
15671
7607
9457
10525
11777
12619
12849
13208
13583
13685
13721
13794
13996
14292
14462
14650
14787
15201
15638
16082
16380
16920
17304
17567
17692
17578
17165
16652
15858
14772
13664
12658
11857
11394
11239
11015
11051
11050
11239
11191
11281
11447
11632
11642
11620
11623
11662
11725
11916
11927
11918
11876
11879
11924
11963
11990
12145
12203
11952
11929
12273
12835
13192
13232
12986
13160
13092
12798
12646
12547
12472
12482
12424
12078
13536
17590
23317
25292
13020
7456
9629
10871
12146
12784
13097
13266
13405
13574
13842
14083
14154
14240
14436
14706
14823
15273
15614
16108
16497
16970
17505
17610
17544
17184
16743
15743
14568
13503
12648
11883
11398
11051
11001
11065
11157
11265
11385
11494
11487
11628
11645
11725
11665
11747
11755
11990
11884
12006
11915
11954
12018
11999
11909
11925
12103
12194
12161
11937
11932
12442
13141
13385
13237
13158
13157
12930
12767
12412
12331
12503
12514
12206
12727
15753
20828
25910
19297
7739
9013
10348
11611
12683
13210
13410
13441
13731
13785
13964
14181
14252
14461
14793
15096
15428
15781
16199
16636
17042
17562
17695
17645
17583
17410
16968
16314
15308
14230
13072
12236
11652
11424
11128
11050
11063
11007
11195
11356
11345
11257
11345
11621
11922
11853
11922
11944
11997
11888
11829
11806
11830
11773
11619
11846
12007
11837
11974
12481
12996
13143
13010
12916
12872
12719
12465
12305
12307
12537
12385
12052
12678
15941
20717
25301
18174
7248
8988
10298
11313
12388
13143
13151
13375
13599
13754
13888
14152
14331
14529
14598
14845
15256
15764
16269
16553
17044
17547
17717
17678
17490
17201
16578
15778
14959
13871
12930
12031
11534
11286
11192
10973
11012
11031
11053
11333
11463
11570
11658
11735
11729
11785
11934
11872
11765
11708
11782
11993
12047
12014
11970
12100
11917
11955
12081
12412
12938
13113
13003
13122
12968
12671
12652
12499
12462
12381
12418
12119
12329
15168
20119
25578
20323
8060
9008
10324
11436
12358
12928
13154
13286
13495
13655
13664
14019
14242
14257
14491
14968
15334
15558
15998
16294
16870
17173
17570
17798
17766
17511
17016
16199
15297
14078
12929
12196
11673
11366
11198
11153
11040
11210
11346
11328
11283
11683
11740
11776
11810
11857
11793
11907
12007
11942
11937
11900
12032
12085
12122
12190
12185
11987
11941
12256
12869
13220
13276
13030
13189
13023
12790
12684
12462
12455
12363
12355
11917
12965
16861
22398
25806
15469
7412
9411
10568
11829
12863
13137
13221
13421
13548
13902
13885
13990
14210
14462
14604
14767
15262
15697
16172
16589
17034
17318
17521
17503
17585
17284
16768
15887
14986
13850
12753
12046
11590
11274
11176
10992
11021
11158
11278
11418
11499
11586
11576
11576
11709
11892
11967
12072
11960
11981
11954
11921
11909
11893
11937
11949
12187
12143
12184
12056
12466
12903
13207
13186
13234
13124
12936
12755
12608
12446
12389
12458
12249
12180
14422
18985
24748
18651
7529
8929
10250
11635
12500
13054
13353
13582
13602
13827
14030
14163
14164
14430
14572
14877
15222
15544
15802
16438
16892
17312
17503
17622
17593
17390
16992
16318
15462
14334
13295
12360
11760
11385
11247
11090
10975
11041
11073
11187
11214
11389
11561
11620
11627
11717
11782
11925
11949
11954
11821
11833
11847
11998
12042
12113
11972
11901
11939
12309
12796
13023
13158
13043
12983
12748
12559
12281
12415
12363
12443
12341
12435
16284
21208
25449
17472
7021
9112
10310
11323
12413
13070
13124
13403
13735
13763
13890
14020
14286
14471
14713
14984
15369
15643
15978
16308
16857
17280
17596
17702
17662
17400
16994
16193
15261
14182
13062
12274
11719
11398
11084
11021
11055
11187
11135
11321
11452
11556
11613
11686
11810
11715
11803
11948
12138
12041
11947
11944
12114
12128
12181
12029
11976
11930
12037
12504
13087
13260
13082
13020
12919
12803
12710
12478
12342
12493
12151
12208
15373
20275
25445
20154
8024
8955
10173
11387
12300
12953
13181
13215
13343
13573
13724
13834
14028
14370
14623
14771
15007
15390
15792
16251
16578
16992
17500
17576
17582
17380
17031
16302
15486
14328
13157
12152
11578
11258
11054
11049
11081
11076
11130
11381
11444
11429
11468
11572
11679
11717
11618
11730
11679
11849
11917
11875
11902
11914
11988
12046
11962
11791
11746
12336
12891
12917
13038
13068
13038
12933
12748
12542
12558
12317
12337
12115
12220
15004
19818
25461
21056
8133
8587
10212
11436
12287
12773
13218
13373
13623
13678
13883
13958
14162
14340
14526
14798
15227
15577
15955
16340
16752
17200
17597
17744
17680
17352
16909
16744
15775
14721
13549
12585
11846
11497
11226
11049
11088
11219
11186
11295
11462
11595
11605
11585
11777
11743
11878
11832
11878
11808
11860
11902
11947
11998
11942
12046
12152
12235
12053
12175
12578
12997
13107
13127
13103
12973
12731
12543
12240
12377
12478
12238
12018
13785
18049
23993
24588
11237
7539
9773
10980
12067
12764
12991
13223
13431
13598
13696
13841
14001
14263
14477
14730
14919
15295
15583
16188
16613
17028
17407
17597
17655
17556
17291
16826
16003
14864
13813
12835
12079
11557
11177
10941
11047
11080
11146
11218
11253
11531
11628
11679
11763
11815
11788
11901
11771
11799
11804
11897
11921
12034
12009
12141
12068
12059
12001
11989
12509
12959
13135
13280
13155
13207
12995
12760
12583
12527
12511
12586
12391
12164
14145
18524
24309
24148
10756
7739
9790
10894
11989
12679
12915
13273
13610
13791
13835
13993
14078
14183
14532
14924
15077
15355
15735
16248
16687
17204
17435
17592
17651
17542
17218
16664
15914
15015
13843
12920
12125
11582
11292
10964
11048
11195
11291
11351
11382
11428
11509
11647
11745
11810
11903
11836
11873
11949
11846
11769
11665
11757
11944
12128
11983
11844
12069
12471
12885
13052
12876
12876
12793
12576
12365
12296
12312
12431
12235
12073
13474
17471
22856
24660
12644
7291
9695
10603
11710
12575
13151
13277
13458
13621
13723
13777
14022
14274
14429
14726
14977
15243
15567
16041
16646
16922
17323
17648
17534
17449
17124
16594
15820
14962
13701
12557
12142
11761
11348
11077
11068
11049
11138
11272
11406
11449
11386
11465
11852
11870
11916
11839
11750
11942
12020
12052
11916
11911
12115
12168
12155
12080
11938
12354
12873
13184
13051
13012
12994
12985
12763
12571
12341
12356
12430
12193
11941
13952
18484
24333
24168
10674
8035
9878
10992
12091
12843
13213
13457
13715
13832
13920
13940
14023
14257
14335
14699
15014
15507
15764
16214
16829
17209
17395
17524
17653
17485
17184
16650
15840
14797
13786
12601
11899
11414
11150
11206
11194
11013
11107
11338
11442
11524
11486
11575
11655
11673
11750
11816
11902
11929
11859
11938
11814
11940
11960
12011
12006
12062
12033
11860
12250
12845
13178
13316
13250
13106
12992
12733
12544
12258
12445
12550
12384
12047
13117
16817
22342
25745
15043
7256
9283
10440
11860
12660
12874
13285
13502
13654
13800
13975
14122
14385
14432
14732
15094
15415
15626
16099
16540
17033
17296
17555
17671
17569
17411
17069
16403
15278
14238
13217
12433
11725
11472
11209
11202
11196
11314
11224
11322
11483
11550
11666
11606
11744
11904
11952
11895
11817
11864
11921
11928
11965
11928
12019
11797
11993
12127
12174
12025
12246
12483
13031
13291
13247
13182
13122
12857
12667
12462
12261
12348
12572
12316
12756
16108
21299
25929
17805
7388
9117
10422
11688
12546
12973
13332
13581
13766
13963
14008
14162
14309
14508
14699
14994
15213
15694
16036
16442
16787
17393
17844
17945
17783
17544
17197
16585
15618
14407
13474
12603
11938
11320
11030
11034
11242
11136
11160
11368
11550
11522
11638
11657
11771
11720
11708
11613
11916
12030
12006
11757
11853
12027
11991
12032
11977
11835
11926
12311
12604
13027
13031
13073
12981
12915
12690
12529
12303
12210
12352
12299
12102
13501
17703
23183
25214
12966
7202
9554
10618
11665
12532
12901
13248
13411
13609
13807
13912
14044
14173
14288
14657
14959
15263
15598
15982
16555
16928
17313
17451
17479
17442
17264
16677
15931
14922
13925
12943
12030
11495
11189
10957
10851
10987
11185
11290
11329
11524
11585
11612
11748
11905
11831
11804
11681
11915
11900
11892
11931
12002
11869
11888
12045
11992
11909
12259
12784
12909
12995
12928
13044
13006
12793
12522
12460
12396
12489
12092
12038
13988
18419
24111
24090
10766
7743
9725
10795
11888
12648
13087
13325
13587
13748
13941
13964
14135
14266
14622
14821
15106
15296
15764
16283
16607
16919
17431
17698
17590
17366
17093
16778
15795
14781
13711
12383
11644
11364
11017
11122
11037
11051
11127
11307
11522
11529
11463
11577
11716
11583
11745
11772
11838
11821
11933
11931
11936
11823
12003
11996
11922
11836
12046
12521
12972
13261
13205
13034
12843
12677
12522
12458
12437
12489
12351
11985
12744
16406
21669
25835
16505
7547
9269
10473
11829
12570
13091
13319
13425
13640
13779
13889
14067
14306
14506
14715
14929
15320
15733
16024
16464
16931
17301
17536
17718
17561
17392
17071
15924
15015
13979
12917
11968
11460
11297
11093
11117
11216
11258
11333
11545
11659
11486
11698
11806
11858
11785
11652
11687
12030
12107
12020
11805
11760
11854
12045
12017
11879
11851
12076
12585
12948
13152
13117
13089
12977
12775
12566
12373
12271
12434
12238
11958
13472
17484
23171
25341
12831
7256
9448
10583
11991
12783
12991
13199
13449
13476
13752
14055
14233
14318
14463
14686
14892
15288
15613
16037
16528
16843
17201
17767
17708
17526
17156
16735
15816
14683
13499
12505
11802
11482
11250
11106
10998
11052
11261
11391
11509
11487
11569
11777
11924
11844
11811
11710
11792
11838
11942
11984
11945
11842
12024
12120
12124
11951
11923
12372
12792
13119
13110
13128
13034
12826
12585
12516
12384
12292
12429
12323
12255
14542
19365
25053
22935
9171
7984
9665
11014
12137
12833
13119
13265
13308
13674
13784
14003
14166
14344
14522
14832
15191
15510
15842
16108
16744
17263
17342
17573
17619
17430
16926
16203
15446
14338
13150
12229
11687
11207
11007
10740
10862
11061
11280
11306
11352
11381
11385
11552
11588
11569
11677
11811
11683
11721
11726
11844
11860
12002
11923
11907
11751
12070
12634
12999
12976
12899
12896
12556
12516
12421
12454
12288
12281
11929
11989
14274
18745
24229
23055
9572
7809
9737
10868
12044
12653
12991
13175
13338
13472
13839
13990
14039
14226
14431
14617
15015
15407
15805
16081
17552
17330
16946
16431
15600
14626
13469
12511
11729
11411
11244
11156
10997
11016
11293
11462
11488
11443
11519
11642
11754
11734
11874
11936
11889
11851
11916
11916
11925
11834
11897
12066
11906
11952
12498
12911
13149
13036
12913
12750
12549
12385
12288
12297
12371
12316
11926
12708
16225
21698
25877
16817
7447
9383
10523
11706
12519
12984
13171
13271
13527
13706
13881
13917
14109
14302
14490
14915
15255
15645
16037
16382
16874
17309
17410
17538
17564
17205
16629
15758
14801
13717
12775
11977
11519
11266
11088
11126
11086
11299
11333
11402
11437
11722
11779
11839
11718
11749
11786
11861
11951
12017
11975
11915
11874
11974
12102
11918
12045
12061
12525
12770
13135
13179
13090
13043
12918
12681
12594
12440
12450
12530
12338
12303
14535
19232
25000
23103
9214
7966
9832
11261
12439
13008
13176
13349
13605
13754
13818
13886
14143
14257
14483
14697
15017
15381
15726
16277
16885
17325
17495
17573
17536
17447
17109
16449
15609
14389
13218
12285
11911
11456
11195
11242
11296
11246
11214
11241
11391
11601
11599
11707
11626
11625
11666
11839
11837
11903
11990
12119
12012
12031
11953
11947
12043
11868
11976
12506
12952
13068
13071
12923
12904
12791
12689
12289
12427
12461
12570
12236
12490
15501
20449
25576
20036
7584
8342
9980
11285
12232
12877
13343
13374
13458
13607
13836
13946
14215
14450
14724
15092
15391
15646
16070
16434
16949
17460
17727
17707
17543
17350
16831
16216
15206
14187
13300
12437
11652
11337
11167
11023
10970
11072
11068
11315
11433
11424
11412
11583
11585
11706
11755
11827
11887
11803
11894
11800
11943
11916
11904
11847
12094
12343
12602
12858
12824
12819
12567
12403
12320
12188
12207
12337
12187
11971
13141
17101
22120
24835
14378
6878
9173
10209
11408
12354
12837
13145
13472
13653
13689
13778
13957
14131
14423
14662
15062
15343
15849
16341
16682
17032
17558
17723
17630
17454
17189
16553
15668
14606
13559
12544
11976
11573
11191
11049
11050
11148
11186
11271
11340
11483
11592
11675
11640
11883
11853
11722
11764
11974
11983
11903
11897
11981
12022
11861
11912
12136
12530
12877
13171
12969
12837
12726
12657
12412
12372
12362
12458
12152
11970
13291
17414
22547
24947
14094
7010
9440
10270
11699
12602
13043
13210
13522
13619
13745
13984
14075
14153
14567
14914
15145
15398
15747
16175
16785
17131
17426
17559
17673
17770
17375
16778
15797
14792
13653
12756
11938
11509
11298
11089
10973
11131
11112
11396
11610
11681
11627
11719
11841
11725
11603
11869
12066
11835
11941
11897
12119
12065
12034
12111
11981
12035
12583
12997
13148
13024
12907
12808
12650
12651
12374
12385
12451
12415
11945
12925
16764
22221
25766
15674
7412
9248
10180
11643
12708
13096
13265
13494
13653
13610
13772
14146
14331
14371
14611
15123
15467
15645
16316
16771
17228
17569
17759
17755
17653
17432
16681
15745
14840
13829
12824
11992
11487
11371
11202
11273
11083
11092
11293
11396
11353
11615
11744
11842
11800
11775
11791
11933
11873
11773
11898
11929
11985
11967
12074
11990
11931
11912
12380
12713
12987
13067
13074
12903
12791
12565
12534
12417
12248
12295
12006
11896
13634
18022
23713
24547
11516
7581
9507
10760
11891
12708
13038
13179
13368
13530
13826
13994
14108
14329
14515
14877
15109
15308
15771
16379
16849
17155
17519
17488
17711
17539
17229
16543
15741
14655
13579
12554
11865
11385
11108
11015
11185
11292
11069
11169
11341
11412
11467
11680
11564
11797
11857
11862
11849
11726
11628
11805
11933
11892
11837
11928
12198
12245
12025
11850
12444
12955
13258
13172
13220
13141
12909
12592
12487
12423
12568
12562
12169
12127
14775
19621
25195
22141
8683
8125
9839
11713
12561
13107
13268
13414
13597
13831
13972
14058
13959
14274
14559
14930
15096
15532
16061
16562
16913
17295
17681
17745
17711
17367
17043
16353
15516
14296
13130
12252
11831
11312
11137
11030
11053
11174
11209
11290
11398
11525
11687
11668
11537
11740
11748
11771
11748
12004
12032
11885
11792
11851
12051
12015
11868
11751
12078
12670
13023
12940
12824
12895
12801
12534
12382
12294
12559
12459
12271
11766
13375
17650
23052
24457
12351
8424
10027
10850
12057
12885
13083
13316
13542
13711
13762
13881
14022
14247
14438
14734
15284
15692
16086
16557
16782
17300
17527
17676
17687
17474
17119
16739
15802
14521
13422
12489
11912
11403
11194
10952
10957
10956
11131
11190
11484
11526
11516
11545
11725
11798
11735
11793
11795
11876
11814
11647
11791
11966
11915
12095
11950
11913
11787
12348
12883
13056
12862
12798
12841
12768
12641
12490
12469
12241
12340
12138
12095
14814
21793
25613
15807
7154
9303
10473
11692
12481
12846
13243
13528
13620
13712
13888
14030
14097
14341
14698
14893
15176
15564
16014
16535
17102
17338
17494
17530
17522
17291
17092
16440
15398
14153
13029
12368
11825
11370
11189
11078
11082
11164
11242
11356
11489
11729
11672
11803
11758
11804
11766
11970
12001
12000
11948
11800
11909
11873
12054
12066
12059
11940
11964
12111
12555
13012
13151
13038
13116
13062
12893
12688
12410
12357
12528
12333
12036
13843
18342
24191
24101
10790
7791
9810
11132
12188
12874
13149
13346
13745
13742
13858
13943
14174
14372
14680
14956
15130
15368
15778
16253
16679
17127
17394
17602
17667
17691
17531
17076
16053
15074
13942
12941
12071
11633
11351
11108
11084
11188
11271
11248
11376
11485
11637
11681
11678
11747
11792
11740
11897
11973
11955
11802
11820
11909
11936
11992
11998
11975
11798
12150
12700
13093
13166
13118
13002
12880
12579
12471
12371
12518
12475
12175
12165
14976
19602
25160
21535
8617
8434
9961
11227
12262
12990
13205
13415
13624
13852
13846
14038
14077
14365
14606
14888
15085
15260
15740
16419
16928
17321
17528
17645
17801
17514
17123
16526
15803
14677
13563
12533
11841
11356
11043
11074
11162
11060
11182
11181
11381
11601
11642
11593
11484
11583
11742
11862
11676
11797
11830
11912
11675
11930
12035
11923
11716
11811
12193
12853
13160
12988
12930
12882
12472
12352
12351
12152
12409
12281
11896
13373
17476
22613
24475
12479
7275
9609
10538
11636
12603
12935
13217
13403
13709
13738
13942
14164
14343
14491
14743
14933
15224
15635
15920
16542
16816
17330
17619
17732
17532
17337
16693
15931
14867
13745
12642
12008
11625
11209
11110
10962
11082
11117
11327
11398
11510
11581
11674
11590
11778
11873
11810
11784
11922
11921
11932
11843
11954
11986
11762
11783
12241
12803
13045
13054
12803
12810
12663
12517
12254
12345
12379
12195
11645
12356
15817
20882
25742
18385
7477
8904
9972
11218
12282
12821
13095
13216
13570
13780
13905
13975
14286
14259
14364
14716
15211
15588
16016
16438
16692
17079
17434
17563
17518
17298
16751
16170
15348
14304
13124
12339
11637
11313
11143
11155
11146
11168
11283
11310
11345
11357
11502
11752
11694
11630
11808
11882
11952
11889
11933
11894
11937
11912
11959
11829
11734
12174
12592
12936
13168
13080
13021
12832
12688
12487
12402
12422
12325
12046
12146
14868
19597
25365
21700
8540
8523
10112
11297
12262
12740
12881
13208
13567
13764
13839
14032
13978
14269
14634
14918
15180
15425
15594
16030
16696
17246
17420
17544
17558
17438
17061
16462
15717
14615
13506
12506
11799
11342
11212
11181
11229
11250
11335
11388
11218
11338
11519
11567
11666
11738
11748
11793
11874
12004
11821
11866
12088
12126
12027
11987
11878
12258
12764
13228
13042
13145
13089
12858
12608
12476
12216
12241
12433
12197
12116
14544
19125
24796
22355
8957
8199
9628
10990
12201
12835
13075
13433
13499
13692
13991
14093
14204
14372
14583
14835
15125
15571
15898
16272
16687
17186
17531
17665
17573
17257
17126
16654
15821
14735
13619
12656
11990
11549
11181
10876
11081
11322
11169
11333
11673
11644
11646
11666
11767
11750
11784
11886
11890
11793
11625
11636
11820
11972
11931
11905
11916
12412
12814
13002
12901
12876
12807
12631
12417
12278
12218
12185
12219
11987
13384
17336
22761
24808
12975
7168
9468
10434
11538
12461
13003
13210
13445
13623
13790
13965
14063
14227
14466
14734
14973
15176
15700
16053
16395
16922
17288
17380
17355
17329
17207
16605
15812
15026
13884
12822
11968
11617
11173
10950
11032
11045
11119
11223
11358
11453
11510
11644
11724
11764
11767
11758
11857
11805
11859
11846
11781
11726
11830
11930
12310
12662
