11723
12108
12591
12925
13040
12993
12915
12770
12624
12482
12318
12393
12408
12124
11985
14567
19343
24964
21405
8945
8867
10415
11730
12567
13021
13205
13367
13493
13718
13710
13906
14069
14335
14531
14844
15115
15498
15821
16270
16699
17069
17237
17303
17222
16990
16639
16061
15183
14077
13122
12251
11750
11418
11289
11164
11177
11261
11414
11455
11572
11630
11743
11825
11813
11825
11852
11927
11891
11949
11915
11993
11858
11816
11866
12462
12781
13027
12918
12893
12705
12612
12354
12200
12249
12284
11981
11703
13826
18453
24157
23359
10390
8913
10361
11338
12250
12708
13017
13107
13345
13479
13686
13832
14012
14159
14361
14617
14889
15287
15667
16110
16477
16843
17040
17165
17026
16886
16509
15925
15021
14041
13005
12170
11602
11311
11112
11038
11047
11126
11330
11364
11497
11584
11735
11766
11842
11860
11923
11861
11856
11850
11944
11914
11836
11822
11956
12325
12808
13009
12973
12899
12707
12549
12302
12239
12257
12376
11983
11730
13867
18499
24411
22675
9836
9108
10416
11606
12391
12793
13021
13216
13370
13494
13711
13785
13976
14132
14445
14652
14978
15290
15742
16134
16571
16906
17101
17150
17089
16914
16523
15928
14980
13986
12953
12191
11609
11345
11127
11077
11068
11191
11292
11434
11528
11616
11692
11728
11793
11827
11843
11799
11839
11801
11880
11936
11948
11799
11813
12061
12555
12921
13055
12891
12816
12575
12502
12239
12208
12256
12221
11785
12307
15653
20941
25617
17107
8137
9668
10898
11990
12704
12952
13157
13283
13461
13580
13783
13969
14161
14386
14617
14861
15118
15428
15845
16332
16681
17043
17137
17184
17026
16840
16342
15633
14641
13607
12667
11970
11530
11241
11126
11068
11178
11223
11356
11356
11466
11531
11649
11651
11729
11732
11806
11751
11766
11752
11759
11887
11864
11780
11736
12080
12505
12926
13030
12932
12819
12657
12500
12339
12231
12329
12215
11902
12281
15569
20740
25522
17701
7666
9238
10574
11833
12569
12944
13168
13399
13514
13716
13828
14018
14175
14479
14662
14972
15228
15627
15937
16430
16849
17228
17383
17388
17297
17031
16636
15886
14913
13799
12903
12137
11668
11364
11245
11111
11181
11291
11382
11494
11570
11652
11724
11780
11795
11845
11839
11943
11904
11952
11986
11949
11831
11905
12224
12644
12917
13025
12918
12836
12541
12419
12241
12203
12223
12063
11626
12929
17088
22717
25042
13085
8085
9901
11140
12115
12750
12993
13186
13312
13573
13714
13897
14083
14234
14450
14744
15055
15297
15661
16027
16521
16919
17243
17367
17384
17181
16963
16303
15470
14416
13352
12427
11772
11428
11243
11189
11113
11205
11285
11440
11483
11615
11677
11819
11801
11907
11866
11886
11857
11977
11929
11875
11874
12122
12519
12811
12967
12859
12836
12668
12561
12289
12249
12223
12232
11654
12113
15518
21046
25579
16864
7855
9524
10810
12036
12653
13006
13217
13324
13481
13632
13819
13941
14169
14292
14557
14779
15199
15521
15989
16409
16837
17110
17305
17319
17184
16939
16432
15661
14632
13560
12538
11851
11387
11211
11042
11076
11086
11260
11335
11474
11518
11585
11675
11735
11785
11809
11843
11838
11889
11790
11774
11825
12248
12582
12889
12907
12909
12799
12617
12415
12236
12198
12267
11968
11475
12943
17354
23223
24221
11487
8050
9975
11320
12277
12703
12988
13161
13342
13460
13725
13828
14036
14217
14498
14774
15133
15473
15860
16268
16674
17096
17347
17507
17422
17289
16908
16311
15321
14325
13242
12377
11740
11413
11252
11160
11086
11184
11329
11378
11489
11560
11650
11683
11737
11670
11780
11730
11872
11817
11758
11662
11740
12076
12532
12797
12874
12789
12699
12564
12385
12139
12082
12201
12092
11603
11988
15468
22916
24593
12237
8015
9769
10678
11675
12399
12649
12891
13082
13314
13471
13684
13879
14037
14349
14537
14880
15194
15604
16010
16490
16780
17106
17218
17252
17060
16761
16141
15301
14203
13104
12211
11598
11270
11028
10995
10965
11100
11116
11207
11271
11461
11390
11423
11533
11677
11716
11776
11795
11788
11744
11681
11859
12214
12634
12861
12885
12727
12698
12450
12389
12185
12188
12198
12248
11737
12028
15247
20354
25379
18237
8327
10078
11010
11980
12632
12946
13208
13370
13582
13710
13870
13943
14208
14407
14716
15001
15362
15676
16112
16548
16950
17190
17324
17337
17131
16847
16214
15384
14340
13357
12447
11886
11425
11286
11177
11235
11299
11440
11526
11674
11757
11790
11811
11819
11928
11940
11971
11945
12028
11960
12045
11943
11879
11869
12250
12712
13055
13054
12999
12932
12738
12557
12363
12290
12299
12361
11903
11823
14506
19507
25261
21476
8827
9042
10749
11942
12607
12985
13157
13418
13542
13738
13854
14016
14213
14395
14661
14922
15271
15617
16062
16461
16893
17184
17420
17408
17365
17075
16632
15811
14820
13724
12740
11994
11559
11286
11085
11055
11057
11162
11135
11327
11447
11628
11621
11738
11725
11777
11767
11786
11812
11870
11894
11868
11914
11980
12041
11964
11887
12170
12691
13007
13219
13102
13116
12933
12784
12532
12406
12393
12433
12148
11925
14192
18770
24561
23081
7619
8993
10523
11822
12643
13017
13241
13422
13616
13699
13918
14015
14187
14328
14552
14806
15231
15603
15952
16373
16775
17185
17400
17462
17347
17198
16779
16148
15148
14121
13042
12215
11599
11295
11153
11104
11050
11043
11242
11490
11390
11201
11266
11520
11683
11806
12033
12091
12063
11727
11698
11877
11991
11916
12010
12216
12212
11990
11882
12100
12659
13187
13154
13008
12826
12845
12847
12605
12437
12298
12300
12188
12166
15587
20293
25453
19290
7728
8687
10416
11751
12554
12922
13270
13600
13674
13861
14043
14119
14141
14292
14544
14695
15346
15776
15947
16483
16840
17258
17587
17706
17575
17393
17084
16363
15372
14349
13254
12827
12040
11534
11292
10937
11018
11392
11496
11636
11766
11643
11604
11542
11687
11786
11661
11620
11614
11603
11778
11768
11852
11853
11885
11976
11917
11596
11547
12128
12661
12808
13009
13026
12886
12759
12627
12435
12326
12392
12302
12050
12826
16371
21182
24977
16388
7229
9202
10497
11699
12504
13079
13362
13570
13653
13665
13873
14042
14221
14557
14896
15037
15166
15478
15819
16383
16838
17241
17483
17578
17594
17316
16886
16042
15033
13993
12971
12096
11506
11206
11225
11019
10955
11028
11062
11222
11265
11299
11453
11513
11639
11779
11789
11615
11577
11679
11697
11663
11736
11741
11675
11723
11997
12218
12566
12877
12964
12941
12888
12714
12563
12325
12344
12415
12152
12012
13734
17668
22720
23576
11454
7613
10002
10893
11949
12734
13125
13387
13566
13636
13813
14071
14192
14331
14556
14733
14784
15207
16039
16657
16974
17395
17685
17857
17874
17724
17312
16691
15734
14638
13567
12587
11793
11372
11193
11141
11151
11161
11197
11325
11467
11575
11608
11605
11755
11831
11806
11843
11930
11842
11787
11842
11957
12055
11858
11828
11977
12376
12736
13127
13187
13046
12943
12800
12602
12407
12331
12368
12210
11894
13280
17183
22792
24890
12870
7632
9651
10863
11991
12660
13004
13223
13331
13429
13716
13991
14186
14410
14642
14829
15138
15454
15870
16290
16731
17140
17588
17825
17743
17669
17378
16863
15871
14758
13627
12533
11788
11416
11156
11082
11046
11154
11253
11349
11417
11491
11611
11643
11717
11744
11830
11834
11830
11793
11870
11925
11951
11999
12018
11968
11906
11984
12326
12741
13054
13117
12989
12968
12828
12698
12392
12405
12431
12370
11944
12704
16297
21669
25627
15907
7309
9215
10574
11805
12570
13000
13170
13331
13612
13751
13970
14021
14253
14352
14621
14920
15372
15777
16066
16477
17095
17489
17709
17845
17776
17465
16977
16246
15120
13949
12830
12027
11419
11113
11015
10982
11033
11158
11272
11312
11365
11493
11542
11568
11671
11725
11696
11726
11768
11784
11803
11756
11834
11916
11956
11946
11977
11850
11898
12308
12823
13152
13175
13167
13039
12798
12588
12463
12436
12406
12313
11960
13174
17140
22845
25174
13085
7325
9512
10851
12036
12727
13025
13294
13480
13713
13806
13936
14109
14315
14479
14757
15000
15430
15860
16310
16826
17378
17717
17838
17886
17747
17523
17092
16234
15107
13868
12725
11909
11453
11203
11100
10999
11100
11213
11296
11325
11486
11534
11567
11595
11640
11689
11638
11657
11740
11750
11846
11819
11857
11932
11877
11935
11943
11906
11835
12272
12780
13092
13195
13135
13052
12887
12725
12540
12371
12450
12503
12050
12032
14814
19642
25070
21071
8449
8757
10198
11224
12143
12882
13180
13251
13470
13664
13798
13946
14167
14354
14572
14889
15253
15649
15992
16428
16900
17336
17677
17825
17781
17603
17245
16562
15542
14454
13337
12271
11600
11218
10993
10937
10963
10998
11095
11232
11326
11499
11617
11600
11579
11742
11722
11744
11757
11885
11838
11815
11840
11797
11824
11834
11914
12011
12045
12053
11958
12200
12706
13109
13306
13222
13139
12981
12810
12587
12469
12469
12643
12377
12057
13512
17647
23490
24702
12114
8130
10049
11070
12181
12888
13218
13403
13673
13787
13963
14089
14321
14549
14761
14919
15286
15604
15951
16434
16964
17426
17772
17954
17978
17876
17597
17161
16253
15146
13992
12915
12048
11620
11291
11156
11160
11178
11289
11388
11477
11566
11648
11661
11774
11810
11874
11924
11924
11924
12019
12008
11950
11975
12047
12138
12232
12208
12220
12226
12305
12353
12354
12355
12337
12412
12881
13311
13531
13634
13594
13471
13303
13117
12921
12784
12811
12700
12208
12480
15825
21091
25951
18861
8240
9414
10626
11986
12822
13247
13418
13586
13828
14035
14189
14288
14395
14668
14853
15142
15423
15751
16234
16749
17274
17653
17907
18162
18096
17825
17474
16841
15875
14774
13688
12742
11989
11523
11383
11232
11234
11318
11389
11508
11563
11587
11647
11743
11809
11915
11913
11872
11804
11827
11889
11949
11922
11887
11950
12055
12142
12125
12121
12212
12286
12261
12303
12365
12435
12387
12494
12478
12390
12453
12888
13391
13573
13500
13488
13498
13268
13032
12791
12643
12743
12729
12319
12980
16495
21887
25947
17233
7964
9533
10796
12029
12840
13187
13427
13642
13827
13948
14092
14245
14389
14535
14688
15052
15337
15662
16144
16749
17093
17483
17773
17895
17847
17612
17161
16479
15441
14276
13079
12239
11595
11242
11135
11080
11073
11163
11227
11266
11424
11487
11455
11501
11564
11649
11718
11748
11701
11593
11685
11699
11695
11782
11733
11712
11830
11848
11897
11943
11969
12042
12144
12246
12180
12034
12181
12697
13084
13296
13286
13200
13107
12974
12779
12555
12496
12452
12431
12015
12573
16075
21278
25753
17697
7773
9506
10542
11742
12572
13093
13215
13369
13702
13884
13906
14026
14203
14507
14746
15005
15350
15756
16127
16660
17152
17512
17824
17932
17857
17658
17200
16377
15294
14021
12930
12106
11471
11198
11006
10952
10975
10892
10935
11077
11257
11403
11409
11565
11661
11662
11758
11795
11758
11868
11789
11787
11827
11866
11902
11882
11889
11931
11903
11936
12026
12145
12124
12014
12386
12917
13232
13300
13251
13234
13118
12910
12713
12590
12630
12592
12163
11963
14289
18897
24842
22972
9756
8551
10095
11233
12652
13104
13305
13520
13665
13808
13982
14168
14397
14521
14720
15090
15328
15677
16087
16568
16982
17423
17744
18003
18011
17862
17504
16846
15796
14624
13431
12501
11777
11288
11189
11041
11009
11069
11112
11256
11402
11443
11534
11529
11611
11622
11693
11736
11828
11772
11717
11767
11833
11830
11822
11818
11906
11999
11981
11973
12048
12061
12012
11978
12137
12593
12937
13191
13276
13240
13237
13051
12840
12630
12541
12556
12544
11894
13473
17746
23634
24762
12126
7933
9877
11211
12217
12896
13274
13480
13657
13805
13982
14140
14229
14437
14647
14816
15058
15462
15839
16276
16726
17214
17601
17893
18007
17913
17786
17353
16544
15475
14308
13131
12201
11636
11258
11098
11024
11112
11128
11160
11283
11391
11494
11547
11709
11724
11718
11718
11676
11783
11826
11856
11822
11847
11863
11888
11936
11941
11990
12019
12070
12110
12030
12006
12311
12772
13157
13273
13254
13158
12996
12830
12638
12497
12455
12573
12259
11970
14377
19040
24837
22278
9112
8313
10152
11524
12428
12957
13154
13418
13611
13702
13873
13997
14189
14365
14537
14722
15065
15431
15778
16273
16753
17206
17639
17850
17911
17866
17530
17062
16233
15107
13928
12845
11951
11431
11185
10944
10921
10963
11027
11157
11290
11375
11439
11435
11564
11691
11680
11686
11639
11636
11609
11602
11593
11655
11658
11779
11805
11720
11888
12000
11826
11784
12209
12719
13008
13121
13043
13008
12838
12676
12435
12354
12362
12379
12026
11951
14534
19242
24991
22120
8974
8527
10083
11208
12241
12862
13034
13206
13481
13634
13792
13962
14162
14363
14613
14817
15253
15559
15852
16319
16863
17368
17706
17921
17947
17762
17441
16904
16015
14851
13672
12639
11822
11357
11145
11031
10927
10938
11101
11238
11352
11375
11480
11630
11655
11604
11753
11744
11662
11734
11816
11834
11856
11863
11901
11939
12014
11997
11974
11935
12278
12756
13064
13159
13111
13096
12988
12761
12522
12402
12480
12442
12124
11794
13789
18196
23956
24197
11042
8059
10050
11055
12099
12783
13062
13299
13491
13790
13929
14066
14152
14371
14552
14853
15228
15478
15816
16260
16705
17237
17644
17782
17940
17879
17578
16945
16141
14975
13800
12688
11962
11416
11114
11025
10977
11009
11138
11248
11332
11387
11452
11559
11666
11746
11757
11800
11760
11838
11893
11895
11822
11864
11978
11980
12019
11987
12077
12044
11941
12054
12590
12996
13156
13215
13170
13087
12894
12694
12521
12445
12552
12410
11961
12251
15370
20502
25809
19250
7871
9024
10300
11552
12399
12882
13101
13287
13511
13632
13786
13978
14148
14342
14561
14810
15128
15478
15971
16377
16807
17270
17641
17808
17705
17587
17338
16755
15832
14673
13507
12512
11864
11424
11178
11088
11136
11175
11143
11213
11371
11494
11628
11675
11768
11688
11716
11844
11940
11891
11850
11822
11944
11957
11887
11964
12009
12002
12085
12147
12148
12048
11983
12336
12837
13128
13223
13168
13182
13118
12973
12731
12625
12493
12466
12206
11866
13299
17515
23406
24960
12553
7867
9789
11037
12105
12791
13106
13235
13435
13604
13765
13949
14172
14295
14429
14732
15040
15302
15676
16073
16565
17065
17494
17703
17771
17706
17437
17123
16317
15214
14109
13111
12150
11535
11333
11141
11152
11164
11231
11215
11375
11445
11504
11709
11777
11739
11717
11701
11766
11753
11805
11848
11807
11805
11866
11923
11929
11963
11978
12030
12252
12190
12023
11994
12416
12920
13222
13196
13207
13259
13042
12801
12578
12598
12659
12668
12229
12148
14912
19954
25591
21531
8613
8833
10277
11388
12315
12886
13154
13414
13627
13776
13909
14043
14192
14404
14621
14869
15124
15359
15760
16264
16776
17257
17528
17705
17740
17565
17104
16473
15540
14416
13310
12361
11658
11207
11119
11078
10996
11090
11112
11220
11299
11418
11554
11671
11691
11690
11812
11911
11900
11820
11868
11830
11789
11780
11782
11912
11897
11946
12111
12154
12069
11929
12279
12699
12981
13147
13146
13052
12944
12759
12643
12540
12566
12509
12170
12023
14404
19084
24907
22380
9334
8758
10305
11269
12267
12999
13216
13270
13477
13713
13903
14040
14147
14325
14603
14883
15167
15404
15776
16326
17001
17351
17667
17775
17775
17564
17214
16536
15560
14343
13251
12401
11689
11256
11129
11032
10934
11160
11202
11269
11408
11571
11659
11729
11771
11811
11903
11830
11842
11933
11891
11881
11938
11949
12045
12000
11966
11959
12067
12180
12185
12051
12310
12786
13141
13281
13171
13149
13031
12926
12855
12583
12471
12491
12363
11982
12943
16793
22488
25719
14952
7774
9770
10848
11928
12771
13101
13229
13508
13725
13903
13940
14207
14430
14563
14625
15024
15373
15842
16214
16646
17105
17538
17733
17785
17638
17506
16990
16134
15115
14085
13028
12124
11732
11384
11174
11015
11069
11209
11269
11299
11487
11522
11602
11669
11662
11573
11716
11704
11594
11791
11951
11956
11988
12001
11842
11874
11925
11881
12014
12080
11993
11979
12498
12891
13085
13132
13135
13069
12885
12726
12616
12485
12521
12564
12423
12126
14013
18411
24096
23663
10586
7654
9888
11379
12345
12936
13247
13416
13573
13712
13930
14136
14398
14628
14662
14976
15317
15556
15925
16342
16715
17170
17680
17968
17926
17818
17427
16758
15916
14846
13703
12884
12256
11681
11382
11261
11146
11066
11125
10916
11198
11703
11821
11769
11774
11699
11706
11727
11682
11613
11704
11749
11714
11713
11908
12151
12064
12030
11886
11898
11955
12344
12707
12958
13136
13038
12959
12818
12567
12278
12233
12387
12438
12253
12230
14178
18418
23451
23608
7758
8455
9998
11154
12111
12736
13038
13387
13704
13917
14159
14410
14387
14448
14708
14889
15046
15470
15983
16397
16693
17045
17412
17612
17712
17471
17131
16513
15647
14516
13390
12318
11595
11229
11070
10976
10917
10918
11009
11148
11266
11446
11548
11673
11732
11712
11717
11737
11834
11908
11853
11896
11923
11916
12039
11981
11939
11837
12187
12688
12891
13078
13088
12969
12817
12663
12537
12362
12413
12429
12244
12027
13193
18830
24094
23489
10533
7964
9902
10774
12016
12806
13116
13308
13452
13786
13985
14107
14109
14272
14645
14817
14859
15256
15893
16393
16754
17242
17644
17878
17934
17616
17263
16793
15982
14929
13958
12818
11978
11514
11325
11231
11079
11107
11173
11277
11281
11339
11591
11619
11674
11705
11762
11759
11904
11936
11946
12034
11988
12001
12078
11970
11908
12043
12367
12770
13001
13129
13110
13052
12807
12641
12534
12364
12356
12427
12208
12381
15612
20575
25527
19346
7657
8532
10086
11306
12269
12865
13227
13324
13478
13597
13726
13956
14144
14256
14500
14866
15277
15597
15936
16380
16796
17132
17545
17759
17776
17610
17275
16573
15625
14618
13520
12476
11804
11346
11160
11094
11256
11263
11307
11279
11297
11444
11500
11548
11662
11760
11764
11750
11869
11999
11959
11879
11905
11970
11876
11851
11866
12151
12691
13079
13024
12932
12899
12696
12520
12300
12222
12243
12203
11940
12235
15252
20254
25414
20036
7719
8059
9945
11363
12180
12704
13018
13319
13514
13674
13756
13810
13946
14123
14336
14806
15265
15490
15877
16426
16805
17113
17431
17530
17558
17471
17180
16530
15537
14402
13293
12452
11831
11297
11034
10807
10789
11048
11188
11270
11345
11421
11426
11546
11596
11704
11735
11730
11772
11836
11892
11899
11955
11952
11857
11786
11878
12237
12646
12925
13010
12888
12791
12667
12512
12183
12158
12307
12286
11902
12440
15841
21092
25736
18200
7485
8692
10161
11485
12280
12789
13160
13322
13402
13568
13742
13860
14125
14395
14584
14769
15206
15632
15971
16284
16817
17364
17702
17833
17708
17536
17248
16565
15455
14290
13084
12230
11581
11209
10991
10904
10852
10944
11018
11181
11289
11288
11379
11547
11676
11649
11618
11654
11662
11652
11725
11784
11849
11716
11677
11880
12215
12611
12872
12924
12878
12766
12536
12473
12200
12257
12301
12200
11802
12299
15663
20559
25127
18314
7570
9003
10082
11109
12152
12856
13118
13327
13452
13617
13798
13995
14221
14340
14526
14747
15230
15549
15918
16334
16868
17265
17569
17789
17776
17492
17154
16449
15406
14212
13266
12448
11738
11339
11217
11181
11011
11062
11256
11349
11336
11292
11300
11600
11556
11637
11904
11973
11968
11950
11909
11921
11980
11871
11838
11774
11988
12417
12781
13011
12991
12918
12849
12757
12606
12342
12340
12314
12187
11704
13137
17524
23160
25310
13624
7806
9692
10550
11761
12628
13077
13359
13511
13681
13823
14036
14150
14200
14392
14649
14876
15263
15651
16022
16517
17103
17575
17641
17733
17667
17408
16965
16081
14922
13754
12708
11978
11498
11159
11019
11006
11102
11129
11243
11296
11432
11364
11497
11645
11747
11799
11766
11727
11806
11863
11801
11809
11888
11844
11799
11910
11944
11838
11809
12239
12721
13070
13068
12980
12960
12768
12629
12500
12368
12327
12369
11966
11670
14288
19237
25270
22351
9261
8292
9853
11196
12248
12864
13164
13457
13627
13667
13788
14075
14215
14405
14592
14866
15180
15491
15888
16265
16760
17243
17670
17860
17931
17855
17551
16869
16028
14792
13621
12666
11961
11420
11220
11149
11100
11174
11286
11361
11462
11539
11578
11656
11739
11731
11780
11875
11808
11845
11880
11887
11834
11850
11890
11926
11994
12062
12110
12032
11850
12200
12736
13137
13195
13199
13192
13067
12926
12760
12615
12492
12519
12472
11941
12211
15639
20995
25999
18956
8089
9057
10366
11617
12417
12966
13227
13465
13701
13759
13865
14066
14251
14474
14708
15026
15247
15601
15994
16480
16901
17393
17839
17972
17973
17718
17329
16714
15728
14465
13391
12388
11718
11284
11080
11012
11083
11097
11112
11208
11355
11446
11530
11584
11602
11613
11656
11748
11617
11671
11707
11801
11859
11907
11899
11977
11984
12020
12115
12196
12079
11932
12045
12534
12953
13141
13214
13206
13151
12931
12745
12470
12452
12463
12522
12052
11801
14385
19315
25291
22857
9806
8707
10213
11292
12260
12879
13169
13355
13521
13720
13992
14057
14177
14425
14715
14902
15116
15478
15909
16344
16807
17206
17531
17748
17721
17529
17230
16685
15862
14846
13664
12537
11722
11493
11332
11169
11179
11171
11265
11340
11470
11491
11598
11610
11776
11976
11984
11915
11876
11871
11936
11903
11917
11864
11989
12042
12097
12145
12113
12157
12180
12233
12263
12218
12121
12268
12767
13207
13180
13096
13177
13224
12957
12879
12752
12701
12700
12657
12154
12280
14929
19900
25856
21234
9229
9133
10436
11670
12489
12982
13213
13389
13720
13849
14002
13964
14090
14420
14652
14780
14985
15369
15795
16412
17046
17393
17588
17792
17765
17579
17241
16809
15826
14901
13759
12791
11956
11317
11141
11238
11013
11066
11258
11493
11547
11564
11587
11647
11693
11737
11842
11770
11701
11691
11849
11802
11807
11862
11934
11989
12012
11954
11947
12026
12055
12045
11999
11992
12283
12731
13091
13179
13098
13261
13041
12814
12801
12791
12722
12638
12586
12240
12422
15480
20561
25865
19356
8235
8999
10426
11827
12559
13045
13237
13379
13562
13756
13803
13955
14175
14434
14599
14634
14969
15488
15861
16231
16870
17362
17701
17940
17968
17499
17042
16411
15557
14398
13204
12336
11716
11286
11177
10913
10922
11080
11135
11181
11305
11536
11589
11591
11612
11631
11630
11738
11722
11748
11808
11806
11714
11877
11836
11945
12004
11989
12066
12112
12040
12004
12341
12823
13128
13159
13101
13085
12960
12809
12659
12540
12539
12501
12347
12008
13879
18164
23759
24140
11577
8362
10045
10979
12086
12871
13243
13427
13460
13736
14005
14139
14222
14398
14421
14664
15022
15361
15739
16388
16927
17316
17649
17875
17771
17645
17443
16761
15759
14693
13576
12519
11914
11513
11239
10960
10975
11091
11362
11340
11491
11589
11757
11689
11783
11847
11641
11787
11782
11965
11980
12037
11994
12140
12145
12119
12205
12168
12068
12042
12386
12812
13158
13253
13153
12998
12896
12808
12610
12477
12542
12478
12364
11824
13208
17442
23187
25247
13130
8146
9687
10911
11903
12643
13026
13173
13347
13521
13741
13943
14110
14193
14428
14658
14968
15408
15743
16303
16773
17196
17469
17654
17679
17623
17371
16710
15740
14620
13509
12559
11839
11337
11116
11016
11004
11007
11181
11195
11279
11413
11685
11649
11579
11681
11749
11840
11787
11773
11900
11941
11906
11897
11952
12026
12080
11904
11819
12049
12537
12980
13146
13025
13102
13117
12886
12643
12515
12484
12458
12383
11936
12255
15587
20701
25931
18777
7927
9104
10497
11812
12536
12879
13193
13477
13602
13780
13950
14093
14252
14448
14711
14969
15251
15640
16063
16520
16944
17388
17595
17742
17580
17419
17025
16200
15101
14005
12921
12076
11524
11223
11228
11033
11151
11308
11383
11482
11520
11609
11714
11594
11719
11771
11830
11913
11839
11774
11917
11856
11772
11865
11940
11832
11797
11864
12252
12686
12883
13086
13085
13037
12855
12659
12467
12346
12342
12339
12142
11792
13687
18090
24075
24248
10804
7626
9637
11206
12228
12829
13169
13391
13480
13590
13839
13993
14166
14242
14613
14857
15139
15399
15799
16337
16812
17172
17364
17574
17658
17465
17068
16533
15690
14628
13437
12439
11641
11253
11134
11080
11057
11160
11222
11317
11442
11376
11542
11625
11728
11738
11744
11791
11753
11752
11797
11778
11682
11673
11885
11920
11839
11813
12196
12654
12936
13069
13060
13038
12785
12685
12436
12332
12326
12425
12076
11911
14238
19001
24727
23466
9679
8145
9921
11149
12504
12905
13092
13265
13477
13698
13847
14085
14274
14380
14616
14958
15299
15555
15949
16373
16854
17118
17385
17551
17500
17329
16911
16250
15249
14106
13050
12202
11471
11225
11144
11031
11017
11028
11143
11192
11229
11354
11658
11704
11609
11772
11859
11868
11708
11712
11797
11887
11968
11905
11736
11766
11956
12315
12758
12988
12980
12990
12897
12622
12529
12335
12116
12200
12258
11772
12101
15473
20577
25885
19578
8078
9072
10151
11866
12661
12977
13264
13444
13620
13798
13917
14003
14154
14399
14670
15025
15352
15690
16098
16597
16937
17301
17475
17613
17437
17133
16637
15939
15021
13881
12834
12009
11535
11208
11094
11026
11081
11238
11296
11453
11573
11567
11636
11692
11768
11769
11845
11756
11788
11923
11920
11874
11845
11830
11774
11735
12010
12596
12961
13095
13046
12929
12800
12633
12384
12276
12369
12443
12259
11817
13108
17188
23014
25519
13214
7691
9978
11449
12497
12971
13088
13203
13428
13599
13700
13866
14147
14329
14492
14680
15082
15409
15794
16255
16659
16993
17218
17430
17503
17396
17066
16466
15452
14433
13418
12400
11662
11295
11157
11085
11054
11093
11166
11220
11401
11573
11666
11590
11633
11705
11729
11692
11758
11776
11830
11825
11745
11801
11791
11701
11714
12130
12655
12958
12909
13020
12959
12839
12673
12517
12234
12295
12363
12107
11815
13985
18771
24859
23000
7474
8962
10476
11812
12625
12959
13087
13231
13377
13589
13765
13974
14208
14395
14598
14831
15139
15548
15934
16333
16704
17133
17521
17570
17378
17178
16820
16183
15334
14320
13138
12227
11639
11360
11279
11122
11111
11166
11255
11349
11487
11554
11563
11674
11655
11602
11647
11695
11725
11723
11732
11815
11814
11883
11877
11815
11710
12038
12659
12978
13122
13084
13080
12889
12656
12388
12269
12280
12332
12066
11933
14118
18811
24844
18082
7367
8847
10383
11824
12481
12932
13145
13249
13443
13663
13859
13966
14182
14382
14639
14931
15212
15538
15972
16376
16862
17088
17337
17448
17408
17251
16922
16294
15333
14241
13113
12198
11637
11296
11033
11047
11115
11207
11279
11443
11565
11624
11644
11651
11639
11740
11767
11728
11834
11873
11870
11856
11834
11965
11956
11800
11787
12200
12691
13061
13142
13009
12937
12842
12721
12455
12336
12326
12279
11960
12037
15121
22435
25865
15347
7626
9539
10672
11931
12639
13014
13135
13339
13637
13808
14006
14137
14279
14377
14629
14903
15278
15644
16065
16555
16956
17305
17518
17554
17376
17217
16766
15993
14992
13928
12954
12139
11468
11204
11050
10983
10947
11066
11230
11277
11483
11674
11680
11726
11843
11794
11848
11827
11947
11999
12039
12000
12040
11860
11820
11828
12138
12569
13017
13182
13099
13030
12893
12731
12534
12412
12332
12397
12119
11865
13981
20842
25965
19194
8052
9209
10265
11697
12549
12985
13141
13295
13528
13725
13866
13995
14137
14385
14717
14917
15251
15509
15932
16464
16879
17158
17367
17471
17390
17017
16736
16104
15096
14051
13022
12164
11559
11174
10998
11018
11004
11041
11183
11332
11331
11576
11653
11610
11657
11739
11782
11900
11799
11718
11870
11886
11818
11873
11874
11755
11797
12179
12740
13060
13023
12962
12976
12870
12667
12390
12281
12375
12315
11949
12508
16313
21917
25931
16033
7642
9242
10683
11971
12691
12978
13205
13367
13626
13790
13853
13980
14194
14419
14628
14909
15170
15580
15966
16400
16803
17151
17425
17518
17402
17189
16777
16110
15148
13997
12935
12116
11558
11146
11004
10964
10960
11049
11302
11389
11514
11573
11644
11601
11613
11620
11752
11721
11814
11917
11866
11769
11744
11896
11922
11809
11759
12046
12444
12816
13004
13010
13001
12873
12614
12551
12332
12318
12350
12064
11923
14390
19182
25236
22405
8788
8140
9984
11523
12352
12881
13100
13337
13493
13761
13914
14071
14132
14277
14444
14733
14929
15417
15845
16297
16746
17106
17444
17504
17509
17337
17110
16497
15645
14598
13559
12606
11948
11512
11273
11200
11156
11212
11343
11392
11459
11591
11704
11709
11753
11858
11794
11822
11835
11945
11857
11897
11961
12037
12030
12048
12129
12017
11875
12228
12793
13129
13220
13041
12978
12952
12929
12620
12479
12468
12424
12040
12242
15101
20221
25771
21012
8224
8679
10184
11638
12404
12941
13154
13357
13512
13639
13812
14047
14310
14479
14682
14944
15200
15495
15859
16347
16804
17191
17425
17468
17527
17403
17115
16466
15592
14566
13430
12472
11750
11334
11120
10971
10878
10979
11111
11278
11410
11543
11604
11645
11748
11666
11644
11788
11751
11734
11753
11865
11889
11827
11816
11902
11881
11744
11970
12452
12901
12985
12930
12904
12836
12663
12411
12321
12391
12445
12183
11837
13881
18521
24243
23764
10068
7906
9625
11094
12232
12825
13032
13274
13453
13515
13702
13859
14061
14219
14422
14747
15133
15414
15727
16073
16615
17077
17436
17609
17513
17317
17032
16494
15624
14467
13353
12416
11792
11351
11085
11020
10905
10972
11098
11251
11391
11428
11567
11671
11694
11776
11803
11765
11746
11886
11957
11995
11929
11980
12049
11980
11892
11788
11959
12510
13033
12936
12941
12926
12739
12432
12298
12388
12248
11970
12008
14646
19381
25329
22116
8845
8517
10047
11491
12307
12900
13151
13320
13431
13619
13806
13927
14049
14271
14554
14797
15059
15484
15912
16222
16648
17119
17448
17540
17577
17395
17156
16471
15589
14375
13271
12360
11645
11365
11228
11061
10963
11043
11166
11233
11282
11435
11573
11693
11733
11791
11800
11809
11760
11840
11897
11941
11838
11935
11979
12095
11950
11806
11955
12540
13024
13196
13188
13067
12953
12760
12580
12410
12393
12405
12275
11815
13191
17337
23286
25483
13144
7591
9572
11106
12216
12842
13148
13290
13520
13679
13906
13934
14047
14321
14480
14674
15025
15416
15652
16084
16519
16965
17308
17537
17551
17445
17262
16885
16118
15032
13845
12851
12084
11526
11207
10984
11046
11112
11137
11184
11263
11398
11426
11541
11706
11685
11619
11835
11843
11833
11759
11808
11877
11877
11885
12021
12008
11942
11806
12124
12627
13041
13138
13113
13057
12988
12852
12591
12353
12364
12488
12234
11813
13475
18067
24115
25024
11785
7959
9752
11209
12296
12902
13118
13289
13448
13693
13868
14037
14203
14309
14551
14846
15138
15375
15758
16167
16650
17035
17471
17728
17841
17637
17303
16738
15818
14760
13729
12736
11791
11352
11045
10969
10936
10993
11065
11253
11293
11352
11309
11448
11596
11564
11693
11735
11702
11784
11803
11776
11821
11773
11815
11860
11867
11769
12008
12454
12881
13116
13127
13002
12842
12632
12505
12283
12322
12408
12150
11771
13400
17844
23688
25060
12146
7910
9753
10863
11992
12737
13115
13319
13460
13572
13736
13954
14015
14229
14378
14699
15051
15328
15726
16191
16609
17106
17538
17692
17730
17569
17298
16674
15921
14823
13628
12540
11814
11387
11172
10942
10868
10928
11010
11165
11274
11451
11559
11655
11637
11759
11786
11867
11874
11910
11944
11965
11956
11988
11979
12069
12048
12025
12007
12318
12705
13098
13294
13249
13165
12948
12859
12651
12502
12471
12519
12179
11774
13940
18791
24934
24165
10408
8404
9950
11366
12371
12907
13153
13327
13521
13681
13881
13973
14156
14323
14563
14751
15033
15342
15740
16238
16709
17159
17382
17644
17680
17591
17280
16697
15749
14649
13476
12506
11797
11369
11193
11052
10902
11009
11143
11272
11346
11478
11545
11531
11662
11794
11787
11792
11792
11842
11959
11955
11907
11851
11956
11938
12097
12187
12190
11943
12145
12568
13065
13324
13216
13109
13134
12974
12770
12583
12499
12573
12394
12033
12743
16335
21939
26026
16778
7637
9311
10805
12009
12746
13059
13143
13380
13649
13859
13984
14046
14317
14517
14698
14987
15169
15631
16028
16450
16938
17375
17660
17737
17734
17552
17086
16351
15309
14132
13086
12288
11679
11322
11100
10943
11034
11165
11308
11343
11338
11410
11578
11596
11635
11742
11743
11626
11669
11727
11734
11783
11664
11829
11928
11894
11910
11943
11959
12167
12065
11889
12116
12586
12927
13203
13247
13126
13046
12876
12773
12589
12502
12563
12509
12050
12797
16505
22242
25985
16438
7582
9266
10844
12083
12613
13037
13266
13548
13671
13770
13976
14184
14352
14502
14684
14992
15305
15635
15977
16409
17020
17543
17753
17877
17836
17577
17204
16588
15581
14449
13242
12359
11677
11268
11084
10984
10967
11132
11207
11388
11395
11416
11443
11506
11521
11618
11769
11809
11714
11656
11677
11764
11699
11749
11803
11842
11959
11930
11871
11799
12033
12476
12949
13115
13061
13057
12995
12753
12612
12459
12436
12396
12305
11946
12845
16945
22472
25846
15290
7456
9374
10571
11811
12581
13005
13254
13428
13609
13751
13881
14132
14320
14452
14713
15015
15278
15614
15993
16557
17083
17496
17740
17734
17601
17434
16997
16246
14842
13679
12572
11867
11310
11053
10972
10891
10796
10885
11194
11329
11379
11538
11698
11623
11667
11682
11773
11750
11713
11770
11843
11870
11782
11804
11880
11943
11981
11908
11864
11936
12264
12907
13218
13179
13089
13134
12945
12747
12481
12462
12449
12431
11992
12209
15349
20584
26000
20108
8046
8761
10266
11695
12504
12892
13138
13393
13547
13714
13914
14074
14222
14342
14496
14836
15149
15466
15848
16329
16705
17211
17619
17762
17693
17416
17043
16268
15134
14079
12873
11983
11375
11090
11015
11010
11005
11029
11238
11347
11302
11369
11515
11612
11686
11651
11760
11774
11881
11874
11943
11911
11898
11914
12010
12082
12036
12012
11963
11875
12037
12533
12894
13163
13213
13160
13180
13046
12831
12522
12516
12644
12541
12043
12534
16013
21488
26011
17730
7643
9058
10689
12118
12834
13198
13378
13511
13624
13778
13920
14228
14406
14530
14694
14920
15180
15545
16106
16622
16998
17394
17793
17840
17714
17380
16897
16121
15146
14020
12969
12106
11567
11215
11008
10907
11002
11031
11162
11296
11372
11407
11487
11557
11628
11751
11708
11687
11640
11857
11840
11836
11729
11727
11865
11916
11902
12057
11990
11898
11876
12317
12862
13077
13123
13005
13086
12917
12850
12637
12445
12418
12484
12146
12225
15093
20117
25720
20850
8217
8516
10202
11587
12430
13017
13291
13333
13531
13709
13927
13958
14128
14430
14708
14974
15331
15524
15972
16444
16962
17398
17729
17831
17678
17551
17214
16433
15332
14316
13166
12184
11529
11161
10959
10892
10930
11102
11154
11217
11234
11348
11445
11552
11625
11614
11635
11676
11735
11880
11915
11795
11806
11797
11920
12024
12088
11984
11847
12165
12629
13020
13142
12984
12882
12821
12619
12513
12354
12415
12362
12102
11884
14342
18985
24726
23055
9439
8240
9931
11159
12225
12808
13106
13313
13523
13737
13895
13989
14194
14414
14553
14815
15195
15547
15976
16557
17050
17431
17691
17780
17827
17519
17190
16461
15460
14323
13189
12174
11534
11081
10991
11031
11008
11046
11166
11238
11431
11498
11514
11563
11695
11816
11829
11837
11856
11816
11875
11886
11867
11908
11854
12010
11942
11896
11957
12476
12917
13179
13182
13107
13161
12924
12804
12566
12492
12490
12542
12082
12228
15329
20485
25921
20385
8118
8889
10281
11677
12558
13035
13252
13435
13549
13815
13968
14091
14185
14499
14842
15051
15289
15675
16087
16506
17025
17530
17817
17820
17766
17528
17139
16323
15307
14081
12949
12043
11517
11268
11055
11041
11067
11159
11325
11462
11519
11590
11667
11707
11752
11819
11862
11832
11705
11842
11952
11936
11958
11986
12048
11967
11851
11869
12276
12621
12999
13179
13110
13088
12893
12675
12688
12477
12423
12440
12273
11841
12780
16762
22476
25819
14954
7325
9256
11345
12339
12738
13075
13385
13578
13775
13893
14029
14139
14357
14469
14738
15084
15444
15813
16310
16768
17180
17472
17727
17760
17629
17344
16927
16077
14915
13856
12794
11940
11481
11227
10969
10992
11070
11134
11236
11290
11373
11376
11469
11593
11645
11605
11612
11704
11811
11767
11764
11710
11773
11794
11901
11868
11793
11637
11953
12457
12877
13014
12962
12949
12760
12617
12461
12321
12319
12393
12254
11886
13159
17390
23116
22675
8823
7677
9816
11456
12363
12805
13078
13250
13513
13687
13853
14041
14245
14344
14488
14877
15239
15524
15925
16272
16749
17201
17550
17721
17741
17597
17350
16843
16021
14979
13771
12812
12014
11567
11220
11085
10937
11011
11122
11288
11330
11477
11556
11645
11733
11805
11820
11763
11708
11785
11893
11861
11911
11817
11929
11926
11999
11970
11904
11909
12291
12673
12965
13065
13043
13049
12760
12719
12518
12435
12450
12527
12124
13003
16909
22373
25833
15735
7250
9245
10431
11852
12665
13128
13286
13500
13696
13858
14069
14197
14256
14435
14716
14962
15310
15703
16135
16635
17137
17436
17793
17826
17689
17467
16959
16237
15195
14151
13064
12194
11596
11334
11110
11099
10971
11055
11076
11285
11366
11513
11655
11706
11794
11874
11825
11859
11885
11910
11947
11885
11959
11975
12074
12081
11964
11807
12135
12495
12983
13186
13101
13020
12884
12726
12548
12436
12475
12413
11824
12212
15592
20865
25961
19412
7809
8889
10093
11455
12336
12768
13102
13310
13420
13806
14012
14044
14100
14246
14474
14770
15060
15428
15896
16377
17003
17347
17679
17766
17803
17549
17195
16430
15416
14284
13175
12167
11581
11310
11149
11008
10972
11041
11222
11266
11317
11364
11529
11721
11798
11845
11839
11879
11818
11911
11958
11910
11922
11979
11976
12022
12205
12103
11938
12062
12538
13014
13229
13157
13237
13181
12808
12565
12526
12527
12554
12307
11825
12983
17277
23254
25713
13914
7752
9601
11009
12258
12779
13192
13355
13498
13730
13839
13848
13992
14198
14434
14711
14991
15274
15654
16069
16537
17079
17421
17676
17752
17807
17541
17182
16337
15244
14094
13011
12196
11582
11181
11134
11068
11046
11178
11307
11360
11467
11514
11535
11603
11708
11749
11734
11849
11856
11854
11808
11866
11854
11854
11891
11967
11984
12011
11927
11924
12287
12856
13112
13165
13131
13084
12895
12716
12527
12343
12407
12485
12204
12049
14744
19819
25648
21504
8558
8478
10072
11606
12586
13033
13317
13511
13588
13837
13922
14055
14148
14375
14502
14771
15098
15498
15972
16472
16835
17246
17529
17748
17797
17656
17312
16651
15841
14787
13677
12592
11845
11293
11155
11036
11063
11044
11162
11260
11416
11455
11506
11537
11514
11646
11734
11813
11838
11765
11807
11831
11891
11912
11930
11940
11894
12029
12108
12155
12061
12205
12623
12999
13191
13238
13186
13129
12933
12791
12615
12571
12561
12445
11926
12465
16158
21671
26031
17717
7633
8916
10464
11933
12651
13142
13353
13532
13670
13869
14052
14134
14267
14492
14718
15029
15327
15733
16116
16609
17037
17401
17735
17873
17750
17626
17298
16512
15502
14461
13305
12278
11695
11253
11044
10972
10963
11055
11096
11176
11329
11310
11454
11518
11594
11627
11727
11795
11795
11844
11881
11782
11754
11870
11880
11904
11897
11907
11807
12000
12322
12641
12992
13117
13015
12883
12712
12613
12456
12462
12451
12335
11775
12237
15921
21337
25934
17943
7702
9157
10297
11633
12452
12918
13243
13355
13474
13682
13924
14072
14212
14378
14630
14979
15187
15470
15887
16427
16869
17373
17550
17731
17653
17472
17101
16429
15425
14258
13122
12091
11447
11120
10926
10952
11010
11016
11065
11198
11294
11344
11529
11658
11652
11686
11818
11864
11929
11827
11880
11898
11894
11873
11968
11971
12016
11973
12034
12377
12847
13226
13224
13191
13054
12834
12699
12587
12400
12393
12389
11936
11910
14914
20044
25799
21110
8557
8811
10083
11552
12477
12989
13124
13314
13488
13715
13836
13950
14225
14385
14555
14776
15101
15416
15784
16250
16688
17173
17549
17791
17833
17633
17327
16654
15672
14443
13342
12456
11748
11255
11011
11004
11097
11078
11129
11235
11354
11377
11538
11586
11642
11649
11702
11805
11804
11965
12048
12012
11930
11839
11903
12016
12089
12041
11892
12079
12494
12916
13220
13234
13145
13089
12960
12726
12484
12468
12489
12542
12091
12361
15756
21090
25988
18402
7660
8805
10367
11766
12561
13054
13273
13420
13595
13720
13806
14069
14203
14443
14588
14875
15109
15556
16002
16499
16965
17352
17683
17827
17757
17482
17188
16551
15580
14333
13351
12473
11801
11305
11070
10965
10958
11094
11187
11171
11221
11369
11505
11545
11633
11712
11794
11849
11809
11739
11767
11827
11818
11880
11869
11967
11934
11899
11757
12001
12558
12959
13125
13065
12972
12924
12722
12598
12414
12371
12376
12324
11912
12439
15967
21371
25920
17220
7195
8806
10440
11864
12574
13014
13341
13467
13616
13740
13891
14044
14201
14494
14671
14909
15263
15696
16060
16499
16977
17420
17713
17812
17746
17603
17317
16616
15667
14546
13463
12455
11710
11257
11141
11025
11011
11100
11237
11348
11450
11527
11681
11734
11746
11776
11735
11746
11764
11821
11769
11847
11861
11828
11799
11745
11663
12036
12428
12767
12995
13035
12973
12895
12697
12585
12358
12301
12326
12276
11836
12420
16032
21445
25944
17510
7488
8879
10173
11605
12623
13041
13172
13361
13591
13729
13846
13845
14205
14400
14565
14977
15277
15539
15950
16523
16994
17445
17632
17716
17664
17419
16989
16379
15390
14274
12743
11947
11371
11063
11061
10914
10926
11143
11242
11306
11367
11463
11550
11497
11624
11646
11671
11666
11783
11840
11844
11816
11853
11770
11692
11822
11974
12145
12573
13027
13026
12903
12773
12640
12363
12240
12231
12303
12139
11777
12342
16046
21360
25800
16886
7459
8987
10119
11585
12497
13000
13145
13394
13543
13757
13872
14037
14147
14426
14641
14884
15181
15486
16021
16504
16958
17456
17753
17719
17589
17330
16981
16205
15186
13702
12631
11823
11516
11188
11123
11010
11111
11178
11351
11280
11382
11577
11712
11674
11652
11806
11854
11881
11856
11818
11791
11808
11845
11986
11924
11857
12011
12534
12871
13102
13115
13054
12952
12668
12487
12320
12298
12298
12288
11902
12590
16128
21793
25941
16410
7408
9144
10441
11856
12660
13084
13225
13355
13582
13710
13895
14033
14229
14361
14605
14930
15219
15540
16018
16489
16967
17378
17646
17692
17546
17332
17050
15926
14808
13765
12685
11953
11509
11119
10925
10992
11006
11132
11347
11494
11483
11591
11641
11716
11710
11692
11770
11825
11745
11787
11847
11861
11913
11990
11865
11832
12156
12498
12748
13023
13185
13021
12872
12606
12431
12319
12319
12382
12292
11848
12612
16300
21753
25919
16350
7242
8997
10690
11920
12700
13059
13250
13320
13509
13661
13894
14148
14342
14453
14602
14861
15165
15553
15916
16425
16795
17233
17620
17752
17559
17207
16736
15969
14832
13828
12748
11895
11374
11169
10935
11042
11109
11167
11272
11286
11393
11455
11552
11638
11682
11657
11657
11730
11764
11755
11788
11772
11858
11856
11810
11846
12180
12578
12882
13054
13043
13036
12886
12651
12504
12412
12281
12350
12073
11761
13179
17705
23691
25183
12375
7421
9379
10936
12113
12706
12982
13240
13515
13614
13692
13868
14072
14188
14472
14730
15025
15320
15718
16174
16586
17017
17407
17555
17645
17442
17102
16537
15644
14517
13375
12366
11662
11223
11011
11052
11001
11042
11108
11248
11318
11427
11484
11588
11670
11698
11711
11819
11795
11820
11760
11717
11808
11722
11650
11648
11926
12348
12701
12836
12835
12777
12716
12476
12388
12281
12206
12250
12211
11667
12320
16036
21397
25628
16507
7303
9030
10095
11490
12374
12927
13266
13354
13443
13608
13854
14048
14168
14302
14603
14881
15141
15581
15997
16354
16831
17219
17503
17580
17332
17059
16481
15642
14601
13485
12524
11857
11347
11119
10997
10949
10941
11088
11258
11435
11478
11486
11523
11645
11765
11757
11785
11763
11778
11795
11884
11830
11865
11877
12125
12406
12663
12928
12835
12829
12785
12669
12424
12315
12365
12344
12126
11775
13087
16964
22205
25035
14012
7472
9470
10388
11744
12701
13109
13255
13402
13543
13617
13773
14056
14196
14408
14620
14958
15275
15607
16104
16575
16941
17339
17563
17579
17402
17115
16371
15380
14400
13340
12445
11872
11481
11263
11171
11068
11100
11280
11406
11357
11422
11670
11824
11878
11879
11876
11803
11875
11914
11944
11862
11798
11754
11933
12261
12652
12885
12948
12829
12607
12433
12461
12297
12323
12341
12252
11943
12786
16275
21321
25102
16126
7274
9116
10281
11445
12485
12950
13162
13218
13401
13623
13794
13938
14196
14306
14456
14747
14996
15425
15828
16417
16807
17108
17205
17324
17299
16970
16356
15505
14431
13455
12497
11855
11490
11346
11212
11117
11115
11335
11491
11544
11690
11715
11790
11783
11803
11864
11879
11799
11807
11802
11731
11781
11871
11930
12188
12494
12807
12935
12759
12637
12405
12343
12130
12193
12104
12114
11838
12233
14792
19362
24358
21055
8452
7911
9956
11011
12015
12716
12862
13229
13496
13621
13843
13963
14233
14378
14617
14807
15153
15509
15871
16298
16697
17043
17461
17582
17456
17173
16964
16058
15137
13955
12978
12252
11703
11256
11158
11191
11226
11279
11435
11597
11673
11696
11659
11761
11730
11792
11888
11887
11879
11934
12083
11894
11848
11814
12158
12458
12842
13111
13007
12994
12631
12368
12272
12278
12263
12225
12068
11722
13467
17558
22512
22883
10879
7081
9230
10542
11775
12628
13226
13379
13419
13432
13836
13971
13733
14171
14607
14781
14870
15138
15740
15908
16158
16638
16742
16873
17170
17189
16669
16098
15056
14063
13145
12262
12072
11448
11220
11475
11598
11566
11686
11794
11891
11898
11852
11858
11805
12145
12400
12380
12275
12285
12254
12085
12018
12199
12565
12823
13125
13283
13249
13051
12851
12636
12346
12361
12383
12268
12041
12164
15148
20251
25494
19309
8401
9258
10352
11443
12444
13035
13306
13556
13662
13803
13990
14087
14126
14417
14592
14846
15199
15655
16050
16401
16735
17195
17360
17428
17308
17038
16501
15943
15224
14118
12717
12075
11663
11439
11354
11229
11388
11548
11538
11684
11823
11907
11968
11964
11949
11960
11942
11883
12027
12094
11938
11885
11915
12195
12552
12798
12994
12940
12825
12726
12458
12420
12260
12210
12261
12157
11748
12940
16811
22330
24515
13099
6876
9127
10348
11497
12457
12965
13170
13338
13538
13705
13882
13986
14183
14350
14596
14990
15318
15580
16005
16539
16896
17234
17381
17399
17219
16970
16555
15814
14716
13657
12606
11759
11360
11214
11052
11040
11043
11095
11286
11445
11602
11748
11766
11754
11774
11767
11782
11767
11812
11853
11868
11885
11902
12165
12607
12820
12892
12794
12646
12495
12312
12141
12108
12149
12148
11982
12016
14442
18858
24229
21254
8342
7597
9648
10834
11966
12738
12990
13151
13448
13643
13718
13868
13990
14206
14377
14695
14951
15333
15693
16093
16671
17144
17360
17523
17459
17260
16839
16205
15288
14273
13285
12514
11943
11491
11209
11123
11121
11277
11447
11495
11590
11671
11723
11853
11980
12019
12021
11999
11970
11973
11954
11894
11933
12163
12491
12784
13000
13165
13037
12795
12633
12579
12260
12231
12303
12276
12018
12902
16430
21780
25263
15097
6828
8967
10205
11553
12567
13037
13212
13451
13726
13854
13899
13989
14339
14564
14749
15016
15241
15655
16138
16680
17010
17197
17459
17515
17401
17176
16635
15882
14938
13896
12907
12149
11644
11413
11231
11282
11263
11424
11457
11546
11607
11801
11787
11763
