11889
12295
12234
12352
12072
11838
12436
15552
20327
24011
15989
7216
9452
10737
11714
12340
12936
13120
13346
13452
13537
13899
14097
14079
14210
14545
14925
14993
15287
15837
16286
16532
17077
17317
17475
17300
17220
16924
16177
15055
13927
12929
12143
11505
11248
11138
10968
11061
11163
11344
11255
11362
11603
11750
11725
11664
11742
11847
11941
11855
11805
11768
11686
11809
11911
11803
11920
11896
11938
11872
11961
12261
12554
13016
12437
12296
11843
12227
15426
19925
24109
17034
7769
9422
10662
11661
12323
13010
13122
13458
13593
13691
13704
13940
14148
14340
14341
14810
15174
15333
15735
16233
16708
17074
17398
17394
17512
17438
17133
16377
15221
14228
13239
12380
11696
11317
11214
11225
11140
11271
11327
11485
11612
11609
11674
11827
11805
11845
11914
12025
11925
11851
11927
11929
11960
11968
11970
12097
12160
12043
12032
12132
12291
12127
11890
12033
12582
12883
12624
12529
12504
12159
11791
13545
17761
23306
22741
10410
8509
10518
11540
12180
12852
13255
13371
13361
13676
13897
14018
14146
14296
14516
14668
14922
15201
15592
16029
16441
16816
17283
17498
17616
17677
17461
16936
16081
15109
13958
12963
12216
11799
11451
11286
11153
11316
11470
11545
11526
11546
11756
11758
11739
11827
11745
11774
11997
11886
11860
11823
11839
11972
11986
11852
11774
12026
12181
12093
12038
12208
12262
12162
13186
13315
13325
13136
12896
12733
12652
12657
12506
11843
12065
15364
20042
25025
18119
8157
9853
11067
11854
12471
12986
13386
13551
13569
13765
13958
14099
14197
14415
14529
14668
15149
15447
15728
16188
16702
17056
17398
17694
17807
17598
17433
16883
15896
14839
13701
12754
12109
11597
11187
11173
11166
11227
11388
11480
11330
11527
11614
11742
11698
11729
11709
11779
11779
11685
11852
11859
11874
11814
11861
11891
11977
12051
12257
12338
12297
12314
12305
12484
12830
13170
13356
13339
13296
13293
13057
12986
12943
12777
12663
12489
11858
13259
17166
22388
24251
12944
8444
10587
11503
12286
12910
13259
13550
13719
13770
13888
14059
14224
14271
14720
14957
15075
15289
15617
16089
16386
16924
17371
17684
17825
18096
17854
17490
16844
15677
14644
13608
12578
11850
11554
11376
11247
11210
11338
11412
11431
11474
11504
11478
11866
11926
11838
11705
11846
11893
12090
12175
12198
12336
12349
12182
12399
12644
12488
12456
12752
13241
13367
13637
13751
13808
13626
13366
13499
13372
13289
13360
13009
12698
15177
19731
24644
21587
10231
9832
11782
12549
13335
14125
14374
14692
15021
15073
15242
15505
15557
15785
16043
16135
16555
16935
17317
17697
18225
18786
19142
19382
19479
19517
19235
18856
18149
16959
15842
14887
14105
13386
13111
13065
13003
12867
13105
13295
13384
13433
13581
13637
13667
13668
13934
13923
13940
13811
13886
14010
13941
14031
13952
13840
13855
14092
14387
14736
14867
14918
14843
14629
14544
14388
14271
14079
14099
13761
13180
14742
18807
23712
24376
12949
9336
11588
12503
13054
13854
14297
14385
14473
14629
14703
14807
14954
15156
15210
15325
15610
15853
16167
16411
16885
17505
17786
18094
18275
18112
17931
17569
16798
15564
14246
13215
12392
11686
11192
11260
11095
11017
11154
11164
11113
11206
11347
11334
11337
11376
11480
11446
11476
11342
11301
11453
11493
11479
11476
11495
11240
11262
11494
11781
12070
12293
12250
12280
12240
12214
12020
11699
11607
11574
11480
10993
11566
15053
20007
23704
13981
6779
9056
10162
10872
11519
12013
12289
12436
12497
12621
12770
12963
13154
13378
13564
13619
13951
14397
14706
15140
15576
16123
16448
16588
16671
16565
16282
15689
14699
13587
12428
11449
10807
10427
10153
10064
10217
10273
10243
10267
10715
10872
10927
10853
10842
10928
10943
10955
10945
10968
11013
11110
11052
11136
11231
11251
11223
11320
11246
11109
11354
11844
12096
12247
12261
12414
12391
12168
12014
11807
11658
11686
11612
10931
11715
15355
20399
24122
14254
7057
9315
10236
11064
11752
12379
12625
12800
12846
12983
13148
13339
13512
13629
13763
14020
14311
14568
15010
15624
16067
16485
16867
17063
17107
17074
16723
16206
15276
14122
13006
11982
11143
10989
10855
11075
11153
11250
11201
11195
11157
11322
11330
11294
11227
11249
11339
11476
11518
11453
11623
11683
11594
11612
11763
11829
11798
11695
11650
12018
12400
12584
12894
12952
12887
12785
12638
12486
12442
12379
12296
12013
11497
13356
17483
22289
22270
11071
8024
10426
11284
12040
12603
13081
13283
13448
13545
13682
13870
13968
14181
14321
14540
14738
15068
15366
15790
16425
16909
17256
17580
17753
17647
17503
17108
16285
15368
14264
11100
11037
11147
11349
11425
11542
11553
11689
11696
11758
11744
11788
11824
11883
11819
11851
11861
11900
11973
11859
11915
12137
12170
12071
11976
12222
12579
12837
13094
13011
13092
12950
12812
12712
12474
12421
12558
12435
11949
12777
15949
20223
23258
15011
7667
9658
11026
12028
12660
13121
13239
13428
13772
13870
13827
13981
14243
14419
14612
14723
14998
15441
15793
16194
16787
17256
17624
17800
17866
17674
17301
16670
15608
14335
11242
11261
11293
11371
11555
11627
11697
11667
11832
11967
11898
11997
11908
11932
12012
12027
12029
12014
11959
12037
12058
12027
12253
12239
12156
12019
12399
12816
13094
13226
13145
13045
12978
12921
12724
12534
12463
12473
12127
11892
14080
18222
23201
20996
9395
8523
10510
11589
12258
12881
13135
13324
13529
13704
13802
13937
14091
14259
14472
14652
14951
15270
15672
16118
16551
17012
17479
17680
17898
17909
17601
17156
16281
11314
11255
11393
11468
11585
11603
11592
11617
11730
11749
11859
11861
11939
11904
11846
11839
11860
11807
11904
12016
12103
11970
11962
12067
12081
12125
12154
12144
12102
12040
12346
12803
13034
13250
13199
13167
13069
12887
12768
12643
12502
12512
12237
11698
12687
16603
21783
24700
14014
7986
10196
11295
12001
12595
13047
13224
13462
13521
13680
13811
13961
14066
14321
14460
14739
15044
15464
15896
16321
16882
17443
17791
17943
12993
12097
11497
11175
11058
10944
10983
11032
11327
11371
11426
11405
11528
11621
11719
11734
11790
11802
11842
11839
11900
11999
11892
12013
12065
12034
12008
12121
12077
12267
12418
12655
12425
12191
12307
12417
12266
12394
12858
13032
13332
13391
13455
13456
13259
12925
12751
12644
12730
12645
12155
11775
14464
18946
24427
21577
9437
9010
10531
11532
12230
13060
13375
13583
13538
13742
13871
14090
14237
14256
14537
14822
15025
15263
17845
17567
17406
16840
15602
14818
13861
12945
12288
11837
11510
11181
11377
11599
11547
11642
11822
11829
12038
12138
12068
12129
12209
12171
12279
12274
12186
12383
12270
12412
12369
12428
12504
12631
12614
12767
12742
12716
12744
12782
12806
12880
13200
13530
13669
13839
13915
13797
13612
13344
13145
12964
13045
13105
12766
12613
15082
19318
24017
19233
8412
9047
10901
11703
12451
13374
13826
13891
14031
14255
14397
14269
14368
16464
16953
17396
17650
17903
17969
17749
17346
16636
15713
14478
13483
12498
11916
11493
11365
11233
11270
11252
11298
11293
11418
11534
11639
11660
11653
11788
11766
11767
11837
11889
11723
11677
11716
11812
11968
12042
11965
11994
11885
11974
11978
12226
12652
12884
13017
12919
13005
12866
12645
12409
12423
12292
12309
12018
11426
12282
15921
20674
23377
13655
7066
9437
10371
11239
11993
12636
12829
13100
13213
13360
13429
13602
13713
16270
16723
17239
17523
17659
17557
17264
16664
15720
14527
13238
12246
11340
10854
10547
10467
10375
10414
10486
10581
10625
10753
10787
10863
10948
10968
11024
11038
11090
11096
11109
11077
11126
11083
11130
11065
11149
11190
11275
11280
11274
11118
11369
11870
12307
12488
12413
12492
12400
12234
12015
11917
11885
11945
11783
11301
11664
15245
20359
24873
16482
6990
8990
10131
11136
12043
12767
13022
13223
13389
13616
13728
13904
16179
16770
17237
17798
18147
18341
18211
18036
17585
16763
15613
14378
13238
12342
11751
11375
11251
11122
11149
11178
11342
11467
11619
11684
11812
11849
11883
11929
11934
11953
11966
11955
11950
11974
12006
12064
12025
12083
12062
12205
12126
12110
12085
12542
12975
13283
13343
13293
13244
13107
12915
12771
12676
12623
12723
12387
11910
13764
18359
23669
24388
12361
8317
10459
11095
12145
12942
13400
13593
13764
13855
13998
14087
16143
16596
17070
17524
17995
18166
18226
18088
17753
17112
16170
14952
13748
12675
11896
11389
11081
10950
10898
11001
11041
11134
11248
11360
11360
11433
11468
11540
11576
11647
11694
11707
11743
11767
11790
11820
11860
11768
11750
11737
12103
12465
12764
12750
12767
12695
12577
12418
12276
12108
12113
12158
11971
11502
12837
16867
21627
23447
12947
7252
9590
10439
11268
12100
12672
12919
13073
13257
13403
13571
13763
13932
14129
14322
17334
17527
17605
17461
17218
16605
15700
14482
13340
12296
11600
11105
10921
10824
10799
10858
10958
11028
11168
11278
11359
11484
11568
11725
11779
11841
11889
11932
11945
11955
11928
12021
11940
11949
11949
12160
12557
12856
13096
13061
13046
12878
12724
12525
12412
12337
12427
12291
11651
12247
16070
21317
25454
16172
7813
9864
10770
11675
12465
13089
13314
13500
13638
13797
13882
14069
14223
14418
14627
14863
15167
15542
15951
17556
16992
16087
14963
13779
12768
11956
11476
11163
11112
11051
11120
11154
11317
11390
11475
11529
11635
11737
11770
11762
11796
11844
11792
11799
11770
11797
11790
11831
11742
11697
11759
12254
12625
12862
12913
12903
12864
12733
12570
12373
12286
12283
12389
11910
11416
13606
18330
24066
22829
10103
8702
10220
11143
11936
12701
12912
13090
13314
13558
13720
13741
13871
14021
14307
14631
14934
15111
15540
15936
16473
17017
17447
14401
13320
12402
11799
11327
11054
11043
11039
11156
11325
11447
11400
11542
11597
11709
11707
11684
11688
11726
11768
11854
11842
11843
11919
11962
11890
11832
11785
11696
12157
12654
12960
13000
13063
12979
12841
12539
12477
12326
12335
12372
12185
11524
12340
16275
21463
24694
14512
7887
9947
10668
11530
12408
12816
13002
13214
13383
13585
13850
13791
13849
14256
14586
14808
15117
15461
15857
16318
16785
17208
17491
17644
17583
17453
11576
11369
11251
11326
11417
11547
11590
11704
11823
11870
11973
12070
12029
12078
12082
12106
12123
12168
12213
12241
12259
12292
12302
12275
12185
12323
12747
13084
13308
13312
13309
13206
13058
12917
12762
12751
12717
12623
11969
12215
15599
20433
24826
17341
8152
9989
11039
11819
12481
13125
13348
13528
13700
13809
13913
14045
14243
14395
14658
14891
15178
15452
15802
16186
16648
17091
17420
17553
17518
17428
17100
16426
15445
11683
11724
11661
11654
11752
11822
11874
11892
11965
11994
11971
11996
12054
12025
12053
11964
11899
12015
12414
12818
13062
13097
13073
13014
12787
12624
12412
12359
12419
12418
11850
11460
14107
18782
24271
20805
8807
9042
10519
11346
12022
12695
13015
13199
13410
13581
13746
13834
13987
14176
14414
14654
14889
15180
15496
15981
16468
16953
17249
17418
17456
17320
17001
16433
15556
14490
13371
12425
11782
11358
11137
11091
11108
11165
11655
11675
11687
11669
11684
11665
11714
11710
11753
11768
11810
11798
11682
11727
12126
12564
12849
12877
12786
12768
12601
12442
12245
12215
12204
12237
11811
11348
13694
18320
23911
22224
9860
9010
10365
11179
12022
12615
12946
13144
13379
13517
13689
13768
13899
14103
14287
14534
14856
15213
15577
15972
16422
16905
17299
17497
17545
17465
17252
16770
15857
14826
13702
12769
11962
11498
11223
11123
11097
11191
11268
11383
11476
11763
11799
11823
11833
11823
11861
11924
11993
11895
11786
11863
12352
12778
13034
13075
13067
12993
12844
12658
12449
12380
12351
12383
12021
11600
13838
18419
23645
22229
9951
8584
10243
11056
12065
12747
13110
13361
13546
13737
13881
13956
14101
14326
14520
14760
15071
15413
15892
16341
16835
17291
17691
17898
17965
17845
17560
17030
16143
15074
13881
12782
11996
11485
11125
11018
10978
11045
11132
11187
11209
11366
11448
11489
11490
11652
11752
11690
11624
11680
11926
12298
12600
12807
12815
12695
12550
12424
12329
12176
12204
12216
12203
11835
12404
15633
20033
23537
15907
7291
9380
10668
11514
12315
12865
13138
13354
13600
13695
13869
14007
14165
14352
14585
14786
15073
15446
15841
16310
16810
17222
17498
17624
17606
17433
17034
16310
15249
14122
12976
12142
11612
11256
11048
10952
10965
10991
11066
11153
11262
11352
11496
11504
11546
11561
11576
11598
11628
11835
12236
12522
12774
12787
12739
12587
12394
12287
12118
12089
12085
12051
11590
11915
15025
19577
23854
17341
7756
9467
10717
11521
12204
12808
13072
13301
13511
13679
13848
13950
14112
14329
14466
14687
15005
15346
15751
16245
16696
17048
17336
17448
17478
17283
16937
16356
15389
14319
13205
12317
11790
11516
11299
11219
11239
11284
11349
11505
11588
11686
11748
11777
11799
11867
11905
11917
11908
11909
11921
11953
12023
11921
13019
12851
12645
12461
12400
12384
12370
12200
11685
12779
16602
21462
23873
13493
7917
10217
11050
11873
12617
13059
13240
13483
13653
13783
14019
14145
14229
14406
14682
14967
15278
15621
16069
16513
16911
17273
17597
17625
17552
17322
16920
16109
15092
14038
13043
12217
11707
11365
11248
11203
11214
11282
11391
11478
11491
11553
11625
11696
11728
11790
11762
11859
11819
11788
11778
11868
11830
11786
11746
12045
12460
12733
12925
12866
12311
12006
11721
13602
17825
22789
22074
10274
8193
10320
11131
11941
12676
13057
13184
13358
13565
13696
13831
14034
14214
14409
14633
14939
15248
15665
15996
16493
16977
17283
17493
17519
17363
17156
16658
15733
14655
13628
12650
11884
11465
11199
11087
11059
11195
11222
11331
11402
11479
11512
11612
11659
11653
11704
11723
11758
11734
11727
11759
11735
11620
11668
11994
12376
12677
12874
12785
12729
12593
12505
12344
12214
12243
20259
8763
9033
10664
11534
12235
12827
13094
13232
13440
13598
13753
13867
14047
14255
14509
14736
14955
15199
15554
16020
16487
16926
17167
17292
17268
17149
16805
16221
15320
14273
13242
12456
11832
11464
11262
11201
11199
11276
11461
11555
11583
11646
11735
11783
11830
11853
11892
11907
11928
11939
11971
11871
11820
11895
12202
12542
12794
12882
12798
12719
12543
12449
12254
12218
12283
12247
11827
11655
14197
18795
24185
20982
13086
13310
13482
13686
13822
13976
14122
14251
14485
14764
15126
15465
15895
16343
16871
17237
17467
17491
17435
17190
16750
15912
14888
13764
12704
11965
11418
11188
11073
11036
11073
11209
11256
11289
11390
11495
11570
11634
11690
11721
11723
11747
11776
11697
11678
11630
11862
12211
12564
12814
12826
12707
12694
12514
12381
12147
12123
12162
12067
11576
11982
15447
20594
25343
17865
8210
9419
10297
11531
12364
12810
13011
13202
13364
14854
15178
15590
16061
16510
16973
17282
17443
17479
17344
17102
16537
15687
14548
13398
12383
11698
11263
11054
10957
10971
11012
11143
11250
11338
11401
11499
11536
11569
11669
11664
11633
11602
11725
11616
11576
11509
11752
12143
12503
12711
12691
12627
12540
12388
12195
12075
12042
12111
12028
11456
12008
15800
20892
24882
16021
7820
9452
10365
11592
12372
12817
13057
13296
13473
13673
13845
14014
14157
14352
14572
14858
15151
17399
17238
16960
16339
15449
14338
13281
12389
11773
11320
11117
11019
11011
11109
11184
11300
11380
11464
11521
11594
11653
11703
11723
11810
11794
11839
11788
11727
11620
11765
12190
12605
12850
12762
12680
12558
12399
12182
12061
12055
12151
12089
11654
11973
15237
19918
24230
17700
7752
9301
10310
11244
12104
12776
13024
13218
13367
13521
13632
13814
14013
14269
14479
14741
15030
15380
15766
16177
16622
16969
17189
17208
17102
16873
11473
11234
11140
11128
11211
11301
11426
11509
11598
11678
11745
11763
11764
11803
11792
11814
11876
11908
11777
11704
11803
12243
12616
12865
12795
12735
12697
12544
12406
12216
12180
12231
12195
11785
11696
14474
19145
24165
20116
8592
9117
10387
11284
12095
12797
13105
13260
13419
13585
13758
13895
14076
14261
14489
14694
15030
15375
15730
16150
16608
16948
17224
17299
17252
17009
16691
16017
15023
13964
12992
12167
11627
11342
11610
11692
11726
11777
11768
11829
11846
11891
11903
11920
11988
11977
11786
11694
11996
12531
12886
13017
12987
12896
12845
12635
12517
12346
12321
12321
12165
11553
12687
16705
22006
24674
13434
8302
10144
10905
11769
12554
12961
13168
13293
13455
13583
13792
13924
14120
14299
14549
14798
15137
15496
15893
16307
16700
17019
17134
17146
17027
16776
16290
15560
14551
13511
12532
11887
11424
11247
11143
11139
11242
11365
11454
11505
11786
11760
11797
11814
11817
11785
11861
11848
11822
11736
12109
12576
12866
12926
12928
12933
12813
12648
12429
12316
12297
12346
11988
11424
13244
17639
23280
23209
10745
8936
10391
11279
12016
12716
13017
13198
13368
13502
13642
13794
13963
14146
14331
14532
14851
15166
15571
15912
16346
16747
17059
17194
17174
17064
16803
16255
15448
14415
13416
12568
11884
11482
11228
11179
11194
11330
11357
11419
11510
11650
11655
11694
11710
11702
11817
11842
11882
11902
11814
11714
11968
12446
12838
13035
13086
13055
12996
12789
12622
12405
12361
12374
12272
11667
12198
15860
21004
25270
15746
8281
10105
10907
11818
12579
12968
13171
13328
13534
13660
13858
13973
14146
14358
14579
14823
15113
15493
15853
16279
16670
17022
17150
17217
17132
16923
16521
15870
14910
13900
12925
12147
11608
11318
11190
11184
11244
11309
11433
11527
11647
11689
11738
11726
11776
11807
11832
11796
11976
11978
12055
11979
11910
12022
12462
12920
13132
13128
13073
13013
12849
12726
12585
12504
12506
12432
11905
12291
15679
20655
25277
17487
8214
9969
10782
11745
12534
13064
13271
13409
13625
13732
13890
14046
14234
14422
14682
14920
15216
15583
15976
16332
16753
17071
17297
17369
17233
17047
16657
16041
15099
14103
13108
12310
11724
11406
11214
11174
11234
11318
11414
11487
11572
11642
11723
11763
11762
11801
11828
11799
11785
11939
11884
11870
12269
12657
12948
12969
12951
12898
12745
12608
12428
12362
12338
12350
11927
12080
15035
19679
24436
18867
8087
9429
10667
11493
12237
12831
13079
13281
13491
13624
13780
13898
14096
14261
14500
14730
15055
15341
15735
16120
16532
16892
17144
17198
17121
16896
16537
15894
14973
13925
12926
12149
11593
11328
11156
11089
11133
11208
11292
11428
11556
11648
11676
11749
11821
11775
11813
11843
11853
11840
11851
11862
11920
12716
12999
13021
13025
12935
12820
12626
12473
12355
12404
12357
11848
11775
14773
19606
25085
19621
8675
9812
10755
11617
12304
12871
13098
13292
13444
13590
13714
13886
14063
14264
14497
14732
15052
15326
15793
16204
16642
16976
17242
17294
17259
17020
16636
15968
15042
13983
12989
12184
11649
11318
11190
11148
11201
11272
11330
11466
11509
11593
11615
11681
11712
11747
11700
11727
11746
11751
11782
11806
11815
11849
11919
11827
12872
12764
12646
12463
12379
12304
12329
12075
11791
13861
18231
23087
22358
10136
8372
10425
11141
11986
12738
13106
13265
13452
13593
13762
13887
14063
14228
14464
14672
14977
15273
15653
16054
16449
16848
17100
17253
17212
17066
16749
16178
15264
14255
13222
12380
11795
11428
11225
11131
11107
11146
11233
11333
11482
11585
11676
11739
11808
11840
11931
11929
11930
11907
11962
11939
11974
11982
11979
11918
11794
11922
12372
12788
12985
12401
12368
12060
11692
13869
18299
23643
22340
9895
8806
10475
11317
12079
12726
13036
13230
13409
13562
13687
13857
14027
14218
14391
14631
14905
15288
15625
16056
16464
16882
17126
17264
17226
17084
16731
16119
15210
14155
13170
12311
11678
11333
11191
11098
11165
11194
11295
11406
11511
11606
11670
11697
11758
11808
11855
11863
11873
11888
11900
11918
11916
11964
11938
12068
12057
11969
11816
12116
12608
12953
13086
13035
13002
11867
11784
14754
19616
25123
19826
8727
9778
10773
11678
12353
12934
13138
13320
13453
13631
13749
13926
14105
14333
14576
14794
15071
15398
15843
16264
16705
17057
17335
17387
17375
17164
16826
16166
15199
14078
13053
12239
11655
11354
11163
11095
11069
11182
11291
11433
11526
11619
11651
11744
11780
11809
11853
11881
11851
11878
11866
11870
11891
11913
11957
11982
12035
12049
12020
11866
12118
12564
12931
13100
13116
13106
13051
11616
14101
18776
24509
22064
9474
9232
10493
11394
12185
12819
13080
13318
13444
13605
13786
13970
14087
14317
14514
14762
15026
15380
15759
16207
16624
16997
17287
17437
17377
17225
16937
16358
15458
14342
13275
12363
11768
11390
11185
11056
11072
11128
11223
11342
11428
11511
11551
11639
11647
11687
11697
11769
11785
11825
11811
11833
11809
11814
11854
11870
11905
11921
11959
12082
12058
11928
11991
12395
12820
13048
13138
13154
13135
11652
12733
16788
22176
25211
14015
8434
10256
10977
11916
12679
13048
13229
13388
13574
13750
13917
14057
14294
14434
14678
14946
15264
15604
16015
16428
16877
17244
17480
17555
17427
17149
16702
15958
14903
13882
12856
12113
11562
11231
11074
11049
11056
11156
11297
11404
11507
11573
11667
11679
11727
11712
11735
11769
11761
11771
11797
11801
11818
11817
11879
11901
11919
11940
12034
11999
11880
11935
12332
12745
13010
13104
13052
12324
11765
13069
17205
22138
24284
13313
7890
10232
10943
11861
12622
13091
13315
13474
13673
13807
13955
14108
14322
14473
14747
15011
15296
15635
16064
16518
16927
17316
17518
17578
17477
17209
16700
15947
14900
13802
12775
12042
11565
11311
11139
11107
11133
11191
11272
11403
11483
11594
11670
11708
11773
11812
11864
11876
11881
11854
11886
11880
11905
11894
11891
11959
11980
11920
11864
12092
12554
12864
13029
12989
12954
12851
12132
14989
19507
24242
19331
8220
9180
10660
11458
12261
12903
13209
13398
13577
13743
13874
14012
14130
14337
14547
14816
15109
15483
15841
16294
16764
17227
17476
17568
17488
17328
16976
16254
15258
14165
13108
12224
11657
11310
11128
11065
11035
11063
11184
11257
11387
11487
11600
11650
11763
11823
11877
11901
11888
11917
11885
11883
11883
11967
11951
11986
11939
12020
11973
11887
11939
12397
12792
13038
13054
13017
13041
12813
12700
17227
22578
24409
12552
8385
10318
11117
11924
12625
13016
13189
13388
13542
13683
13862
14037
14234
14412
14653
14907
15233
15585
16039
16458
16937
17293
17512
17528
17417
17167
16635
15779
14686
13594
12599
11884
11393
11148
11078
11049
11053
11154
11243
11374
11454
11545
11565
11688
11718
11751
11815
11837
11845
11836
11825
11864
11906
11923
11982
11928
11972
12019
12108
12146
12084
11975
12036
12447
12852
13084
13121
13161
13106
11737
12521
16457
21867
25600
15333
8583
10314
11082
11915
12673
13077
13317
13490
13670
13803
13947
14083
14283
14471
14690
14961
15258
15615
16003
16466
16906
17333
17562
17694
17598
17365
16946
16191
15118
14002
12955
12107
11577
11272
11143
11094
11088
11151
11286
11382
11487
11521
11640
11734
11821
11802
11851
11841
11834
11851
11840
11865
11913
11908
11953
11988
12004
12082
12098
12145
12213
12214
12132
12073
12453
12879
13117
12602
12603
12494
11831
12182
15801
21121
25964
18063
8637
10048
10874
11814
12618
13070
13300
13421
13624
13780
13897
14035
14205
14407
14625
14877
15178
15555
15926
16427
16862
17269
17528
17680
17631
17479
17034
16332
15308
14186
13084
12176
11612
11298
11131
11045
11041
11087
11190
11264
11381
11454
11595
11662
11717
11746
11792
11792
11810
11837
11833
11860
11868
11863
11871
11916
11938
12009
12012
12072
12097
12164
12149
12229
12195
13283
13169
12991
12869
12698
12637
12659
12491
11786
12503
16311
21654
25713
16651
8389
10151
10815
11836
12603
13110
13294
13505
13664
13841
14004
14163
14341
14487
14711
14960
15287
15623
16025
16456
16964
17395
17669
17784
17797
17590
17148
16421
15426
14305
13255
12294
11694
11387
11192
11124
11118
11159
11211
11350
11406
11511
11601
11668
11737
11854
11930
11892
11861
11858
11879
11903
11902
11868
11908
11906
11971
12017
12031
12487
12899
13107
13221
13176
13126
12995
12869
12687
12568
12533
12565
12185
11794
14076
18719
23952
22839
10521
8771
10679
11251
12062
12777
13213
13404
13543
13731
13825
13976
14109
14287
14463
14721
14985
15326
15647
16085
16521
16969
17358
17596
17638
17536
17231
16658
15727
14606
13499
12541
11845
11350
11168
11055
11029
10982
11023
11148
11257
11305
11458
11591
11702
11782
11826
11855
11860
11884
11877
11901
11907
11947
11949
12098
11991
11959
12283
12688
12960
13116
13064
13061
12959
12839
12685
12550
12542
12548
12299
11689
13171
17387
22740
24324
12520
8487
10462
11202
12022
12710
13120
13298
13441
13585
13750
13923
14089
14271
14441
14676
14902
15212
15515
15958
16400
16866
17244
17496
17553
17492
17273
16790
15928
14825
13728
12710
11912
11412
11210
11105
11076
11031
11126
11178
11276
11360
11510
11578
11642
11731
11758
11805
11906
11981
11959
11966
11976
12222
12191
12227
12235
12365
12292
12212
12267
12726
13108
13293
13315
13354
13342
13236
13068
12865
12746
12703
12644
12013
11733
14747
19834
25726
21517
9572
9946
10855
11634
12295
12841
13057
13274
13478
13584
13747
13856
14030
14189
14346
14556
14871
15133
15539
15885
16231
16746
17210
17504
17556
17430
16980
16394
15492
14401
13299
12360
11590
11168
10947
10859
10741
10786
10910
11039
11102
11219
11290
11396
11499
11594
11683
11800
11824
11815
11936
11945
12041
12011
12129
12198
12320
12164
12118
12455
12828
13138
13299
13381
13331
13235
12990
12877
12668
12721
12698
12389
11593
13349
18033
23978
25346
13008
8962
10272
10956
11726
12336
12519
12678
12832
13054
13164
13226
13189
13360
13489
13755
14029
14383
14710
15129
15622
16210
16692
16880
17018
16913
16746
16245
15458
14279
13181
11988
11195
10576
10293
10135
10109
10116
10234
10327
10421
10588
10645
11366
11431
11584
11587
11730
11804
11931
11901
12079
12240
12344
12225
12381
12443
12263
11927
12124
12543
13214
13784
13946
13812
13452
13342
13049
12912
12883
13066
13098
12686
12391
15331
20415
25775
21762
9535
10016
11226
12185
12830
13420
13728
13999
13944
14110
14222
14478
14462
14679
14982
15300
15516
15789
16374
16762
17106
17454
17748
17906
18180
18057
17905
17480
16493
15271
14113
12917
12287
11974
11210
11250
11533
11530
11481
11963
12048
12055
11950
12016
11909
11877
11925
12028
12119
12309
12153
12145
12181
12150
11879
12193
12620
13045
13292
13243
13183
13127
12947
12555
12574
12625
12563
12174
11924
12637
16281
21057
24957
16228
7527
9863
10844
11559
12353
13115
13337
13552
13589
13769
13908
14068
14142
14373
14636
14891
15136
15475
15986
16403
16789
17302
17756
17786
17735
17564
17167
16337
15370
14231
13174
12150
11548
11136
11049
10953
10907
10945
11668
11767
11764
11743
11768
11778
11830
11841
11824
11841
11797
11979
11907
11932
11628
11888
12434
12872
13014
12976
12961
13020
12957
12596
12366
12347
12363
12318
11772
12232
15999
21330
25921
16690
8138
10000
10853
11735
12583
13023
13279
13457
13606
13786
13799
13990
14156
14371
14562
14890
15149
15601
15955
16358
16703
17167
17515
17834
17924
17562
17180
16381
15328
14195
13259
12307
11733
11245
11208
11131
11138
11110
11308
11982
11977
11936
11870
12044
12001
12001
12004
12052
11885
11810
12155
12778
12992
13123
13168
13149
12962
12770
12574
12348
12432
12431
12267
11533
13375
18003
23780
24649
11667
8669
10234
11085
12045
12785
13040
13208
13471
13690
13788
13985
14050
14341
14441
14674
14930
15249
15622
15981
16455
16987
17376
17754
17825
17598
17360
16887
16097
14905
13829
12688
11942
11378
11096
10933
10923
10980
11106
11149
11239
11390
11482
11532
11516
11770
11782
11909
11810
11878
11920
11873
11777
11836
12267
12804
12901
12916
12937
13008
12815
12586
12484
12338
12414
12411
11982
11499
13952
18754
24605
23723
10399
8697
10371
11169
12027
12655
12982
13178
13459
13617
13729
13866
14041
14293
14491
14719
14917
15249
15587
16138
16530
17126
17507
17776
17710
17617
17390
16952
15924
14693
13663
12616
11839
11250
11108
10925
10992
11034
11169
11164
11251
11314
11377
11508
11587
11564
11664
11665
11724
11725
11801
11817
11663
11765
12177
12655
12847
12956
12867
12868
12746
12622
12535
12586
12465
12339
11874
11759
14825
19738
25038
20493
8400
9079
10482
11238
12111
12737
13065
13209
13384
13525
13698
13863
14001
14162
14317
14664
14975
15298
15637
16095
16559
17058
17276
17509
17475
17377
17040
16502
15532
14460
13378
12423
11764
11253
11106
11092
11115
11092
11203
11099
11212
11268
11438
11527
11543
11585
11778
11797
11862
11857
11954
11926
11798
11891
12397
12849
13101
13188
13075
13061
12835
12724
12450
12553
12496
12508
11933
11775
14688
19725
25678
21319
8905
9605
10706
11495
12330
12894
13103
13252
13524
13611
13854
13878
14122
14302
14557
14767
15038
15321
15706
16192
16620
17180
17447
17672
17666
17553
17063
16642
15632
14537
13451
12467
11748
11404
11152
10981
10974
11022
11037
11222
11436
11452
11526
11509
11690
11650
11673
11664
11780
11820
11927
11873
11783
11971
12397
12708
12967
12968
12935
12863
12585
12620
12355
12344
12404
12249
11620
12193
15924
21464
26017
17989
7875
9547
10461
11723
12538
12952
13107
13230
13478
13588
13773
13864
14077
14250
14583
14786
15091
15449
15907
16309
16808
17291
17601
17799
17688
17562
17206
16547
15456
14336
13139
12365
11695
11308
11092
11066
11037
11133
11166
11335
11442
11360
11387
11532
11722
11739
11762
11718
11736
11700
12324
11963
12090
15128
20266
25225
20784
8200
8684
9963
10872
11967
12764
13052
13196
13443
13729
13776
13975
14077
14320
14611
14834
15101
15416
15849
16228
16746
17121
17484
17632
17681
17501
17178
16497
15555
14409
13275
12349
11709
11278
11049
10963
10963
11095
11099
11174
11258
11429
11447
11611
11643
11723
11689
11669
11711
11830
11829
11828
11822
11808
11698
11621
11683
11946
12447
12682
12821
12771
12767
12662
12553
12263
12164
24597
20921
8628
8712
10156
10911
11918
12654
13087
13166
13371
13527
13732
13852
14051
14146
14408
14747
15098
15371
15749
16075
16550
17017
17382
17589
17528
17401
16951
16408
15459
14403
13232
12328
11688
11361
11066
10994
10957
11107
11183
11222
11310
11430
11552
11563
11652
11777
11849
11743
11827
11877
11921
11841
11814
11854
11822
11796
11819
12147
12565
12884
12953
12939
12873
12856
12658
12516
12272
12344
12311
12019
11435
10580
11433
12352
12826
12886
13103
13412
13555
13655
13800
13955
14124
14316
14547
14752
15286
15721
16293
16660
17088
17309
17448
17442
17181
16852
16432
15473
14238
13103
12157
11594
11268
11168
11099
11115
11176
11362
11321
11471
11620
11752
11692
11684
11759
11830
11821
11795
11868
11799
11796
11820
11931
11946
11968
11805
11906
12316
12764
12983
12989
12968
13035
12895
12711
12421
12270
12299
12322
11803
11431
14344
19285
24944
11672
11729
11616
11733
11800
11892
12435
13613
14199
14492
14708
14885
15330
15825
16206
16416
16765
16806
16767
16540
16297
15693
14939
13824
12758
11679
10842
10254
9926
9825
9733
9867
9986
10109
10207
10356
10374
10588
10608
10657
10607
10641
10667
10737
10672
10730
10677
10650
10736
10756
10840
10795
10807
10728
11075
11563
12000
12150
12258
12228
12325
12173
12082
11927
11991
12039
11904
11234
11787
15691
21003
25865
17012
7851
14023
14406
14740
15237
15513
15828
16147
16526
16970
17513
17972
18452
18778
18786
18530
18283
18205
18010
17724
17209
16342
14676
13383
12351
11754
11341
10960
10703
10666
10709
10888
11106
11292
11438
11573
11748
11872
11986
12088
12259
12302
12359
12343
12433
12428
12526
12534
12609
12601
12734
12787
12724
12599
12770
13308
13682
13906
13849
13860
13764
13635
13381
13211
13120
13202
12902
12292
12982
16918
22144
26019
18043
8360
10305
14296
14433
14429
14584
14576
14627
14606
14875
15098
15483
15836
16335
16756
17188
17309
17292
17353
17183
16687
15797
14744
13623
12572
11736
11326
11060
11022
10965
11060
10975
11108
11139
11280
11488
11586
11577
11620
11693
11746
11839
11734
11635
11591
11831
11720
11834
11930
12050
11978
11895
11711
12116
12611
12878
12961
13048
13102
12903
12717
12480
12514
12414
12516
12091
11564
13645
18549
24069
23958
10802
8466
10192
10917
13756
13837
14057
14257
14523
14715
15101
15409
15798
16128
16704
17182
17449
17784
17754
17404
16930
16224
15215
14083
12978
12080
11452
11093
10948
10943
10980
11006
11124
11228
11299
11398
11448
11537
11585
11676
11714
11731
11799
11795
11865
11887
11943
11936
11951
11971
12027
12066
12054
12069
12004
12227
12685
13025
13142
13189
13165
13099
12880
12706
12579
12513
12559
12301
11690
13328
17986
23636
25035
12625
8544
10206
10966
14074
14257
14428
14566
14747
15104
15385
15725
16151
16637
17119
17543
17842
18040
18077
17928
17562
16934
15953
14771
13641
12681
11991
11476
11277
11154
11128
11153
11222
11305
11415
11558
11609
11716
11833
11871
11832
11846
11860
11852
11805
11816
11835
11841
11860
11914
11926
11998
12074
12045
11984
12077
12524
12922
13144
13152
13141
13044
12873
12707
12541
12472
12492
12478
12040
11981
14920
19903
25213
21778
9016
8715
10099
11024
13859
14008
14205
14433
14661
14956
15252
15635
16026
16587
17098
17547
17793
17892
17834
17658
17268
16545
15504
14345
13235
12267
11624
11241
11024
10943
10954
10975
11113
11257
11329
11362
11441
11549
11631
11650
11678
11733
11761
11743
11732
11778
11798
11835
11846
11933
11980
12162
12056
11923
11878
12310
12794
13006
13015
13023
12997
12821
12646
12480
12458
12416
12508
12145
11908
14066
18635
23684
22984
10848
7925
9969
10691
14024
14222
14304
14481
14720
14952
15231
15489
15951
16404
16996
17491
17821
18068
18038
17808
17538
16919
15936
14756
13523
12505
11842
11401
11174
11061
11015
11106
11178
11249
11272
11389
11421
11522
11608
11737
11777
11752
11767
11757
11755
11872
11895
11956
11898
11813
11801
12093
12534
12824
12937
12878
12843
12796
12577
12384
12297
12251
12267
12230
11813
12483
16026
20736
24305
17055
7594
9064
10099
10879
12062
12693
12995
14441
14705
15001
15335
15690
16192
16627
17190
17604
17883
17949
17861
17548
16953
16001
14863
13625
12602
11873
11358
11136
11073
10986
10951
11020
11050
11125
11214
11244
11354
11535
11640
11694
11709
11803
11828
11820
11794
11807
11719
11786
11753
11730
12101
12516
12716
12754
12770
12792
12625
12458
12299
12214
12173
12125
11978
11397
13161
17775
23293
24193
12300
7802
9545
10041
11350
12277
12788
13070
13264
13490
13619
13754
13933
16269
16741
17221
17539
17730
17694
17555
17179
16549
15457
14194
13082
12120
11495
11103
10981
10890
10879
10865
10968
11065
11185
11240
11338
11390
11497
11571
11637
11700
11719
11800
11799
11808
11852
11807
11666
11609
11834
12246
12568
12766
12756
12758
12708
12533
12403
12215
12187
12221
12167
11576
11320
14211
19333
24987
21416
8928
8551
9647
10662
11841
12647
12991
13237
13425
13541
13659
13779
13997
14174
14418
14615
14948
17687
17684
17470
17067
16192
15110
13972
12924
12072
11546
11239
11112
11107
11127
11200
11263
11386
11510
11608
11620
11707
11751
11832
11842
11849
11862
11889
11892
11905
11901
11939
11886
11759
11901
12349
12764
12922
12964
12940
12931
12739
12642
12429
12367
12438
12470
11913
11568
14159
18978
24473
21769
9382
8640
10147
10816
11852
12666
13096
13226
13349
13517
13753
13912
14049
14177
14356
14634
14955
15365
15685
16143
16694
17243
15424
14248
13168
12337
11746
11476
11361
11300
11265
11410
11568
11668
11713
11797
11847
11874
11856
11871
11987
11981
12007
11929
11899
11834
11948
12082
12078
12024
11915
12137
12640
12905
13033
13010
12936
12896
12686
12521
12329
12307
12331
12251
11596
12170
16133
21607
25876
17321
8015
9474
10048
11098
12109
12751
13049
13293
13504
13619
13786
13884
14089
14314
14539
14768
15057
15429
15919
16366
16869
17365
17680
17833
17814
11749
11275
11046
11004
11034
10936
10989
11054
11066
11218
11356
11410
11490
11507
11566
11570
11570
11614
11596
11609
11613
11564
11609
11674
11686
11639
11507
11654
12078
12523
12755
12713
12804
12782
12543
12392
12189
12134
12105
12211
11966
11421
13399
18178
23969
24040
11356
7711
9270
10143
11465
12325
12770
13086
13272
13406
13529
13750
13981
14069
14267
14580
14832
15332
15601
16194
16702
17354
17771
18068
18124
18089
17821
17182
11160
11078
11025
11079
11203
11305
11382
11418
11570
11538
11680
11727
11681
11760
11783
11808
11872
11822
11863
11933
11957
11944
11987
12014
12123
12090
12135
12204
12178
12110
12190
12640
12968
13183
13221
13176
13184
13025
12858
12481
12192
12486
12760
11999
11668
14543
19467
25219
23328
10143
8348
9726
10842
12007
12788
13265
13511
13679
13769
13928
14048
14187
14341
14592
14767
14991
15350
15840
16282
16773
17292
17716
18004
13483
12453
11825
11391
11179
11071
11083
11147
11150
11319
11363
11384
11520
11672
11681
11774
11790
11831
11815
11852
11931
12005
11964
11951
11932
11935
11935
11954
12037
12064
12082
12130
12259
12177
12188
12191
12500
12938
13289
13251
13234
13180
13132
12966
12813
12728
12632
12531
12330
11827
13290
17541
23074
24709
13078
8148
9776
10718
11930
12688
13133
13348
13534
13669
13822
13968
14110
14309
14451
14596
14852
15183
15568
15944
17471
16933
16008
14869
13829
12807
11938
11424
11202
11104
11060
11131
11228
11352
11433
11565
11635
11734
11849
11788
11751
11803
11863
11897
11876
11922
11975
11982
11977
11970
12096
12137
12099
12012
12091
12137
12225
12219
12154
12066
12403
12728
13021
13089
13121
13115
13111
12988
12812
12635
12541
12573
12439
11994
12367
15663
20336
24859
18089
8080
9458
10523
11385
12313
12991
13274
13480
13612
13746
13846
14008
14195
14361
16795
17243
17540
17629
17553
17432
17053
16358
15355
14237
13150
12283
11711
11386
11214
11129
11161
11199
11298
11339
11445
11554
11636
11669
11750
11814
11879
11869
11873
11868
11853
11913
11912
11949
11894
11916
12028
12035
11914
11865
12187
12673
12913
13018
13009
13014
12880
12703
12506
12382
12376
12392
12202
11693
13091
16988
21863
23391
12499
7475
9927
10738
11640
12466
13046
13273
13478
13624
13750
13907
13988
14221
14408
17089
17433
17668
17655
17536
17194
16617
15680
14630
13528
12609
11921
11520
11317
11185
11174
11206
11254
11332
11478
11546
11654
11678
11788
11810
11886
11886
11915
11936
11971
11971
11997
11999
12021
12036
12108
12068
11946
11923
12369
12852
13068
13176
13104
13091
12909
12746
12572
12489
12493
12495
12143
11703
13847
18214
23764
22175
9780
8528
10228
11141
12087
12883
13215
13367
13583
13673
13820
13957
14092
14308
14475
14681
14995
17669
17660
17528
17163
16501
15504
14418
13311
12452
11833
11478
11260
11201
11131
11197
11278
11345
11436
11507
11565
11590
11684
11695
11738
11721
11756
11734
11762
11736
11779
11782
11881
11906
11974
11917
11759
11984
12427
12819
13010
13006
12991
12929
12720
12570
12361
12366
12381
12332
11826
12201
15542
20415
25071
17094
7657
9406
10398
11475
12434
12940
13211
13389
13569
13694
13849
13975
14155
14323
14580
14839
15087
15427
17561
17355
16904
16139
15055
13946
12906
12128
11579
11295
11111
11094
11173
11272
11328
11446
11478
11509
11540
11577
11643
11692
11700
11664
11712
11733
11754
11768
11815
11840
11866
11863
11991
11955
11860
11809
12252
12757
13044
13094
13048
12972
12738
12698
12597
12556
12457
12365
12028
11711
13689
17917
23407
23278
10584
8332
10110
11018
12014
12769
13109
13224
13443
13632
13813
13908
14094
14254
14375
14606
14952
15309
15680
16089
17299
16675
15668
14588
13480
12525
11740
11322
11144
11085
11124
11192
11302
11392
11381
11461
11485
11564
11565
11557
11627
11704
11722
11677
11701
11728
11747
11717
11765
11784
11844
11888
11851
11720
11945
12388
12783
13000
13015
12946
12874
12710
12512
12334
12278
12348
12296
11864
12119
15306
20158
25298
18592
7696
9075
10237
11432
12403
12973
13255
13423
13569
13722
13882
14064
14183
14418
14632
14875
15155
15539
15939
16412
16912
16202
15179
14042
12983
12186
11644
11267
11096
11050
11143
11243
11294
11344
11454
11526
11624
11624
11655
11703
11698
11643
11650
11671
11724
11721
11731
11773
11793
11899
11816
11743
11771
12255
12680
12929
12961
12889
12812
12714
12466
12311
12244
12298
12338
12061
11969
14463
18984
24127
20713
8485
8598
10304
11187
12141
12875
13159
13375
13527
13704
13850
13965
14188
14366
14593
14797
15081
15397
15785
16175
16644
17052
15207
14085
13086
12249
11671
11307
11139
11066
11089
11184
11294
11395
11479
11579
11697
11732
11655
11779
11802
11895
11867
11905
11913
11916
11927
12068
11995
11935
11999
12366
12774
13050
13134
13091
13057
12874
12760
12517
12468
12481
12509
12191
11986
14227
18633
24034
22265
9628
8829
10489
11479
12363
13049
13375
13578
13771
13923
14094
14198
14375
14576
14829
15071
15299
15613
16047
16469
16899
17373
17677
17858
17815
17667
17388
11760
11576
11554
11570
11668
11756
11916
11995
12089
12140
12229
12302
12322
12346
12355
12379
12391
12419
12443
12506
12517
12603
12515
12445
12573
13070
13488
13760
13726
13700
13633
13462
13297
13110
13088
13097
13087
12704
13182
16495
21390
25844
18298
8385
10185
11342
12405
13292
13857
14095
14256
14424
14592
14773
14901
15081
15261
15488
15702
16034
16379
16777
17181
17686
18079
18321
18391
18325
18199
17848
17218
16255
15154
12022
12122
12191
12316
12411
12476
12505
12544
12561
12647
12639
12653
12682
12689
12677
12655
12664
12670
12769
12697
12610
12695
13157
13541
13784
13754
13754
13684
13516
13243
13083
12986
12984
12916
12494
12950
16259
21179
25768
18420
8170
9844
10991
12063
12918
13458
13630
13813
13991
14163
14298
14465
14603
14814
15060
15290
15601
15882
16282
16737
17215
17597
17865
17916
17880
17675
17325
16641
15680
14581
13519
12623
11969
11636
11716
11780
11813
11925
11915
11931
11920
11922
11872
11892
11899
11956
11973
11959
11963
11973
11927
11855
12100
12573
12895
13019
13058
13024
12878
12652
12491
12344
12373
12400
12241
11828
13195
17318
22585
24840
13260
7658
9817
10632
11652
12509
12895
13131
13311
13474
13615
13796
13953
14169
14308
14550
14810
15149
15521
15901
16374
16773
17148
17361
17408
17278
17111
16622
15870
14812
13723
12669
11904
11346
11026
10855
10806
11370
11448
11518
11527
11542
11525
11529
11509
11539
11527
11565
11659
11622
11517
11519
11886
12323
12622
12686
12665
12623
12508
12299
12119
12036
12055
12055
11760
11694
14386
19103
24203
20943
8337
8278
9974
10878
11722
12404
12699
12891
13104
13352
13481
13603
13770
13972
14184
14447
14690
15059
15396
15817
16267
16741
17047
17157
17140
16962
16672
16092
15182
14072
13010
12049
11428
11006
10824
10694
10710
10770
10861
10957
11075
11522
11541
11574
11607
11578
11483
11531
11953
12419
12663
12712
12655
12634
12514
12340
12163
12063
12085
12049
11737
11788
14648
19336
24664
20102
8019
8611
10089
11099
11985
12636
12853
13030
13199
13397
13556
13741
13860
14059
14247
14509
14770
15151
15552
15987
16444
16864
17178
17353
17336
17186
16848
16232
15313
14196
13133
12228
11615
11183
11011
10912
10914
10946
11068
11160
11293
11384
11476
11550
11575
11612
11636
11680
11700
11831
11816
11731
11716
12148
12572
12870
12945
12966
12895
12746
12568
12388
12272
12282
12289
11897
11850
14565
19290
24819
20953
8475
8829
10242
11287
12135
12793
12977
13235
13411
13586
13752
13903
14062
14222
14439
14656
14971
15302
15704
16131
16639
17054
17419
17550
17573
17428
17122
16568
15649
14571
13467
12489
11794
11368
11132
11019
10963
11069
11135
11226
11301
11416
11498
11579
