11908
12961
13121
13116
13078
12893
12762
12588
12393
12193
12270
12371
11870
12348
15575
20954
25938
19095
7714
8980
10167
11627
12493
12926
13195
13446
13493
13509
13717
14128
14311
14332
14491
14805
15193
15443
15943
16459
16948
17107
17243
17213
17194
16966
16672
15865
14967
13953
13088
12222
11580
11363
11239
11188
11121
11218
11313
11524
11593
11675
11737
11849
11799
11837
11823
11859
11863
11871
11858
11894
11821
11420
11569
12084
12730
13260
13380
13188
13131
12766
12444
12447
12410
12241
12549
12075
12082
14516
19248
25162
22822
8903
7735
9717
11333
12437
12978
13243
13341
13590
13649
13824
13705
13940
14486
14786
14747
15029
15485
15927
16234
16671
16953
17196
17400
17214
17077
16831
16159
15190
14218
13288
12495
11646
11345
11164
11059
10957
11054
11245
11333
11422
11517
11658
11572
11661
11835
11835
11718
11745
11746
11837
11735
11886
11836
11779
11787
12016
12552
12916
13052
13075
12936
12897
12577
12297
12248
12314
12378
12211
12071
13511
17853
23701
24783
11610
7035
9334
10908
12048
12812
13113
13326
13503
13703
13832
13964
14143
14380
14639
14945
15225
15494
15833
16295
16805
16999
17242
17451
17551
17356
16946
16376
15771
14842
13643
12813
12048
11612
11196
11047
10941
11156
11346
11449
11386
11426
11647
11918
11865
11702
11685
11692
11805
11868
11824
11814
11897
11748
11758
11843
12524
12878
13149
12969
12933
12677
12469
12243
12151
12147
12267
12105
11845
13099
17046
22436
25434
14312
6911
9006
10271
11651
12358
12802
13163
13535
13528
13568
13673
13955
14202
14407
14801
15037
15257
15667
16061
16435
16871
17238
17517
17372
17241
16983
16507
15681
14721
13649
12605
11769
11396
11217
11117
11014
11040
11304
11320
11388
11399
11554
11505
11608
11718
11918
11837
11827
11759
11893
11774
11706
11724
11898
12101
12739
12968
12843
12735
12615
12386
12246
12167
12127
12178
11929
11778
13341
17620
22995
24563
12349
7281
9505
10554
11774
12673
13020
13126
13305
13577
13774
14038
14097
14248
14522
14701
15032
15361
15906
16139
16430
16748
17332
17462
17399
17197
16908
16406
15481
14527
13441
12524
11743
11422
11163
11108
11076
11096
11150
11326
11321
11558
11678
11856
11787
11879
11913
11915
11827
11770
11864
11905
12003
12021
12438
12779
13069
13032
12875
12708
12619
12392
12150
12163
12376
12220
11990
12772
16320
21593
25758
16468
7277
8994
10087
11719
12576
13004
13160
13426
13470
13768
13803
13914
13931
14338
14638
15009
15143
15464
15945
16621
17027
17274
17326
17354
17306
16880
16399
15655
14576
13466
12686
11983
11478
11231
11198
11182
11161
11178
11344
11358
11562
11719
11820
11873
11661
11832
11906
11936
11781
11807
11856
11924
11753
11866
12286
12721
12874
12939
12879
12901
12550
12379
12064
12109
12409
12393
11995
12495
16140
21594
25952
17307
7446
8790
10146
11559
12549
12984
13134
13296
13563
13815
13871
13987
14100
14390
14662
14974
15241
15547
15972
16585
16892
17327
17521
17502
17293
17196
16663
15826
14838
13768
12722
11967
11536
11231
11284
11082
11224
11390
11512
11629
11674
11695
11799
11802
11808
11775
11865
11833
11771
11762
12033
12101
11846
11945
11900
12226
12738
13110
12889
12950
12908
12637
12491
12253
12163
12367
12163
11919
13214
17446
23296
25284
12954
7123
9247
10643
11868
12613
13068
13180
13446
13605
13728
13828
14011
14288
14582
14617
14837
15242
15737
16174
16604
17097
17325
17501
17329
17217
16831
16452
15560
14493
13429
12432
11680
11581
11318
11209
11128
11166
11226
11325
11478
11606
11651
11691
11706
11523
11758
11712
11744
11634
11852
11713
11785
11857
11813
11699
11953
12411
12809
13130
13023
12905
12650
12659
12541
12321
12310
12451
12231
12120
13978
18549
24417
24402
10767
7415
9448
10997
12094
12779
13038
13185
13528
13686
13887
13968
14223
14336
14469
14768
15233
15345
15799
16179
16717
17112
17346
17519
17433
17106
16821
16262
15565
14502
13192
12874
12095
11508
10983
10864
10864
10992
11246
11463
11496
11623
11598
11602
11613
11618
11669
11636
11590
11808
11955
11877
12037
11829
11717
11749
12259
12604
12923
12908
12932
12787
12503
12319
12297
12196
12213
12043
11942
13451
17418
22958
24857
12975
7196
9408
10433
11654
12465
13017
13244
13423
13458
13733
13839
14084
14201
14436
14670
14857
15270
15761
16215
16653
17081
17274
17228
17416
17469
17093
16520
15489
14357
13072
12310
11804
11500
11093
11025
11134
11078
11083
11230
11542
11514
11641
11677
11853
11700
11883
12043
12018
11593
11824
12387
12447
12189
12011
12240
12550
12950
13096
13011
12794
12719
12293
12320
12264
12301
12249
11986
12017
14709
19258
25147
22164
8826
8186
9784
11151
12133
12703
13136
13374
13523
13611
13710
13928
14189
14298
14503
14809
15167
15467
15807
16226
16721
17240
17502
17525
17333
17119
16759
16165
15199
14181
13029
12113
11542
11327
11355
11259
11273
11225
11138
11422
11524
11525
11679
11776
11699
11799
11819
11782
11853
11792
11846
11640
11971
12051
11878
11944
12482
12876
13040
12983
12709
12915
12818
12426
12326
12315
12308
12054
11828
14277
19364
25242
23329
9551
8009
9738
11285
12272
12776
13031
13376
13612
13692
13794
13960
14199
14419
14561
14712
14971
15361
15784
16236
16752
17122
17309
17386
17393
17238
16910
16237
15402
14288
13271
12425
11678
11284
11273
11109
10967
11182
11350
11450
11505
11620
11643
11727
11870
11818
11787
11811
11833
12021
11911
11869
11916
11870
11769
11840
12265
12735
12951
12912
12945
13072
12888
12529
12280
12309
12465
12345
11931
13191
17180
22998
25580
13880
7157
9161
10708
11987
12733
12961
13094
13514
13694
13658
13827
13992
14147
14420
14637
14916
15166
15652
16128
16562
16878
17226
17389
17427
17201
16747
16424
15765
14798
13640
12657
11928
11450
11250
11131
11036
11148
11301
11362
11419
11606
11598
11623
11752
11896
11820
11820
11768
11777
11790
11779
11856
11829
11784
11721
11909
12350
12719
12948
12901
12824
12835
12704
12398
12250
12342
12379
12058
11951
14239
18930
24600
23413
9681
7793
9765
10998
12008
12701
13025
13279
13399
13506
13550
13904
14162
14226
14443
14789
15082
15443
15780
16214
16778
17139
17330
17470
17395
17116
16837
16330
15461
14357
13324
12364
11548
11149
10966
10986
11046
11119
11114
11294
11428
11524
11622
11676
11731
11701
11637
11811
11939
11960
11954
12060
11923
11821
11793
11998
12518
12836
12979
13019
12855
12657
12701
12482
12174
12035
12228
12020
12208
15129
20108
25481
20307
8136
8837
10027
11301
12414
13116
13268
13382
13781
13897
13776
13947
14374
14381
14580
14787
15208
15572
15898
16385
16917
17198
17268
17494
17484
17241
16763
16122
15145
13941
12864
12227
11654
11389
11113
11021
11187
11324
11281
11484
11608
11614
11590
11778
11767
11829
11919
11871
11912
12082
11936
11718
11698
11984
12542
12876
12985
12871
12846
12835
12633
12349
12103
12012
12331
12190
12011
13795
18309
24160
24278
11280
7783
9664
10765
12046
12712
12960
13250
13389
13481
13534
13569
13927
14353
14424
14664
14983
15466
15941
16213
16440
16914
17185
17264
17369
17266
16859
16247
15478
14496
13451
12532
11770
11338
11303
11161
11065
11228
11320
11346
11498
11401
11542
11677
11832
11761
11843
11828
11957
11975
11892
11868
11986
12246
12669
12991
13086
12845
12757
12601
12397
12240
12138
12104
12153
11810
12673
16194
21579
25401
16659
7227
8668
10199
11496
12183
12791
12878
13121
13534
13635
13871
13946
13960
14221
14536
14656
15144
15665
15921
16444
16830
17082
17212
17204
17041
16800
16399
15790
14792
13686
12696
11989
11521
11224
11038
11051
11189
11253
11410
11412
11235
11545
11734
11788
11778
11880
11703
11789
11885
11842
11642
11648
11914
12358
12763
13125
12908
12707
12686
12524
12316
12038
12022
12183
12148
11929
13124
17106
24676
22560
9395
7747
9765
11165
12123
12778
13019
13113
13435
13612
13715
13837
14044
14221
14418
14707
15018
15348
15800
16202
16645
17011
17342
17354
17303
17140
16842
16222
15330
14296
13260
12404
11663
11441
11270
11085
11221
11370
11358
11352
11474
11548
11504
11524
11526
11717
11726
11687
11780
11775
11790
11781
11964
12373
12592
12690
12685
12685
12450
12133
12215
12151
12098
12158
11940
11888
13817
18124
23607
23799
11284
7595
9735
11158
12286
12760
12827
13049
13439
13605
13730
13912
14052
14211
14452
14676
15120
15455
15813
16310
16840
17150
17279
17237
17218
16993
16508
15794
14824
13675
12830
12136
11646
11387
11197
11144
11231
11301
11407
11525
11543
11605
11769
11914
11806
11898
11960
12040
12049
11808
11745
11906
12196
12718
12962
12926
12791
12804
12605
12374
12272
12071
12167
12284
12032
12029
15038
19996
25506
20960
8516
8665
9931
11142
11982
12537
13185
13383
13537
13666
13579
13831
14041
14258
14539
14980
15262
15614
16205
16706
17223
17389
17201
17308
17267
17026
16406
15536
14519
13418
12491
11693
11394
11100
11038
11019
11246
11392
11578
11549
11549
11674
11753
11720
11780
11731
11795
12120
12020
11847
11972
12017
12161
12623
12822
13117
12982
12837
12736
12625
12305
12047
12200
12286
12039
11709
13462
17729
23528
24632
12280
7596
9362
10726
12085
12674
13020
13219
13290
13410
13663
13743
14107
14367
14685
14738
15065
15554
15929
16418
16855
17364
17482
17572
17335
17059
16601
16069
15124
13986
12955
12255
11614
11264
11118
11075
11135
11336
11360
11297
11571
11529
11632
11615
11573
11893
12055
11797
11884
12027
12160
11956
11809
11645
11949
12571
12858
13139
13043
12855
12805
12703
12391
12253
12230
12382
12061
12130
13377
17505
23235
24952
12788
7236
9287
10712
12063
12637
13067
13254
13447
13502
13766
13769
13976
14314
14514
14685
14982
15377
15863
16211
16793
17207
17431
17255
17277
17205
16794
16010
14997
13955
13122
12229
11585
11378
11195
11070
11076
11117
11221
11284
11392
11516
11483
11628
11635
11599
11787
11802
11761
11723
11761
11732
11746
11740
11815
11753
11582
11676
12182
12679
12995
13062
12976
12982
12866
12736
12517
12284
12200
12353
12098
12145
14733
19540
25229
21849
8881
8095
9982
11415
12314
12983
13202
13320
13692
13798
13933
14112
14279
14443
14699
14971
15272
15619
15970
16556
17104
17407
17516
17511
17532
17384
16880
16175
15053
14020
13145
12215
11571
11315
11220
10853
10951
11157
11379
11630
11742
11801
11695
11616
11618
11676
11723
11733
11725
11737
11684
11640
11707
11997
12019
11904
11812
11970
12412
12743
12935
12892
12827
12795
12697
12572
12399
12397
12436
12259
11710
12817
16878
22267
25652
15600
7283
9217
10441
11815
12659
13121
13319
13457
13667
13783
14096
14261
14357
14650
14865
15162
15647
16059
16394
16982
17283
17575
17702
17658
17474
17063
16351
15454
14502
13420
12403
11596
11257
11272
11286
11175
11235
11341
11397
11422
11471
11503
11620
11712
11622
11662
11589
11672
11961
11980
11954
11945
11954
11933
11873
11782
11790
11746
12150
12748
13108
13266
13204
13062
12788
12654
12500
12334
12402
12429
12258
12111
14031
18549
24390
23885
11031
7911
9910
11441
12248
12968
13335
13471
13537
13555
13733
13996
14141
14480
14653
14851
15224
15784
16070
16522
16895
17196
17533
17734
17604
17297
16869
16468
15684
14498
13335
12510
11789
11249
11148
11120
11230
11263
11260
11365
11488
11569
11580
11575
11747
11803
11641
11603
11717
11838
11871
11840
11818
11850
11896
12003
12165
12208
12046
12201
12531
12803
13060
13010
13016
13018
13209
12856
12517
12540
12525
12230
12169
14377
18779
24450
20408
8355
8542
10101
11287
12272
12800
13079
13278
13442
13549
13615
13801
14066
14313
14517
14807
15176
15528
15854
16280
16793
17097
17227
17554
17672
17337
17028
16306
15329
14157
13003
12233
11598
11294
11098
11048
11140
11147
11079
11208
11423
11545
11530
11625
11713
11810
11743
11646
11691
11733
11765
11657
11714
11849
11902
12044
12179
11904
11890
11912
12351
12724
12822
12929
12986
13078
12968
12659
12535
12438
12426
12564
12194
12232
15406
20156
25253
20683
8513
8431
10359
11537
12333
13090
13467
13470
13603
13953
14036
14245
14443
14774
14827
15024
15346
15742
16064
16593
17052
17416
17673
17814
17961
17600
17356
16731
15650
14380
13301
12363
11681
11510
11478
11247
11053
11225
11273
11338
11484
11676
11514
11601
11764
11938
11658
11801
12027
12025
11823
11922
11986
12002
12081
12227
12096
11817
12000
12345
12911
13045
12968
12953
12869
12735
12690
12622
12545
12331
12203
11958
13849
18150
23832
24268
11872
7551
9527
10730
11920
12687
13066
13318
13539
13669
13753
13944
14035
14315
14577
14903
15086
15380
15684
16323
16783
17194
17551
17720
17717
17648
17350
16786
15938
14704
13606
12727
12096
11436
11208
11033
11231
11262
11275
11237
11303
11482
11671
11680
11634
11681
11751
11879
11692
11834
11910
11977
11840
11837
11901
11999
11910
12025
12281
12534
13016
13237
13148
12988
12815
12694
12493
12413
12448
12314
11894
12251
15482
20533
25760
20175
8217
8272
9957
11347
12468
12929
13133
13248
13542
13846
14053
14009
14141
14416
14502
14786
15239
15665
15811
16461
17084
17478
17759
17881
17869
17639
17032
16273
15258
14268
13254
12164
11618
11394
11290
11152
11042
11044
11263
11347
11410
11303
11447
11563
11699
11648
11650
11861
11862
11638
11613
11828
11817
11654
11646
11841
12046
12303
12460
13001
12885
12773
12735
12573
12411
12331
12234
12258
11936
11864
14271
19049
24815
22425
9526
8280
9886
10930
11965
12645
13144
13436
13580
13625
13879
13920
14050
14265
14576
14837
15160
15415
15763
16337
16790
17111
17464
17685
17640
17535
17130
16355
15154
14278
13159
12316
11643
11282
11175
11159
11056
11134
11337
11309
11290
11314
11753
11787
11749
11689
11930
11771
11844
11904
11823
11756
11892
11837
11848
11913
12160
12407
12637
13122
13051
12914
12689
12595
12407
12280
12327
12566
12150
11694
13185
17257
22806
25158
13435
7558
9439
10771
11889
12568
13088
13315
13456
13470
13633
13918
14240
14263
14548
14792
15010
15286
15546
15987
16702
17133
17585
17627
17678
17586
17182
16651
15732
14830
13626
12706
11880
11296
11131
11097
11005
11012
11018
11301
11456
11413
11472
11495
11668
11712
11671
11624
11566
11785
11943
11912
11921
11930
11922
11933
12043
12212
12600
12920
13245
13080
13052
12738
12636
12401
12329
12319
12374
12049
11869
14145
18650
24823
22494
9659
8286
9805
11209
12359
12990
13221
13332
13628
13827
13921
13942
14138
14330
14482
14755
15127
15548
15857
16398
16890
17434
17493
17613
17588
17450
17176
16618
15464
14332
13392
12557
11830
11336
11133
11056
11060
11046
11279
11380
11431
11455
11681
11658
11559
11627
11781
11772
11646
11597
11804
11795
11775
11923
11947
12008
11791
12130
12366
12852
13002
13074
12995
12864
12558
12542
12486
12437
12373
12131
11873
13711
18100
24139
23775
10797
7716
9524
11222
12259
12899
13256
13450
13375
13557
13758
13997
14056
14343
14441
14643
15070
15510
15728
16249
16670
17175
17587
17710
17555
17369
17146
16592
15732
14589
13581
12503
11872
11437
11257
11171
11291
11309
11260
11368
11461
11672
11688
11756
11741
11683
11630
11791
11674
11924
11921
11911
11767
11886
11961
11994
11919
11764
12029
12792
12893
13009
13222
13111
12979
12748
12494
12256
12361
12382
12252
12069
13646
17539
23334
24640
12443
7614
9553
11041
12171
12834
13042
13345
13592
13759
13848
13998
14186
14356
14515
14814
14932
15505
15812
16101
16520
17206
17512
17588
17456
17253
17122
16605
15951
14861
13756
12530
12008
11677
11396
11251
11249
11273
11331
11301
11611
11601
11598
11599
11630
11580
11646
11780
11765
11804
11718
11848
11818
11953
11931
11853
11797
12242
12688
13101
12939
12757
12767
12801
12600
12385
12216
12290
12187
11874
12772
16402
21681
25495
16037
7558
9195
10320
11773
12550
12979
13114
13396
13378
13523
13819
14114
14147
14289
14646
14887
15062
15532
16069
16514
16975
17264
17422
17459
17401
17001
16472
15706
14902
13786
12811
11925
11307
11056
10940
11039
11143
11305
11342
11545
11560
11665
11685
11709
11649
11619
11506
11705
11689
11923
12132
12172
12019
11783
11802
12172
12493
12588
13020
13156
12975
12804
12735
12523
12349
12193
12363
12210
11872
13514
17925
23811
24414
11578
7953
9646
11009
12080
12620
13039
13167
13374
13769
13993
13879
13973
14174
14481
14723
14966
15424
15660
16053
16682
17136
17220
17542
17471
17233
17055
16629
15467
14298
13365
12546
11667
11583
11251
11065
11075
11223
11164
11231
11326
11504
11749
11786
11785
11609
11807
11783
11792
11710
11776
11928
12099
12088
12105
11985
12040
12241
12692
12925
13120
13127
13139
12927
12680
12494
12351
12213
12380
12210
12076
13938
18077
23920
23929
10993
7619
9558
11336
12533
12907
13037
13322
13610
13642
13619
14019
14213
14419
14487
14867
14965
15426
15850
16120
16561
17114
17301
17400
17388
17296
17001
16450
15675
14646
13671
12577
11845
11481
11316
11134
11051
10951
11317
11593
11632
11530
11615
11577
11752
11788
11632
11502
11744
11895
11827
11915
11830
11854
12020
12074
11873
11785
12007
12548
12982
13250
13200
13254
12979
12668
12431
12442
12398
12379
12094
11899
13370
17065
22629
25198
13955
7125
9217
10937
12196
12733
13181
13499
13605
13667
13909
14124
14203
14188
14431
14665
14991
15427
15727
16286
16581
16960
17392
17617
17410
17480
17115
16495
15894
15055
13930
12819
12038
11546
11315
11229
11346
11344
11408
11397
11642
11525
11658
11778
11876
11706
11671
11785
11975
11982
11872
11839
12049
11851
11952
12127
12049
11822
12094
12708
13171
13199
13047
13152
12950
12748
12343
12256
12482
12628
12225
12240
14789
19473
25063
21822
8639
8054
9971
11354
12347
13011
13238
13409
13576
13583
13849
14041
14292
14338
14504
14861
15248
15455
15937
16398
16789
17156
17286
17475
17289
17174
16791
16088
15308
14469
13245
12511
11726
11327
11077
10928
10989
11162
11170
11180
11430
11597
11666
11566
11697
11767
11869
11804
11872
11807
11941
11864
12055
11847
11853
11817
12253
12739
13018
12959
12839
12924
12619
12497
12339
12208
12239
12272
12017
12045
14319
18721
24482
22594
9474
8397
9791
11055
12158
12899
13168
13228
13538
13782
13916
13969
14158
14282
14481
14695
15214
15520
15865
16282
16828
17240
17400
17557
17426
17144
16729
16244
15225
14108
13196
12362
11552
11118
10914
11074
11134
11199
11218
11288
11371
11636
11735
11666
11717
11864
11879
11873
11835
11835
11858
11877
11877
11996
12065
11839
12006
12354
12890
13031
13010
13024
12855
12541
12659
12376
12267
12210
12191
12049
12904
16575
22100
25650
15121
7510
9316
10783
11945
12617
12988
13268
13448
13603
13562
13789
14173
14348
14377
14558
14905
15354
15825
16065
16408
16978
17467
17474
17429
17372
16977
16495
16001
14997
13703
12636
12074
11661
11442
11226
10907
11123
11306
11394
11355
11513
11630
11863
11901
11889
11769
11772
11723
11893
11737
11822
11874
11892
11909
11937
11954
12370
12750
12967
13061
13032
13099
12896
12601
12475
12525
12376
12477
12200
12261
14628
19351
24988
21482
8401
8012
10081
11731
12532
12918
13205
13291
13539
13697
13859
13978
14190
14324
14708
15046
15251
15466
15887
16243
16611
16968
17311
17433
17230
17297
16875
16274
15488
14467
13278
12410
11728
11435
11305
11152
11226
11417
11504
11544
11587
11617
11720
11765
11825
11883
11866
11860
11970
11928
11904
11862
11929
11869
11849
11823
12273
12651
12991
13043
12938
12958
12906
12565
12374
12430
12307
12336
12148
12150
14235
19045
24694
22332
9061
7737
9891
11511
12430
12882
13151
13329
13464
13723
13800
13825
14149
14479
14609
14718
15114
15504
15877
16292
16729
17025
17297
17410
17347
17169
16762
16201
15472
14362
13082
12406
11793
11452
11048
10975
10850
11107
11225
11328
11337
11495
11534
11374
11720
11844
11782
11747
11605
11783
11902
11857
11638
11575
11925
12402
12850
13157
13090
12707
12858
12668
12415
12123
12138
12247
12217
11918
12868
16385
21499
25517
16688
7413
9170
10257
11528
12566
13020
13255
13248
13548
13759
13888
14016
14084
14161
14610
15070
15338
15570
15868
16422
16942
17319
17368
17375
17258
16992
16439
15754
14789
13666
12517
11854
11379
11012
10981
10996
11082
11116
11151
11242
11424
11403
11553
11657
11799
11771
11794
11759
11875
11860
11835
11687
11735
11892
12326
12625
12994
12990
12818
12721
12597
12531
12259
12161
12245
12183
11920
12650
15825
20763
25499
18655
7700
9059
10349
11552
12407
12849
13274
13535
13688
13722
13846
13712
14108
14343
14664
14735
15169
15787
16361
16555
17001
17412
17520
17684
17507
17219
16669
15798
14906
13870
12842
11966
11544
11351
11175
11071
10966
11143
11407
11516
11492
11670
11660
11811
11732
11994
11985
11745
12036
12105
11902
11950
11971
12117
12349
12508
13007
12984
12831
12671
12606
12420
12240
12200
12168
12048
11862
12264
15571
20751
25664
19078
7726
8648
10092
11641
12432
13051
13064
13363
13459
13662
13712
13830
14254
14432
14553
14864
15189
15477
15869
16328
16820
17060
17322
17488
17361
17000
16688
15965
14980
14020
12971
11872
11493
11354
11090
11001
11216
11373
11391
11365
11344
11606
11757
11722
11634
11708
11727
11898
11723
11715
11941
12399
12688
12762
12920
12896
12726
12380
12315
12062
12222
12152
12211
11847
12697
16722
22483
25273
14689
6868
9007
10696
11907
12551
13004
13340
13397
13462
13598
13940
14047
14078
14388
14676
14888
15121
15504
16024
16589
16718
17237
17694
17642
17239
17065
16565
15629
14636
13732
12775
12214
11690
11296
10926
11075
11112
11280
11264
11394
11554
11625
11665
11656
11893
11922
11904
11716
11696
11776
11931
12026
12103
12051
11928
11993
12613
12976
13065
13097
12999
12919
12681
12549
12392
12349
12507
12512
12174
12904
16359
21618
25705
18237
7598
8588
10209
11571
12242
12884
13300
13411
13527
13567
13775
13843
14043
14233
14485
14693
15099
15390
15837
16458
16832
17148
17444
17348
17324
17150
16723
16038
14951
13895
12831
12076
11443
11356
11177
10929
10805
11000
11075
11230
11256
11260
11346
11633
11808
11718
11655
11603
11631
11768
11907
11840
11795
11666
11625
11819
12198
12552
12872
12635
12601
12666
12535
12369
12375
12339
12214
12168
11895
12839
16536
21849
25546
16293
7578
9203
10168
11615
12628
13102
13247
13500
13704
13858
13848
13996
14360
14583
14816
14828
15272
15714
16192
16621
17149
17514
17754
17694
17524
17170
16821
16091
14788
13675
12795
12035
11328
11101
11086
11083
11055
11264
11352
11520
11416
11414
11538
11755
11658
11664
11730
11793
11928
11955
11905
11748
11955
12098
11976
12033
12092
12336
12714
13034
13166
13160
13057
12740
12673
12301
12371
12518
12554
12190
11942
13964
18407
24417
23915
10938
8038
9761
10939
12099
12801
13080
13287
13495
13708
13854
13963
14107
14325
14510
14707
15090
15496
15882
16381
16859
17158
17744
17993
17872
17539
17113
16648
15716
14538
13403
12409
11767
11304
11090
11032
11136
11132
11195
11312
11357
11329
11497
11644
11694
11689
11602
11786
11991
11965
11928
11937
11904
11802
11880
12015
12036
12030
12066
12378
12765
13151
13157
13077
13064
13015
12853
12591
12445
12466
12493
12268
11898
13377
17626
23579
25097
13121
7589
9392
10920
12154
12764
13121
13335
13508
13527
13863
13961
13926
14328
14633
14833
15181
15546
15851
16299
16795
17300
17616
17842
17912
17897
17550
16876
16042
14926
13839
12728
11836
11454
11218
11098
10982
11048
11170
11220
11286
11323
11485
11523
11598
11653
11710
11826
11819
11761
11756
11831
11878
11977
12029
12048
12022
12100
12095
12004
11923
12285
12718
13057
13192
13196
13144
13058
12923
12764
12638
12707
12733
12500
12048
13329
17352
22906
25605
15230
7732
9305
10672
12064
12695
13035
13486
13799
13813
13789
13938
14122
14174
14368
14747
15049
15204
15593
16195
16688
17177
17570
17751
17839
17682
17351
16842
16043
15023
13862
12844
12100
11521
11209
11218
11083
11007
11045
11073
11314
11522
11493
11508
11576
11699
11725
11825
11755
11738
11711
11763
11912
11988
11926
11790
11933
12032
12092
11996
11905
12154
12499
12885
13070
13106
13158
13043
12850
12650
12608
12603
12569
12521
12131
11975
14526
19208
24949
22422
9807
8494
9914
11026
12240
13015
13271
13284
13623
13791
13857
13990
14289
14468
14643
14874
15134
15564
16012
16391
16730
17226
17740
17906
17850
17639
17282
16607
15537
14297
13207
12397
11704
11285
11109
11004
10979
11134
11308
11364
11396
11437
11555
11639
11672
11682
11719
11767
11820
11909
11979
11940
11860
11818
11824
11911
11883
11911
11973
11875
11839
12098
12534
12888
13186
13239
13108
12934
12879
12896
12654
12499
12580
12630
12108
11934
14650
19546
25470
22112
9765
8426
10155
11713
12552
12968
13233
13438
13529
13745
13898
14016
14206
14358
14529
14784
15136
15530
15867
16272
16838
17426
17799
17891
17751
17617
17429
16733
15735
14271
13283
12391
11689
11334
11190
11159
11000
11055
11223
11341
11511
11662
11760
11868
11894
11841
11859
11798
11935
11998
11940
11668
11756
11994
12073
12038
11992
12042
12116
12025
11919
12068
12334
12592
12923
12958
12951
13068
12958
12735
12600
12536
12450
12543
12460
12581
14723
19159
24277
22030
10315
8491
10835
12091
12575
13024
13362
13566
13699
13780
14046
14059
14210
14425
14631
14836
15108
15427
15711
16109
16605
16937
17448
17536
17382
17201
16902
16358
15488
14615
13426
12484
11922
11550
11301
11276
11278
11213
11356
11438
11493
11589
11653
11705
11648
11762
11806
11781
11806
11859
11939
11818
11870
11963
11924
11904
12145
12282
12099
11911
12114
12393
12841
13111
13041
13020
13091
12952
12724
12574
12488
12470
12503
12285
12315
14548
19170
24164
21034
9477
8636
10776
11976
12517
12931
13246
13473
13557
13656
13827
14033
14157
14302
14554
14830
15154
15415
15883
16341
16644
17006
17289
17281
17380
17243
16788
16125
15167
14155
13151
12508
11904
11556
11355
11297
11374
11409
11469
11472
11484
11550
11534
11647
11787
11804
11966
11958
11861
11957
11988
11952
11881
11756
11890
11969
11894
11927
12140
12438
12671
12927
13049
13067
13000
12874
12683
12459
12421
12467
12418
12156
12122
14585
19311
24562
20134
8331
8485
10798
11979
12472
13006
13190
13337
13527
13772
13822
13944
14154
14489
14588
14719
15168
15535
15886
16301
16791
17125
17210
17381
17359
17089
16832
16131
15047
14032
13059
12172
11613
11274
11074
10975
11075
11085
11139
11356
11492
11615
11666
11599
11592
11724
11783
11680
11544
11662
11882
11852
11716
11815
11836
11650
11655
11718
12201
12685
12936
13142
13096
12941
12771
12646
12433
12179
12172
12408
12273
11901
13271
17105
22889
24788
13257
7598
9515
11173
12133
12774
13212
13280
13363
13620
13883
13952
14096
14306
14490
14821
15125
15460
15893
16231
16774
17140
17419
17639
17435
17413
17115
16519
15680
14651
13492
12427
11833
11493
11208
11063
10928
11051
11251
11396
11461
11445
11607
11703
11714
11743
11780
11707
11684
11765
11950
11980
11990
11863
11963
12097
12028
11897
11997
12348
12842
13147
13232
13065
13012
12862
12729
12530
12328
12395
12358
11976
12053
14527
19162
24923
21689
9134
8278
10099
11552
12429
12995
13148
13543
13699
13807
14036
14158
14240
14403
14692
14921
15296
15616
16007
16436
17070
17518
17679
17676
17566
17423
16968
16135
15324
14297
13253
12302
11592
11270
11314
11276
11202
11283
11333
11406
11459
11516
11718
11746
11686
11714
11818
11886
11910
11839
11829
11845
11908
11918
12040
11996
11999
12250
12481
12927
13344
13331
13156
13057
12818
12670
12415
12363
12609
12626
12142
12403
15176
20167
25558
19855
8257
8758
10592
11903
12703
13033
13324
13421
13514
13734
14026
13952
14190
14722
14888
14919
15254
15655
16008
16585
17087
17391
17672
17621
17555
17310
16832
16059
15112
14040
12994
12068
11434
11233
11149
11051
10879
11256
11383
11258
11264
11519
11620
11668
11573
11661
11692
11660
11676
11698
11632
11764
11962
11831
11776
11790
12196
12599
12935
13004
12898
12786
12704
12426
12253
12149
12267
12272
11957
12054
14017
17894
23322
23850
11496
7567
9530
10808
12379
13125
13329
13549
13658
13833
13876
14089
14262
14518
14680
14892
15041
15423
15963
16514
16977
17410
17529
17632
17689
17434
16932
16382
15571
14344
13185
12191
11721
11432
11143
11014
11083
11177
11192
11378
11580
11675
11593
11719
11731
11814
11783
11848
11884
11903
11789
11980
11934
11783
11846
12157
12492
12666
12830
12978
13076
12922
12758
12577
12275
12290
12420
12316
12028
12508
15837
21003
25685
17726
7473
8802
10340
12118
12770
13014
13222
13313
13531
13826
14008
14175
14183
14334
14826
15173
15416
15631
15979
16686
17038
17291
17546
17559
17192
16952
16587
15786
14629
13411
12545
11924
11475
11009
11041
11109
11019
10972
11354
11462
11538
11612
11695
11725
11801
11793
11671
11824
11848
11948
11943
12015
11918
11884
11766
12001
12385
12789
13106
13164
12940
12902
12723
12550
12357
12310
12344
12253
11845
12389
15896
21131
25618
17267
7504
8889
11202
12172
12844
13088
13311
13388
13602
13785
14038
14114
14346
14633
14877
15112
15331
15687
16164
16714
17048
17449
17551
17468
17278
17261
16719
15825
14600
13661
12860
12199
11528
11297
11306
11152
11265
11366
11446
11547
11670
11618
11786
11700
11793
11921
11885
11719
11852
11804
11789
11948
11959
11799
11713
12096
12679
13157
13133
12956
12941
12931
12654
12427
12237
12249
12435
12352
11957
13128
16793
22353
25294
14609
7159
9148
12305
12924
13264
13357
13572
13714
13876
14092
14209
14397
14602
14968
15195
15558
15882
16216
16692
17245
17522
17519
17464
17235
16927
16293
15499
14451
13319
12426
11822
11370
11197
11135
11175
11165
11326
11374
11444
11416
11586
11702
11733
11740
11715
11775
11762
11735
11703
11946
11902
11788
11723
12129
12615
12937
13079
13063
12884
12615
12538
12370
12270
12285
12313
12053
11847
13378
17624
23226
24819
12634
7346
9244
10746
12266
12922
13050
13207
13418
13661
13785
13845
14081
14371
14549
14687
15138
15386
15785
16230
16668
17049
17307
17346
17312
17112
16902
16175
15179
14078
13040
12098
11449
11238
11095
10883
11067
11092
10961
11291
11528
11628
11562
11719
11680
11760
11724
11689
11685
11729
11883
11861
11609
11601
12057
12608
13042
13004
12901
12808
12801
12543
12248
12081
12093
12301
12206
11800
12916
16770
22245
25281
14657
7492
9372
10470
11614
12508
13058
13337
13455
13615
13685
13839
14060
14431
14604
14880
15156
15458
15854
16345
16703
17072
17416
17639
17417
17094
16866
16127
15273
14132
13092
12113
11467
11213
11213
11015
11019
11026
11231
11470
11478
11455
11623
11709
11644
11765
11784
11835
11925
11997
12036
12020
11840
11746
12062
12632
12979
13094
12927
12947
12995
12776
12578
12322
12384
12445
12223
11624
13095
17171
22912
25227
13928
7742
9317
10570
11923
12699
13074
13304
13489
13639
13857
14008
14170
14392
14592
14764
15131
15517
15853
16389
16788
17177
17402
17600
17515
17261
16740
16200
15133
14071
13093
12218
11590
11216
11138
11167
11044
11120
11334
11365
11592
11692
11763
11794
11869
11817
11754
11804
11873
11989
12000
11919
11916
11919
11810
12024
12471
12979
13015
12853
12804
12888
12658
12582
12292
12308
12438
12254
11803
13156
17300
23143
25194
13204
7619
9337
10711
11983
12810
13023
13268
13507
13584
13759
14044
14154
14354
14448
14722
15049
15488
15890
16437
16875
17250
17459
17454
17409
17295
16980
16213
15289
14199
13154
12174
11713
11303
11137
11032
11088
11096
11334
11442
11438
11445
11453
11753
11873
11872
11764
11837
11832
11895
11847
11949
12029
12028
11958
11881
11996
12401
12818
13110
13052
12946
12881
12655
12556
12452
12392
12325
12276
11873
12728
16213
21611
25657
16534
7132
8853
10583
11800
12643
13100
13331
13471
13552
13767
14078
14209
14288
14412
14780
15114
15501
15771
16199
16580
16973
17301
17522
17483
17256
16862
16446
15631
14510
13384
12580
11951
11442
11127
11048
11085
11063
11272
11285
11417
11514
11720
11719
11782
11855
11884
11844
11737
11712
11743
11767
11671
11846
12022
11953
11814
11900
12367
12876
12946
13052
13004
12910
12730
12608
12547
12467
12475
12515
12162
12220
14905
19691
25419
22230
8892
8000
9886
11348
12429
13031
13336
13420
13524
13723
13919
14185
14409
14588
14699
14858
15149
15563
16034
16605
17091
17444
17528
17548
17450
17230
16672
15930
14875
13877
12853
12041
11479
11196
11042
10956
10801
10899
11154
11302
11424
11483
11614
11639
11651
11714
11763
11787
11815
11721
11777
11945
11969
11994
11838
11827
11886
12272
12682
13096
12996
12961
12937
12844
12568
12397
12457
12513
12489
12136
11895
14042
18453
24429
23736
10485
7945
9535
11573
12517
13029
13102
13333
13553
13765
13944
14108
14153
14459
14687
15008
15272
15620
15991
16536
17061
17363
17530
17647
17579
17232
16822
16099
15105
13926
12901
12044
11561
11248
11253
11093
10977
11114
11379
11440
11535
11503
11581
11788
11785
11816
11883
11903
11845
11943
11979
11999
12022
12061
11971
12005
11993
12084
12500
12879
13076
13058
13047
12987
12745
12440
12254
12293
12452
12395
12066
12582
16027
21290
25942
17869
7784
9375
10794
12098
12792
13218
13413
13573
13657
13844
13953
14195
14336
14458
14669
15016
15366
15841
16337
16878
17296
17632
17704
17645
17468
17134
16577
15691
14640
13543
12593
11875
11417
11162
11145
11098
11131
11127
11102
11276
11546
11502
11611
11648
11620
11656
11773
11888
11839
11923
11965
12058
11937
11966
11944
12044
11911
11769
12000
12538
12902
13095
13186
13085
13031
12950
12749
12455
12388
12509
12517
12108
12260
14983
22213
25673
15387
7200
9098
10821
12170
12646
13029
13318
13591
13614
13745
13879
14086
14273
14407
14690
15049
15395
15590
16152
16659
17056
17342
17625
17570
17498
17288
16966
16124
15130
14083
13061
12152
11542
11200
11106
11138
11070
11188
11209
11401
11434
11586
11605
11744
11839
11829
11630
11752
11818
11899
11919
11866
11873
11930
12048
12151
12139
11995
11951
12216
12742
13088
13260
13192
13155
12958
12791
12692
12458
12444
12574
12253
12102
14207
18894
24780
23235
9944
7882
9864
11374
12349
12828
13260
13441
13635
13646
13802
13996
14138
14385
14607
14868
15150
15437
15850
16380
16816
17263
17440
17608
17673
17554
17140
16632
15779
14637
13455
12570
11902
11412
11224
11103
10989
10952
11147
11218
11366
11433
11537
11538
11630
11658
11684
11685
11742
11747
11854
11887
11894
11817
11758
11945
12021
11972
11803
12065
12460
12823
13109
13061
12988
13045
12789
12516
12344
12410
12444
12258
12137
14524
19039
24807
22834
9710
8082
9759
11219
12342
12993
13230
13427
13517
13749
13919
14054
14045
14319
14472
14856
15218
15601
15911
16211
16796
17225
17560
17640
17575
17476
17129
16371
15387
14374
13357
12240
11673
11339
11118
11025
11121
11062
11115
11093
11242
11437
11615
11600
11536
11788
11786
11761
11754
11923
11917
11951
11899
12043
11946
12059
12103
11952
12050
12562
12924
13086
13114
13029
12983
12812
12696
12447
12369
12434
12344
11946
13309
17296
23173
25418
13592
7593
9446
10743
12081
12854
13226
13309
13417
13796
13889
13999
14081
14183
14503
14936
15139
15424
15676
16194
16740
17210
17472
17624
17578
17462
17190
16686
15833
14742
13703
12644
11883
11443
11202
10971
10985
10992
11268
11305
11401
11451
11548
11673
11763
11780
11740
11784
11771
11836
11962
12088
12003
11967
11824
11994
12119
12076
11811
12016
12534
13146
13097
13079
13049
12934
12736
12636
12431
12382
12368
12196
11895
13609
17617
23514
24657
12144
7795
9640
11137
12103
12980
13291
13448
13609
13664
13671
14000
14279
14416
14483
14692
15132
15468
15888
16277
16718
17140
17494
17603
17614
17412
17315
16755
15811
14794
13726
12790
12072
11524
11176
10985
10927
11134
11310
11385
11349
11480
11614
11635
11564
11662
11715
11681
11674
11692
11782
11871
12007
11990
11993
11950
12059
11959
11836
12079
12659
12985
13113
13116
13228
13030
12879
12624
12452
12358
12486
12269
11941
13058
17093
22809
25302
13959
7195
9177
10840
12020
12760
13216
13329
13468
13606
13903
14009
14234
14305
14452
14626
14967
15313
15792
16203
16591
17072
17370
17661
17548
17512
17272
16850
16013
15010
13840
12793
11982
11542
11258
11201
11052
10940
11104
11265
11403
11392
11511
11567
11588
11618
11815
11812
11980
11810
11931
11893
11893
11891
11807
11895
11932
11854
11816
12155
12712
13014
13168
13165
13065
13034
12792
12671
12484
12423
12304
12327
11902
12980
16679
22275
25733
15732
7395
9214
10752
11988
12768
13074
13231
13286
13661
13903
14078
14050
14280
14399
14689
14864
15233
15652
16183
16582
16935
17268
17507
17609
17502
17297
16680
16041
15168
14053
12918
12039
11530
11362
11137
11050
11037
10995
11228
11413
11463
11355
11643
11765
11712
11783
11726
11633
11968
11910
11912
11873
11900
11716
11756
11936
11983
11853
12099
12476
12970
13116
13195
13120
12974
12749
12501
12304
12333
12439
12367
11919
12630
16119
21376
25875
17309
7777
9200
10535
11869
12677
12942
13202
13475
13573
13779
13929
14118
14246
14484
14745
15015
15170
15589
16073
16613
16982
17345
17547
17598
17546
17359
16916
16076
14976
14018
13014
12031
11388
11146
11109
11018
11068
11122
11286
11282
11398
11409
11523
11717
11781
11785
11867
11824
11891
11861
11846
11909
11878
11916
11967
11819
11896
12074
12115
12513
12861
13282
13180
13054
13069
12946
12594
12503
12492
12518
12645
12362
12158
14382
18918
24982
22826
9538
8253
9971
11536
12431
12977
13209
13521
13733
13776
13891
14103
14319
14441
14601
14775
15185
15569
15960
16352
16775
17153
17677
17801
17795
17508
17124
16533
15630
14549
13423
12442
11791
11501
11272
11228
11041
11078
11282
11474
11428
11545
11719
11724
11765
11800
11908
11971
11833
11881
11860
11854
11894
12008
11937
11981
12095
12080
11997
12011
12494
12931
13165
13135
13189
13066
12937
12832
12669
12452
12510
12514
12297
12132
14436
19095
24960
22480
9297
7872
9980
11683
12480
12970
13048
13464
13653
13827
13844
13953
14065
14341
14636
14843
15187
15545
15997
16423
16904
17199
17458
17528
17579
17402
17128
16572
15675
14669
13608
12499
11847
11505
11243
11020
11054
11165
11141
11262
11464
11620
11638
11702
11632
11651
11739
11686
11746
11893
11745
11772
11779
11912
11890
12037
11998
11918
11935
12054
11941
11942
12533
13031
13318
13131
13151
13264
13122
12911
12737
12555
12586
12488
12310
12295
14871
19750
25312
21666
8874
8255
10176
11716
12564
13103
13237
13537
13552
13708
14077
14220
14196
14336
14609
14936
15149
15422
15849
16338
16779
17241
17495
17547
17642
17307
17092
16518
15647
14548
13540
12241
11652
11163
10949
10832
11022
11077
11168
11288
11452
11519
11592
11622
11651
11706
11696
11853
11732
11702
11931
12069
11955
11996
11899
11929
11982
12043
11859
11977
12373
12724
12913
13021
13146
12918
12825
12690
12708
12433
12433
12445
12042
11943
14757
19514
25302
21944
8923
8384
9954
11147
12137
12881
13080
13301
13348
13822
14085
14105
14164
14396
14606
14939
15108
15447
15839
16524
17086
17322
17500
17652
17613
17398
16737
16020
15106
14041
12878
12122
11525
11073
11053
11034
11121
11048
11160
11277
11400
11546
11713
11795
11813
11657
11806
11987
12003
11949
11982
11961
11777
11980
11954
12016
11933
11926
11797
12352
12858
13127
13207
13031
12987
12833
12675
12418
12418
12368
12440
12063
12081
14557
19255
25176
22317
9135
8340
10010
11483
12439
13078
13272
13377
13621
13854
13970
14047
14211
14367
14635
14910
15227
15557
15913
16221
16838
17303
17645
17638
17617
17394
17001
16159
15184
14069
12988
12101
11425
11232
11124
11014
10916
11104
11182
11281
11317
11442
11581
11660
11577
11632
11717
11755
11849
11867
11967
11904
11904
11873
11962
11877
11937
11916
11794
12029
12621
12990
13219
13143
13121
12926
12718
12566
12470
12516
12521
12406
11937
12706
16147
21434
25841
17790
7546
9055
10800
12015
12654
13282
13453
13413
13548
13828
13890
13995
14178
14521
14712
14961
15358
15641
16175
16597
17025
17358
17695
17643
17501
17256
16813
15923
15000
13819
12845
12108
11494
11020
10913
11115
11203
11295
11298
11276
11226
11413
11638
11784
11589
11609
11691
11936
11981
11917
11843
11893
11886
11890
11945
12025
11998
11953
11941
12272
12928
13154
13223
13044
13127
12972
12819
12561
12439
12509
12500
12232
12155
13807
18038
23993
24621
12016
7513
9611
11220
12352
12873
13261
13352
13564
13688
13970
14105
14238
14322
14467
14965
15435
15723
15898
16386
16855
17357
17705
17646
17564
17423
16980
16381
15487
14471
13319
12489
11701
11092
10945
11201
11038
10999
11167
11443
11309
11270
11480
11664
11784
11773
11677
11739
11987
11835
11837
11825
11773
11848
11935
11920
11805
11833
11863
12134
12735
13082
13188
13096
12981
12811
12679
12704
12396
12287
12364
12346
11917
13565
17733
23364
24933
12823
7678
9533
10619
11914
12698
13027
13345
13434
13576
13738
14103
14140
14459
14681
14885
15064
15491
15977
16415
16744
17280
17753
17823
17681
17366
17027
16491
15559
14298
13117
12178
11773
11278
10998
10749
10888
11022
11167
11193
11267
11436
11544
11633
11812
11794
11707
11782
11777
11828
11834
11931
11878
11839
11943
12077
11817
11921
12015
12403
12901
13175
13207
12994
12927
12856
12747
12374
12388
12483
12455
12078
12426
15605
20671
25841
19303
7892
8902
10166
11620
12497
13060
13310
13407
13525
13790
13983
14123
14241
14379
14625
14897
15491
15762
16155
16731
17158
17463
17752
17796
17655
17238
16637
15839
14947
13842
12774
11932
11347
11062
11010
10954
10860
11187
11425
11549
11407
11409
11391
11678
11896
11981
11717
11751
12082
12229
11956
12065
12224
12054
11950
12048
12192
12085
11896
12275
12952
13192
13410
13337
13275
13169
12839
12436
12520
12606
12491
12457
11943
12381
15626
21292
25559
17166
7097
8466
10027
11931
12589
12914
13062
13213
13370
13606
13723
13947
14181
14412
14590
15017
15400
15885
16431
16842
17147
17180
17631
17851
17706
17441
16993
16055
15040
13861
12795
11966
11498
11241
11009
10881
10867
10926
11011
11234
11219
11348
11515
11610
11453
11567
11468
11614
11703
11633
11572
11788
11749
11756
11826
11858
11970
11950
11914
12081
12647
12962
13101
12791
12880
12986
12781
12473
12393
12346
12325
12364
12101
12718
15819
20824
24315
12729
6698
9017
10647
11892
12441
12828
13111
13504
13444
13743
13915
14168
14361
14500
14765
14973
15338
15655
16076
16696
17233
17533
17681
17697
17652
17545
17117
16260
15209
14209
13289
12376
11743
11301
11219
11247
11233
11060
11113
11285
11388
11552
11697
11784
11778
11888
11810
11874
11822
11751
11694
11964
12037
12022
12149
12011
11998
12004
12407
12915
13234
13169
13049
13043
12982
12624
12521
12347
12358
12403
12271
12340
14846
19216
24784
22320
9617
7747
9644
10748
11923
12874
13134
13369
13560
13769
13930
14061
14178
14264
14423
14897
15222
15558
15690
16251
17032
17580
17679
17816
17826
17561
17226
16624
15716
14566
13442
12610
11964
11291
11232
11243
11258
11163
11181
11349
11500
11527
11558
11582
11691
11800
11786
11771
11725
12013
12038
12053
12084
12160
12069
12174
12133
12306
12520
12951
12998
12997
12961
12717
12461
12451
12279
12057
12424
12233
12236
13834
17640
23318
24409
12656
7126
9101
10454
11639
12700
13161
13389
13464
13599
13821
13943
14082
14360
14516
14820
15096
15306
15668
16171
16685
17068
17558
17674
17870
17652
17282
16899
15991
14895
13754
12769
12026
11526
11288
11136
11216
11147
11157
11248
11168
11403
11474
11649
11793
11754
11753
11785
11771
11822
11939
12025
12115
12087
11988
11881
12086
12431
12864
13060
13080
13013
12966
12679
12650
12408
12232
12263
12359
12128
12526
15074
19735
25003
20270
8081
7928
9633
11037
12276
12970
13196
13257
13419
13618
13819
13940
14199
14244
14569
14828
15088
15457
15861
16395
16709
17231
17603
17684
17655
17535
17113
16505
15601
14594
13463
12457
11727
11471
11222
10995
11011
11185
11227
11206
11225
11465
11683
11670
11666
11711
11793
11654
11801
11939
11972
11835
11705
11797
11983
12348
12796
12994
12807
12575
12595
12417
12287
12254
12122
12114
12118
11985
12732
16085
21338
25492
16767
6910
8282
9884
11358
12411
12768
13162
13379
13427
13507
13729
13983
14132
14405
14856
15089
15222
15444
15840
16508
16946
17306
17357
17565
17624
17348
16766
16169
15207
14090
13015
12113
11671
11391
11116
11017
11042
11202
11376
11396
11558
11565
11584
11638
11776
11838
11817
11819
11816
11893
11821
11877
12006
12384
12578
12995
13080
12944
12724
12456
12343
12122
12006
11997
12108
12082
11967
15006
20044
25119
19313
7377
7948
9769
11141
12034
12826
13159
13338
13374
13604
13722
13856
13928
14191
14470
14678
14959
15477
15940
16307
16838
17188
17365
17430
17436
17176
16806
16154
15228
14141
13232
12348
11827
11438
11346
11147
11186
11175
11164
11268
11493
11632
11497
11696
11832
11816
11909
12087
12073
12187
12077
11940
11997
12367
12751
12975
13050
12830
12825
12740
12572
12335
12153
12102
12231
12148
12142
13472
17439
24973
21229
8476
7818
9616
11155
12290
12903
13075
13291
13553
13707
13864
13983
14073
14270
14562
14838
15241
15541
15943
16320
16688
17037
17608
17826
17784
17463
17032
16435
15577
14452
13416
12470
11765
11514
11227
11138
11129
11259
11192
11341
11471
11557
11733
11819
11807
11876
11915
11878
11778
11830
11901
11924
12002
11997
12509
12765
12984
13076
12955
12723
12540
12413
12444
12234
12235
12321
12203
12036
13864
18185
23429
24145
8334
8479
9751
11147
12208
12747
13003
13368
13449
13392
13259
13561
13893
14132
14245
14529
14860
15383
15892
16268
16666
17161
17477
17668
17543
17295
17090
16256
15271
14130
13087
12052
11389
10964
11058
11145
11402
11495
11560
11515
11590
11718
11717
11605
11583
11905
11931
11970
12126
12393
12095
12043
11950
12256
12587
12861
13009
12809
12503
12631
12698
12662
12391
12080
12115
12163
11808
12270
16158
21884
25852
16669
7489
8916
10685
11863
12661
12954
13262
13604
13708
13875
13973
14021
14178
14433
14564
15152
15581
15662
16266
17107
17356
17502
17534
17421
17163
16907
16420
15573
14261
13424
12651
11920
11385
11085
10935
11119
11258
11249
11521
11609
11817
11714
11727
11759
11805
11863
11934
12085
12078
12075
12059
11983
11834
11968
12352
12816
13000
13134
13095
13062
12715
12526
12359
12354
12431
12360
11920
12165
15183
20000
25473
20847
7973
7941
10026
11853
12570
12969
13183
13304
13381
13555
13821
13887
13918
14303
14632
14841
15212
15618
16020
16351
16857
17113
17213
17270
17164
17007
16556
16005
15000
13991
12930
12147
11590
11313
11057
11001
11094
11100
11147
11335
11467
11604
11538
11482
11614
11644
11578
11478
11592
11670
11761
11769
11706
11581
11714
12088
12495
12742
12690
12720
12700
12352
12121
11973
12012
12103
11996
11882
12163
14977
19795
25293
20296
7501
7564
9697
11258
12416
12702
13089
13367
13392
13399
13713
13987
14190
14372
14482
14773
15123
15515
15864
16425
16761
17094
17244
17225
17205
17126
16649
15862
14826
13765
12870
12086
11560
11048
11062
11058
11087
11070
11083
11138
11436
11416
11571
11695
11627
11645
11737
11703
11534
11698
11859
11882
11752
11656
11546
11994
12426
12759
12847
12908
12775
12702
12585
12406
12116
12308
12396
12216
12028
13442
17333
22852
25170
13536
6934
9074
10454
12081
