12441
13303
13499
13649
13810
13954
14159
14266
14523
14683
15013
15360
15802
16214
16673
17160
17613
17896
17981
17966
17749
17291
16444
15344
14139
13046
12071
11501
11169
11077
10996
11038
11083
11206
11228
11324
11451
11538
11607
11626
11707
11742
11790
11790
11852
11817
11861
11831
11910
11907
11960
11938
11964
12109
12126
12017
11964
12353
12789
13071
13160
13134
13083
12992
12801
12700
12511
12512
12509
12348
11838
13028
16978
22374
13001
13255
13413
13584
13734
13911
14077
14210
14422
14603
14917
15129
15493
15834
16336
16765
17269
17703
17961
18016
17960
17725
17181
16298
15193
14000
12887
12061
11492
11233
11034
10998
10991
11128
11187
11289
11350
11441
11493
11596
11663
11725
11785
11771
11864
11821
11878
11889
11924
11881
11919
11916
11981
12022
12100
12021
12109
12170
12038
11934
12293
12783
13087
13229
13164
13157
13065
12925
12712
12579
12526
12593
12465
8397
10006
11097
12193
12909
13221
13409
13591
13733
13902
14047
14193
14325
14563
14741
15084
15395
15809
16175
16718
17219
17644
17940
18058
17956
17733
17287
16517
15473
14270
13168
12198
11623
11244
11099
11016
11041
11074
11221
11335
11415
11465
11607
11665
11649
11698
11710
11775
11760
11819
11808
11815
11779
11840
11829
11892
11953
11952
11991
12050
12106
12141
12187
12149
12089
12410
12877
13153
13295
13220
13238
13123
12971
14385
18907
24390
22389
9548
8680
10184
11180
12353
13074
13326
13474
13662
13767
13967
14069
14241
14368
14607
14846
15146
15437
15836
16231
16748
17221
17581
17881
17974
17918
17671
17262
16458
15446
14245
13129
12179
11641
11268
11160
11014
11021
11092
11192
11249
11334
11434
11510
11577
11555
11672
11733
11778
11763
11825
11804
11858
11801
11852
11874
11937
12002
11965
11927
11929
12265
12653
12941
13092
13078
12968
12880
12666
12503
19779
24474
19293
7872
8931
10437
11156
12097
12827
13223
13407
13565
13716
13858
14012
14147
14446
14633
14869
15180
15550
15919
16407
16830
17280
17670
17897
17929
17818
17547
16894
15884
14703
13540
12501
11825
11383
11158
11002
10972
10944
11043
11159
11275
11350
11480
11596
11697
11747
11783
11807
11823
11882
11864
11938
11957
11964
11926
12016
11964
11932
11826
12154
12651
12994
13066
13059
13043
12916
12756
12498
12384
12362
20166
8167
9105
10302
11296
12217
12929
13207
13355
13494
13732
13902
14051
14183
14347
14585
14811
15119
15424
15862
16312
16830
17299
17711
17927
18028
17881
17583
16945
16038
14830
13578
12547
11808
11388
11164
11090
10995
11004
11029
11166
11252
11492
11506
11582
11636
11730
11750
11802
11840
11895
11851
11844
11872
11796
11893
11876
11863
11716
12025
12519
12916
13017
12996
12895
12896
12706
12522
12296
12283
12373
12269
11833
9909
10967
12036
12785
13061
13285
13412
13642
13772
13929
14061
14281
14472
14717
14994
15275
15666
16124
16650
17184
17578
17844
17986
17858
17625
17109
16273
15111
13900
12780
11976
11455
11204
11053
11014
11037
11120
11239
11283
11400
11402
11476
11541
11671
11655
11725
11714
11770
11803
11791
11748
11754
11863
11851
11771
11695
12029
12571
12971
13019
12973
12858
12801
12589
12425
12239
12263
12227
12133
11580
12820
16950
22304
25309
13758
13925
14091
14299
14458
14719
15003
15357
15702
16067
16582
17086
17575
17845
18011
17948
17808
17307
16604
15531
14362
13206
12259
11596
11231
11041
10963
10936
10982
11101
11219
11348
11400
11471
11464
11553
11495
11622
11668
11720
11691
11696
11705
11688
11800
11754
11666
11599
11911
12361
12670
12860
12819
12687
12638
12431
12359
12199
12219
12272
12192
11809
12763
16471
21328
24767
15587
7252
9457
10283
11347
12361
12873
14294
14448
14688
14959
15325
15680
16182
16681
17159
17559
17886
17930
17801
17559
17030
16195
15104
13879
12780
12011
11525
11302
11149
11098
11072
11106
11226
11378
11475
11542
11600
11688
11797
11836
11938
11906
11974
11893
11912
11973
11996
11855
11815
11935
12342
12712
12933
12976
12890
12834
12668
12560
12309
12276
12278
12349
12000
11865
14212
18737
23861
22303
9716
8170
9967
10717
11814
12634
13052
13276
13426
13600
13668
13729
15933
16387
16901
17347
17712
17827
17819
17631
17295
16532
15553
14396
13197
12281
11578
11192
10979
10942
10877
11025
11082
11147
11252
11433
11487
11518
11609
11734
11683
11746
11876
11867
11831
11843
11951
11941
11931
11795
12227
12727
13007
13045
13001
12896
12778
12637
12739
12447
12303
12214
12084
11696
12146
15432
20077
24811
18308
7500
8867
10058
11162
12152
12782
13122
13278
13436
13618
13872
14005
14130
14354
14563
14802
17775
17888
17814
17644
17175
16368
15221
14053
12929
12087
11476
11202
11075
11056
11089
11170
11247
11313
11468
11482
11579
11625
11721
11754
11825
11823
11818
11774
11836
11781
11837
11940
11918
11808
11794
12212
12664
12887
12903
12895
12862
12722
12518
12318
12205
12352
12378
12101
11720
13707
18102
23562
23520
10779
8127
9860
10778
12076
12959
13182
13348
13418
13654
13748
13907
14063
14263
14413
14732
15003
15306
15690
16166
16652
16806
15784
14547
13430
12455
11780
11336
11233
11141
11147
11134
11237
11301
11363
11404
11530
11573
11638
11732
11767
11795
11820
11851
11795
11833
11845
11896
11821
11931
11853
11827
11760
12147
12655
12917
12971
12915
12882
12766
12674
12497
12380
12320
12388
12176
11779
13063
17097
22174
24525
13409
7532
9763
10503
11617
12498
13008
13213
13415
13546
13716
13845
14035
14219
14415
14570
14884
15168
15548
15969
16500
16991
17422
14843
13638
12604
11849
11422
11187
11072
11053
11118
11131
11263
11350
11444
11527
11655
11679
11718
11732
11774
11815
11830
11841
11836
11811
11768
11856
11847
11806
11699
11960
12370
12730
12839
12876
12839
12762
12608
12472
12299
12220
12303
12203
11776
12478
16019
20799
24691
16389
7615
9578
10599
11429
12318
12956
13224
13366
13546
13703
13831
14010
14153
14406
14577
14854
15115
15526
15896
16335
16789
17301
17581
17728
17658
12002
11483
11232
11085
11038
11081
11160
11268
11349
11467
11560
11689
11733
11783
11815
11870
11878
11945
11893
11894
11893
11913
11925
12032
11981
11858
11880
12276
12777
13008
13064
12945
12945
12775
12631
12416
12374
12402
12433
12124
11812
13760
18007
23399
22964
10555
8255
10200
10966
11968
12762
13173
13298
13513
13655
13827
13982
14183
14354
14560
14784
15047
15373
15686
16149
16605
17107
17495
17766
17826
17807
17557
17096
16144
11193
11111
11178
11255
11339
11445
11551
11649
11683
11763
11810
11903
11922
11983
11937
11974
11899
11934
11936
11999
11973
12068
12083
12049
11909
12200
12708
13026
13149
13104
13100
12980
12827
12667
12552
12460
12511
12373
11862
12539
16237
21360
25452
15820
7951
9803
10610
11706
12580
13067
13309
13537
13688
13892
13965
14124
14250
14465
14658
14893
15195
15533
15938
16436
16894
17339
17723
17852
17913
17753
17412
16664
15672
11003
11023
11052
11192
11289
11420
11493
11581
11627
11673
11703
11703
11725
11788
11850
11828
11796
11899
11979
11807
11894
11925
12012
12094
12064
11910
12065
12532
12935
13138
13109
13117
13086
12966
12794
12626
12506
12541
12469
12096
12105
15121
19817
25247
19873
8394
9325
10384
11444
12280
12925
13210
13423
13565
13759
13916
14069
14184
14408
14564
14788
15020
15400
15771
16270
16701
17155
17615
17823
17862
17751
17482
16929
16100
11093
11119
11153
11235
11268
11460
11525
11675
11619
11557
11549
11634
11653
11677
11713
11719
11742
11700
11742
11755
11804
11852
11953
11924
12031
11935
11831
11952
12470
12862
13106
13073
13031
13017
12870
12750
12471
12406
12390
12413
12030
11960
14594
19139
24706
21090
8641
8924
10243
11334
12310
12978
13251
13439
13618
13730
13919
14025
14196
14371
14646
14893
15173
15455
15863
16262
16776
17197
17589
17858
17919
17838
17585
11333
11111
11044
11062
11150
11197
11348
11427
11513
11565
11668
11685
11741
11710
11753
11763
11796
11813
11809
11844
11822
11902
11913
11953
11969
12061
12043
12032
11957
12387
12787
13048
13149
13132
13081
12926
12775
12619
12496
12437
12504
12165
11920
14112
18585
23832
22629
9882
8485
10246
10987
12037
12829
13207
13406
13577
13741
13924
14048
14238
14369
14606
14819
15090
15397
15818
16188
16685
17120
17528
17742
17848
17782
11811
11405
11174
11118
11098
11164
11184
11348
11407
11522
11577
11676
11681
11770
11828
11929
11912
11907
11911
11927
11983
11952
11951
11940
11977
11977
11931
11821
11971
12385
12824
13023
13056
13017
12975
12784
12633
12449
12371
12383
12315
11960
12317
15491
20162
25082
18275
7744
9336
10492
11463
12428
13021
13295
13453
13644
13783
13947
14126
14295
14535
14702
14851
15150
15548
15872
16353
16840
17295
17631
17884
17855
17709
17344
11304
11090
11064
11069
11156
11289
11405
11521
11565
11662
11677
11703
11721
11816
11798
11833
11827
11852
11886
11900
11904
11952
11974
12004
12090
12077
12046
11943
12363
12827
13163
13213
13197
13119
13005
12793
12716
12547
12541
12534
12253
11867
13793
18061
23530
23438
10472
8430
10173
11169
12149
12885
13178
13418
13549
13685
13839
14020
14149
14327
14551
14785
15052
15317
15688
16128
16621
17080
17544
17779
17875
17806
17580
11374
11201
11100
11088
11068
11180
11245
11301
11368
11461
11502
11507
11610
11564
11667
11639
11716
11687
11784
11740
11781
11772
11800
11831
11993
11929
11822
11920
12356
12840
12954
13025
12977
13045
12849
12587
12381
12377
12341
12367
11962
12186
15199
20019
25235
19176
7849
9247
10428
11578
12426
12903
13177
13294
13513
13683
13919
14021
14169
14335
14588
14824
15178
15517
15878
16319
16781
17248
17660
17879
17912
17820
17389
16822
11095
11052
10966
11061
11167
11283
11346
11481
11550
11615
11680
11669
11713
11711
11761
11759
11756
11766
11824
11787
11857
11905
11974
12010
12013
11855
11842
12294
12753
13045
13141
13124
13056
12921
12730
12614
12439
12528
12507
12214
11901
14143
18600
24169
22819
9603
8405
10157
11184
12127
12847
13140
13366
13495
13717
13869
14108
14182
14410
14607
14868
15121
15454
15816
16280
16764
17259
17644
17892
17966
17860
17638
17104
11177
10975
10993
10997
11163
11300
11441
11507
11599
11652
11707
11687
11753
11778
11789
11793
11801
11846
11820
11874
11859
11872
11911
11960
11891
11808
12069
12606
12923
13086
13107
13039
12899
12749
12602
12438
12423
12408
12295
11851
13079
17011
22284
25156
13848
7601
9812
10679
11825
12667
13054
13254
13425
13625
13790
13975
14109
14310
14517
14754
15000
15334
15633
16087
16568
17073
17499
17849
17976
17919
17738
17331
16577
11033
10950
10939
11061
11164
11293
11382
11515
11550
11637
11645
11694
11661
11683
11727
11779
11778
11792
11834
11851
11891
11900
11840
11715
11857
12269
12703
12899
12920
12827
12807
12645
12528
12334
12283
12343
12329
11922
12413
15845
20791
25173
17625
7504
9347
10497
11423
12357
12903
13180
13316
13484
13657
13837
13992
14152
14396
14650
14868
15124
15511
15938
16422
16850
17376
17681
17862
17791
17693
17349
16653
15615
14455
13291
11011
11132
11264
11342
11433
11557
11626
11703
11757
11848
11849
11843
11858
11897
11898
11909
11921
11967
12042
12038
12005
11886
12260
12703
13009
13090
13073
13036
12939
12720
12570
12431
12461
12446
12199
11816
13747
18130
23674
24024
11077
8371
10181
11060
11973
12800
13111
13371
13503
13725
13829
13982
14101
14316
14534
14769
15067
15354
15727
16158
16693
17151
17577
17837
17948
17811
17633
17073
16183
15012
13887
12788
11991
11178
11312
11393
11496
11591
11671
11744
11778
11808
11811
11846
11826
11843
11835
11883
11916
12292
12305
12227
12122
12007
11869
12128
12581
12926
13124
13035
13064
13000
12853
12624
12475
12409
12469
12394
11928
12607
16355
21742
25832
16040
7761
9698
10607
11760
12615
13104
13264
13451
13596
13766
13896
14120
14245
14436
14610
14946
15197
15583
15974
16515
17043
17503
17837
18005
18074
17869
17537
16779
15788
14510
13340
12330
11680
11246
11338
11431
11526
11570
11630
11643
11667
11727
11737
11810
11796
11829
11814
11876
11862
11899
11963
12058
12072
12141
12119
12208
12190
12050
12001
12434
12872
13120
13219
13146
13128
12990
12830
12621
12567
12541
12586
12251
11961
14038
18543
24253
23585
10411
8582
10257
11156
12174
12908
13257
13380
13543
13671
13899
14086
14273
14387
14638
14872
15130
15449
15797
16220
16699
17242
17677
17996
18097
18057
17832
17422
16574
10991
10928
10933
10970
11130
11252
11365
11467
11560
11607
11663
11715
11745
11758
11750
11769
11762
11800
11807
11858
11866
11902
11891
11969
11964
12068
12118
12172
12219
12213
12283
12219
12136
12230
12671
13054
13287
13254
13307
13251
13131
12923
12742
12636
12648
12635
12293
12128
14659
19436
24830
22408
9638
8918
10492
11311
12288
13064
13348
13539
13653
13830
13958
14101
14265
14444
14613
14849
15157
15448
15828
16242
16745
16950
15967
14758
13580
12502
11786
11328
11163
11033
10978
10994
11066
11175
11299
11392
11451
11550
11629
11716
11704
11766
11797
11893
11877
11868
11872
11887
11880
11917
11938
12007
12034
12060
12084
12123
12106
12038
12021
12382
12866
13102
13212
13157
13170
13046
12890
12686
12574
12561
12574
12301
11905
14038
18527
24166
23544
10569
8560
10326
11128
12160
12866
13246
13427
13629
13764
13939
14056
14256
14427
14612
14806
15043
15372
18129
17990
17663
17037
15987
14785
13532
12487
11685
11241
10989
10904
10864
10884
10923
11009
11158
11258
11345
11422
11541
11588
11675
11688
11767
11772
11818
11804
11872
11849
11895
11886
11946
12004
12011
12043
12066
12122
12120
12206
12224
12160
12056
12436
12831
13178
13329
13335
13298
13262
13054
12866
12694
12676
12665
12482
12016
13024
16967
22384
25637
14982
8077
9965
10803
11897
12792
13237
13444
13572
13760
13926
14027
15790
16230
16747
17249
17711
18033
18221
18167
18040
17578
16783
15605
14401
13170
12301
11641
11329
11119
11051
11047
11079
11180
11311
11402
11489
11552
11600
11712
11698
11745
11761
11824
11825
11847
11837
11897
11883
11902
11950
11973
12021
12028
12105
12133
12258
12210
12130
11997
12414
12809
13162
13258
13273
13222
13171
12962
12790
12631
12578
12655
12487
12016
13147
17156
22639
25460
14026
8054
9952
10825
11976
12839
13217
14463
14621
14884
15162
15504
15910
16262
16766
17246
17766
18081
18208
18163
17973
17483
16644
15481
14245
13034
12102
11489
11127
10995
10956
11005
11071
11177
11204
11305
11408
11533
11548
11637
11606
11723
11712
11784
11802
11839
11747
11749
11733
11836
11936
11964
12057
12046
12131
12115
12142
12170
12109
12047
12465
12946
13208
13281
13248
13192
13075
12975
12788
12609
12619
12619
12325
11918
13836
18184
23716
24435
11749
8278
10100
13792
13926
14060
14257
14426
14631
14917
15196
15549
15932
16421
16910
17458
17893
18149
18193
18113
17929
17424
16500
15269
13973
12886
12042
11497
11244
11119
10995
10969
11039
11112
11260
11314
11453
11507
11567
11595
11689
11755
11729
11725
11801
11772
11721
11817
11795
11873
11882
11933
11925
12042
11957
11918
12063
12458
12756
13042
13102
13056
13060
12809
12725
12462
12442
12479
12559
11962
12567
16033
21037
25489
17520
7696
13600
13739
13916
14040
14219
14432
14592
14798
15028
15419
15698
16207
16667
17241
17641
18029
18086
18137
17866
17454
16704
15628
14366
13104
12186
11576
11196
10970
10920
10883
11048
11078
11208
11241
11391
11413
11534
11577
11684
11721
11745
11777
11728
11770
11812
11843
11915
11918
11923
11952
12016
11986
11964
12112
12517
12856
13136
13079
13068
13012
12840
12640
12504
12463
12517
12440
11909
12430
15889
20924
25740
18047
7723
13454
13569
13737
13878
14058
14257
14489
14690
14962
15238
15661
16088
16579
17129
17539
17912
18060
18058
17885
17479
16664
15611
14362
13218
12198
11574
11181
11038
10931
10964
11006
11098
11224
11312
11416
11498
11525
11555
11647
11657
11722
11693
11730
11699
11734
11722
11762
11815
11899
11944
11980
12058
12034
11920
12030
12499
12887
13119
13133
13141
13095
12951
12762
12598
12529
12559
12534
12097
12071
14875
19695
25238
20687
13249
13449
13591
13756
13909
14135
14263
14459
14637
14938
15230
15641
16026
16578
17137
17603
17959
18204
18231
18075
17734
17062
16050
14733
13586
12531
11856
11302
11076
10957
10966
10968
11057
11193
11261
11353
11438
11533
11549
11581
11595
11695
11706
11746
11754
11784
11786
11890
11876
11857
11885
11946
11937
11892
11838
12183
12641
12906
13049
12971
12926
12840
12695
12518
12454
12391
12436
12193
11857
13520
17824
23113
24247
12154
13415
13582
13694
13882
14059
14234
14376
14626
14815
15156
15431
15844
16308
16840
17318
17685
17887
17958
17905
17641
17093
16130
15018
13801
12743
11898
11452
11126
11040
10931
10992
11050
11170
11247
11365
11448
11517
11586
11661
11689
11675
11698
11707
11761
11753
11772
11761
11842
11851
11991
11914
11860
11845
12203
12659
12911
12955
12862
12912
12757
12664
12488
12430
12384
12413
12099
11902
14255
18770
24086
22178
9388
8518
13714
13860
14006
14134
14253
14411
14649
14908
15223
15526
15967
16401
16933
17359
17676
17857
17934
17821
17556
16878
15824
14627
13513
12546
11855
11419
11101
11060
11021
11056
11069
11206
11288
11432
11485
11569
11642
11721
11756
11763
11817
11762
11788
11783
11831
11839
11899
11857
11931
11919
11902
11799
12150
12584
12922
13035
13015
12980
12938
12756
12578
12467
12407
12470
12306
11847
12777
16603
21798
25447
15168
7741
9781
13705
13845
13981
14162
14346
14561
14760
14990
15306
15698
16097
16586
17036
17521
17821
17967
17920
17746
17247
16456
15312
14154
13051
12209
11645
11315
11178
11129
11150
11140
11267
11308
11423
11477
11598
11602
11666
11643
11750
11802
11823
11805
11786
11808
11812
11829
11842
11931
11910
11980
11892
11849
11949
12492
12866
13094
13080
13040
12966
12815
12676
12483
12411
12434
12444
11996
12066
14990
19795
25280
20235
8200
9095
10252
13752
13848
14079
14203
14416
14637
14900
15159
15502
15950
16424
16997
17419
17754
17924
17956
17763
17444
16746
15737
14498
13346
12369
11650
11208
11034
10939
10930
11026
11080
11166
11229
11316
11342
11466
11486
11555
11560
11624
11620
11691
11694
11724
11721
11721
11765
11802
11850
11839
11949
12005
12062
11954
11855
12202
12639
12912
13059
13052
13038
12943
12764
12633
12484
12500
12522
12371
11875
13080
17068
22474
25316
14131
13323
13555
13738
13923
14049
14221
14337
14575
14809
15099
15422
15783
16266
16824
17338
17702
17970
18005
17980
17750
17328
16495
15381
14167
13061
12174
11571
11253
11073
11016
11007
11106
11159
11259
11309
11426
11518
11609
11638
11710
11694
11703
11686
11719
11728
11762
11778
11805
11824
11844
11862
11927
11991
11924
11852
12085
12559
12808
13013
12977
12988
12894
12745
12585
12447
12431
12432
12282
11848
12850
16635
21786
25169
13143
13331
13530
13652
13822
13932
14139
14347
14537
14707
15008
15363
15784
16204
16652
17182
17642
17949
17988
17936
17695
17219
16378
15293
14063
12995
12105
11564
11222
11082
11017
11021
11101
11192
11284
11369
11507
11594
11670
11715
11783
11784
11840
11819
11855
11843
11855
11872
11893
11947
11996
12004
11981
12075
11992
11918
11913
12379
12790
13081
13054
13042
13014
12909
12743
12575
12477
12506
12510
12136
11849
14146
18699
12565
13081
13267
13469
13594
13802
13962
14126
14299
14506
14718
15023
15250
15538
15919
16377
16860
17314
17696
17920
17973
17802
17530
16911
15959
14790
13621
12560
11838
11385
11183
11044
11009
11030
11096
11196
11279
11409
11485
11571
11580
11668
11713
11779
11733
11779
11773
11836
11810
11857
11860
11901
11941
11977
12013
12031
12095
12154
12116
11940
12123
12537
12962
13109
13171
13149
13180
12963
12784
12569
12545
12576
12581
12453
12956
13179
13317
13586
13760
13897
14047
14214
14413
14602
14827
15063
15375
15761
16259
16749
17234
17614
17895
17952
17863
17620
17127
16242
15122
13966
12897
12048
11507
11251
11096
11078
11113
11196
11264
11364
11430
11574
11609
11705
11660
11714
11736
11780
11790
11787
11835
11840
11822
11840
11931
11915
11960
11980
12034
12083
12084
11959
11991
12377
12771
13055
13112
13111
13097
12943
12770
12602
12445
12508
12480
12221
11835
10486
11527
12475
12996
13222
13417
13652
13780
13929
14067
14231
14438
14646
14913
15192
15552
15922
16384
16860
17400
17772
18075
18122
18020
17715
17177
16208
15033
13831
12735
11972
11450
11180
11006
10955
10957
11072
11185
11293
11309
11422
11453
11553
11607
11673
11673
11703
11721
11697
11709
11756
11830
11822
11878
11865
11912
11934
12074
12022
11990
11883
12230
12647
12972
13099
13031
13057
12955
12827
12659
12510
12445
12527
8597
8818
10292
11186
12157
12919
13224
13394
13483
13663
13818
14028
14190
14357
14521
14777
15142
15467
15877
16256
16812
17272
17705
17984
18098
17998
17788
17272
16381
15191
14009
12905
12084
11540
11183
11084
10978
10975
10968
11128
11196
11342
11407
11582
11607
11699
11743
11777
11794
11856
11843
11843
11846
11840
11841
11856
11913
11987
11946
11888
11911
12217
12658
12925
13047
12983
12960
12894
12759
12613
12474
12401
12349
8074
9153
10476
11348
12263
12911
13255
13425
13622
13740
13916
14056
14267
14446
14672
14975
15272
15581
15936
16383
16895
17395
17716
17965
18012
17930
17550
16945
15940
14820
13606
12571
11794
11313
11049
11003
10975
10974
11058
11129
11240
11354
11493
11578
11644
11636
11728
11732
11772
11829
11886
11852
11872
11891
11916
11905
11908
12077
12009
11898
12016
12428
12782
13054
13053
13036
13002
12986
12814
12606
12486
12474
12528
12153
9786
10642
11695
12575
13071
13266
13449
13560
13748
13933
14108
14219
14433
14621
14910
15189
15564
16005
16501
17003
17486
17917
18099
18133
17914
17562
16865
15837
14544
13377
12350
11695
11244
11043
10963
10956
10921
11020
11149
11244
11374
11429
11529
11598
11688
11691
11769
11799
11836
11830
11866
11835
11877
11900
11936
11981
12033
12056
12048
12108
12179
12159
11986
12208
12594
13002
13163
13217
13166
13135
12958
12814
12644
22900
25417
13721
8095
9995
10860
11907
12812
13189
13376
13538
13759
13877
14010
14141
14344
14521
14734
14957
15267
15643
16045
16509
17028
17538
17883
18108
18100
17942
17542
16906
15837
14663
13445
12467
11750
11374
11109
11046
11014
11040
11094
11216
11363
11440
11478
11482
11617
11587
11635
11656
11729
11748
11754
11751
11821
11827
11831
11841
11886
11942
11941
11991
12009
12146
12135
12166
12158
12286
12310
12200
12115
12518
12967
12782
12628
12678
12687
12279
12025
14391
19069
24849
22911
9876
8916
10271
11251
12247
12953
13256
13486
13650
13824
13967
14119
14249
14449
14657
14852
15120
15436
15808
16223
16702
17205
17707
17994
18148
18071
17867
17447
16717
15632
14396
13236
12333
11719
11314
11136
11007
10993
11015
11095
11185
11360
11379
11462
11555
11647
11645
11695
11703
11776
11795
11785
11804
11790
11831
11836
11854
11789
11866
11920
12019
12046
12088
12193
12438
12862
13255
13307
13335
13343
13327
13106
12925
12778
12648
12689
12693
12290
12194
14956
19787
25234
21840
9300
9079
10492
11292
12301
13037
13365
13533
13710
13860
13982
14137
14301
14503
14645
14897
15131
15455
15836
16310
16784
17292
17692
17973
18041
18011
17818
17379
16553
15400
14220
13034
12165
11560
11256
11080
11030
10988
11034
11109
11259
11356
11427
11498
11526
11622
11723
11778
11784
11860
11838
11868
11818
12160
12088
12148
12157
12228
12220
12224
12114
12375
12771
13058
13196
13207
13221
13174
13042
12900
12741
12660
12732
12648
12143
12182
15292
20307
25690
20196
8415
9336
10479
11475
12413
13079
13316
13473
13627
13817
13940
14063
14199
14438
14722
14925
15141
15460
15852
16306
16778
17325
17841
18136
18232
18130
17880
17292
16362
15136
13934
12788
11923
11422
11160
10987
10955
10953
10987
11093
11168
11274
11355
11428
11462
11570
11626
11885
11905
11933
11938
11969
11994
12042
12028
12092
12168
12219
12225
12262
12214
12120
12502
12871
13160
13262
13266
13250
13205
12962
12826
12671
12748
12701
12496
11935
12774
16582
22015
25835
16105
8070
9902
10727
11800
12736
13188
13469
13586
13746
13886
14054
14179
14342
14518
14747
14985
15257
15609
15985
16512
16952
17479
17870
18093
18145
18060
17757
17186
16201
15049
13750
12665
11868
11368
11092
10982
10970
10958
11035
11578
11703
11733
11760
11779
11843
11837
11857
11849
11931
11958
12022
12004
12040
12033
12077
12146
12184
12207
12268
12351
12170
12098
12363
12803
13102
13279
13219
13253
13154
13004
12820
12684
12641
12667
12542
12003
12508
16070
21392
25941
17745
8010
9681
10540
11726
12616
13142
13338
13526
13658
13852
13977
14094
14241
14468
14743
14959
15229
15542
15991
16433
16948
17427
17918
18159
18296
18193
17908
17307
16361
15181
13923
10958
11005
11114
11211
11282
11349
11468
11525
11582
11592
11664
11692
11733
11711
11775
11752
11769
11776
11851
11906
11906
11954
11992
12041
12067
12125
12139
12229
12241
12286
12342
12395
12295
12298
12635
13058
13323
13395
13394
13367
13340
13160
12991
12812
12849
12829
12542
12071
13666
17905
23474
24987
13025
8295
10212
10963
12056
12853
13294
13456
13575
13767
13860
14065
14226
14375
14559
14759
14962
15254
15580
16003
16465
17042
16685
15552
14282
13115
12139
11536
11223
11012
10945
10908
10983
11003
11133
11189
11336
11396
11476
11472
11590
11638
11689
11719
11769
11747
11747
11761
11753
11794
11792
11846
11849
11904
11949
12049
12066
12202
12102
12002
12078
12497
12857
13064
13102
13067
13065
12910
12769
12583
12542
12551
12624
12259
12003
14316
18870
24329
22528
9801
8650
10488
11185
12153
12947
13285
13453
13670
13795
13924
14055
14237
14383
14645
14839
17970
18216
18309
18172
17862
17247
16207
14964
13708
12599
11816
11357
11057
11009
10936
10962
10947
11041
11114
11217
11297
11400
11479
11580
11645
11706
11785
11781
11848
11844
11869
11846
11933
11912
11974
11957
11978
12003
12122
12103
12133
12229
12220
12097
12159
12599
12950
13222
13261
13307
13243
13099
12919
12743
12587
12638
12642
12271
11965
14406
19061
24828
22615
9695
8902
10346
11277
12248
12983
13249
13497
13650
13793
13900
15657
15998
16455
16996
17548
17937
18196
18286
18204
17895
17339
16383
15200
13924
12763
12018
11487
11229
11051
11038
11025
11119
11199
11295
11366
11459
11489
11600
11685
11724
11762
11747
11798
11836
11822
11813
11892
11905
11934
11954
12051
12080
12085
12118
12186
12209
12220
12310
12305
12259
12194
12615
12960
13230
13295
13357
13308
13217
12971
12813
12685
12654
12661
12448
11982
13692
17988
23626
24628
12039
8256
10059
10970
13877
14043
14178
14389
14553
14823
15080
15463
15819
16263
16728
17285
17743
18016
18112
18023
17798
17320
16490
15358
14156
12984
12076
11438
11146
10980
10896
10858
10958
11051
11183
11242
11305
11396
11463
11542
11579
11650
11666
11750
11742
11795
11780
11787
11778
11842
11837
11905
11952
12025
12115
12111
12193
12235
12283
12299
12409
12311
12193
12385
12860
13180
13402
13390
13429
13340
13185
13027
12827
12737
12731
12683
12211
10107
10826
11958
12802
13261
13434
13605
13752
13993
14112
14277
14429
14620
14767
15045
15386
15772
16143
16644
17129
17565
17966
18152
18283
18128
17885
17261
16352
15176
13938
12775
11931
11463
11221
11068
11009
11022
11059
11127
11200
11339
11412
11510
11535
11579
11571
11652
11672
11754
11740
11782
11742
11784
11824
11841
11918
11910
11941
11985
12069
12073
12125
12141
12202
12098
12031
12390
12887
13143
13275
13199
13156
13102
12041
14453
19058
24335
22460
9769
8455
10433
11067
12115
12945
13341
13484
13721
13892
13923
14072
14218
14337
14550
14811
15082
15400
15713
16166
16641
17197
17649
18002
18114
18128
17872
17482
16699
15674
14479
13333
12355
11695
11302
11114
11050
10962
11007
11065
11195
11273
11418
11472
11590
11621
11700
11726
11801
11857
11924
11900
11890
11916
11940
11966
11980
12007
12004
12072
12105
12112
11970
11964
12329
12803
13034
13106
13064
12202
12240
12347
15290
20078
25427
20352
8265
8931
10057
10987
12317
13149
13561
13625
13787
13875
13957
14036
14239
14345
14316
14779
15311
15654
15920
16395
16847
17464
17886
18175
18314
18332
17933
17449
16587
15400
14243
13122
12152
11542
11215
10973
11084
11154
11054
11114
11252
11321
11431
11464
11545
11612
11524
11681
11864
11940
11975
11938
11906
11849
11797
11810
11851
12003
12014
11819
11772
11983
12440
12942
12977
13110
12462
12241
11764
12870
16970
22205
25300
14793
7268
9471
10377
11673
12528
13014
13078
13350
13585
13722
13913
14004
14234
14378
14622
14806
15128
15519
15930
16445
16958
17460
17888
18163
18222
18111
17721
17027
16006
14788
13529
12448
11703
11283
10964
10854
10831
10812
10870
10962
11116
11178
11239
11308
11491
11499
11633
11656
11721
11651
11725
11726
11771
11726
11731
11731
11824
11857
11755
11743
12071
12574
12795
12910
12799
12256
11858
11838
14523
19362
24423
21740
8901
8128
9831
10606
11857
12691
13074
13206
13434
13552
13842
13994
14432
14560
14581
14502
14954
15155
15548
16102
16682
17182
17668
18030
18133
18134
17924
17484
16598
15457
14190
13005
12028
11476
11108
11033
11021
11029
11035
11069
11121
11182
11280
11331
11442
11495
11611
11660
11718
11695
11710
11706
11729
11729
11855
11905
11771
11667
12027
12422
12638
12813
12764
12707
12577
12447
12281
13800
13963
14097
14319
14546
14797
15085
15387
15845
16291
16805
17301
17804
18027
18121
18052
17844
17286
16398
15232
14040
12905
12035
11475
11177
11068
10980
10997
11061
11172
11235
11370
11418
11547
11601
11748
11827
11838
11855
11920
11900
11897
11931
11997
11974
11882
11840
12057
12530
12826
12973
12854
12839
12744
12618
12498
12333
12265
12327
12305
11872
11873
14787
19583
24854
20539
8463
8771
10127
11041
11971
12745
13058
14397
14530
14911
15194
15581
16062
16576
16938
17483
17820
17976
17965
17931
17945
16921
15745
14476
13472
12547
11763
11180
11171
11100
11048
11219
11191
11128
11333
11511
11691
11672
11598
11700
11799
11793
11804
11957
12064
11945
11890
11863
11955
12047
11902
11727
12135
12553
12964
13071
12939
12784
12823
12610
12463
12287
12400
12331
12328
11721
12303
16052
21280
25525
16629
7664
9476
10459
11398
12338
12919
13184
13346
13534
13683
15225
15567
16041
16517
17091
17570
17948
18081
18033
17809
17376
16487
15345
14136
12944
12078
11474
11150
10923
10935
10928
11029
11044
11179
11242
11377
11428
11475
11543
11585
11659
11641
11680
11677
11728
11680
11732
11736
11851
11825
11875
11939
12010
11957
11853
12109
12546
12878
12998
13010
12974
12989
12826
12679
12438
12431
12418
12446
11984
11904
14721
19577
25103
21396
8966
8796
10144
11063
12125
12802
13154
13313
13513
14858
15229
15530
15997
16430
16985
17491
17934
18128
18190
18068
17760
17094
16107
14811
13564
12544
11781
11364
11132
11098
11015
11112
11189
11255
11278
11414
11494
11577
11575
11650
11695
11711
11773
11791
11838
11768
11865
11893
11945
11915
11918
11931
11999
11997
12072
12148
12165
12034
12021
12444
12856
13142
13195
13163
13086
13033
12833
12685
12535
12577
12610
12412
11838
13149
17235
22618
25162
14375
7918
9905
10595
11717
12621
14181
14385
14540
14868
15288
15410
15700
16554
16718
17107
17566
17954
18124
18109
17916
17419
16680
15577
14234
13091
12235
11596
11273
11249
11057
11000
11073
11053
11138
11241
11433
11470
11623
11758
11748
11867
11672
11882
11921
11732
11683
11821
11879
11923
11917
11989
12013
12037
12059
12178
12167
12063
11995
12257
12749
13084
13353
13226
13143
13023
12895
12737
12604
12596
12622
12565
12292
12295
15163
19836
25068
20415
8617
13631
13602
13783
13884
14139
14228
14461
14713
15009
15288
15643
16006
16580
16966
17527
17878
18016
18145
18048
17759
16971
15993
14807
13637
12555
11912
11450
11254
11105
11146
11142
11191
11233
11347
11403
11490
11589
11655
11750
11786
11796
11792
11815
11829
11834
11802
11876
11891
11947
11928
11978
11991
12025
12037
12071
12126
12195
12267
12165
12083
12407
12894
13124
13195
13152
13147
13097
12996
12799
12651
12546
12599
12564
8188
9942
10729
11901
12736
13188
13357
13533
13639
13858
13996
14166
14296
14484
14602
14893
15183
15580
15975
16421
16937
17442
17885
18124
18182
18055
17763
17113
16174
14959
13779
12669
11910
11400
11168
11018
10979
11007
11081
11196
11293
11357
11428
11526
11577
11645
11681
11709
11674
11723
11733
11815
11816
11867
11847
11862
11875
11913
11963
12013
12077
12094
12201
12164
12119
12004
12395
12837
13195
13194
13169
13140
13214
13016
13411
17593
23280
24904
12970
8135
9913
10848
11989
12799
13212
13457
13569
13743
13863
14043
14177
14361
14507
14752
14996
15265
15601
16025
16527
17027
17574
17946
18184
18152
18039
17704
17057
15971
14770
13541
12502
11743
11323
11082
10977
10965
11029
11116
11152
11282
11361
11474
11508
11566
11565
11641
11626
11678
11721
11776
11713
11713
11782
11763
11802
11876
11900
11964
11998
11872
11819
12140
12673
12927
13077
13012
12987
12067
11810
13982
18588
24129
23136
10292
8293
9998
10867
12059
12841
13182
13325
13524
13710
13852
13969
14191
14305
14509
14718
15038
15409
15716
16124
16618
17172
17648
17992
18091
18124
17901
17495
16637
15546
14310
13171
12191
11618
11234
11085
11004
10982
11036
11099
11205
11239
11364
11403
11483
11534
11618
11608
11722
11715
11803
11779
11805
11762
11786
11772
11857
11831
11772
11807
12104
12559
12777
12926
12869
12855
12680
12216
15239
19977
24793
19084
7815
9006
10296
11174
12174
12832
13121
13301
13507
13661
13849
13990
14173
14343
14551
14768
15067
15374
15803
16260
16796
17297
17746
18026
18126
18056
17774
17225
16288
15136
13850
12778
11951
11489
11210
11155
11062
11061
11068
11190
11287
11390
11476
11539
11601
11658
11755
11750
11814
11788
11823
11812
11852
11824
11954
11922
11891
11765
12019
12524
12833
13007
12971
12909
12802
12666
12476
12316
12255
16560
7648
9580
10411
11502
12417
12963
13186
13383
13547
13727
13810
13983
14120
14333
14564
14879
15116
15490
15858
16303
16758
17230
17594
17745
17745
17641
17374
16726
15816
14669
13539
12465
11788
11371
11222
11092
11089
11078
11141
11271
11390
11426
11488
11584
11598
11682
11684
11745
11758
11831
11765
11778
11792
11834
11727
11697
11841
12214
12577
12880
12954
12842
12791
12573
12494
12260
12224
12200
12254
11875
11726
14221
12084
12737
13045
13253
13424
13539
13733
13821
13991
14165
14446
14629
14921
15259
15660
16084
16559
17078
17475
17745
17776
17740
17488
17080
16193
15108
13855
12833
11955
11471
11201
11111
11093
11106
11176
11286
11375
11453
11601
11628
11672
11686
11774
11772
11837
11788
11845
11837
11878
11779
11753
11921
12298
12616
12850
12942
12850
12806
12608
12469
12262
12268
12246
12302
11895
12026
14981
19649
24948
19722
8035
9064
10279
11331
13842
13983
14156
14329
14607
14855
15237
15536
15922
16359
16893
17247
17577
17659
17672
17485
17163
16454
15407
14304
13208
12307
11636
11318
11085
11047
11024
11132
11176
11334
11396
11511
11534
11608
11647
11690
11702
11731
11735
11753
11822
11767
11857
11798
11760
11667
12043
12476
12871
12979
12948
12846
12739
12549
12364
12214
12266
12347
12155
11773
13122
17177
22418
24608
12625
7720
9843
10786
11806
12679
13039
13290
13470
16050
16496
16905
17352
17576
17698
17615
17464
17109
16390
15380
14240
13147
12233
11662
11311
11161
11134
11199
11190
11304
11367
11471
11548
11634
11653
11732
11720
11766
11769
11776
11800
11756
11777
11767
11879
11842
11780
11660
12030
12493
12848
12956
12951
12901
12792
12581
12410
12261
12217
12255
12094
11781
13029
16951
22075
24731
13084
7443
9721
10647
11676
12577
12973
13210
13390
13582
13732
13861
14050
14199
14463
14670
14946
17679
17734
17605
17412
16901
16164
15078
14000
12905
12105
11593
11311
11189
11165
11203
11236
11334
11409
11498
11558
11663
11653
11711
11732
11825
11775
11761
11749
11785
11793
11773
11874
11876
11782
11705
12032
12513
12857
12936
12883
12831
12781
12608
12492
12357
12357
12393
12130
11840
13788
18142
23354
23936
11077
7810
9958
10714
11729
12619
13003
13244
13398
13607
13718
13888
14048
14274
14473
14706
14985
15277
15659
16012
17124
16560
15764
14683
13611
12604
11901
11441
11209
11040
11057
11099
11214
11312
11374
11455
11513
11625
11731
11766
11798
11792
11816
11856
11791
11832
11808
11962
11909
11824
11685
11988
12467
12829
13014
12943
12909
12739
12593
12415
12321
12259
12334
12085
11752
13377
17582
22871
24378
11866
7799
9980
10841
11875
12668
13021
13192
13406
13539
13720
13882
14076
14176
14412
14633
14925
15218
15590
15962
16448
16894
17182
17382
13644
12635
11890
11472
11197
11116
11096
11139
11174
11308
11382
11463
11508
11621
11657
11706
11748
11774
11804
11812
11806
11839
11883
11850
11980
11899
11783
11725
12149
12601
12945
13042
13013
12879
12747
12604
12380
12297
12310
12298
11975
11973
14551
19137
24544
21085
8403
8798
10212
11274
12186
12889
13128
13335
13509
13692
13837
13991
14189
14350
14531
14735
15048
15323
15730
16089
16563
16939
17350
17506
17563
17446
17223
16742
11212
11109
11117
11221
11322
11408
11459
11569
11563
11652
11683
11764
11774
11852
11848
11879
11795
11798
11800
11865
11921
11829
11718
11865
12376
12748
13008
12963
12921
12779
12654
12462
12324
12275
12347
12252
11842
12533
16074
21083
25399
16185
7419
9546
10459
11554
12410
13004
13170
13392
13566
13779
13919
14106
14285
14500
14708
14952
15246
15585
15967
16381
16868
17228
17568
17656
17659
17472
17175
16533
15699
14603
13514
11316
11388
11414
11517
11582
11646
11684
11719
11801
11803
11831
11808
11852
11827
11886
11845
11896
11908
11833
11679
11899
12401
12795
13005
12949
12902
12835
12697
12508
12386
12298
12380
12234
11857
12850
16721
21954
25426
14551
7528
9800
10707
11780
12623
13055
13233
13487
13589
13779
13895
14062
14238
14486
14704
14997
15239
15611
15998
16469
16892
17274
17543
17631
17630
17441
17127
16432
15505
14388
13411
12381
11717
11260
11070
11318
11424
11534
11678
11688
11673
11703
11704
11724
11733
11828
11809
11842
11865
11912
11819
11857
12209
12729
12995
13094
13012
12928
12848
12674
12459
12277
12313
12398
12095
11921
14332
18905
24361
22446
9218
8530
10287
11178
12207
12997
13270
13492
13639
13794
13965
14130
14293
14464
14612
14837
15206
15606
15988
16344
16686
17024
17248
17299
17195
17137
17113
16877
16185
15297
14257
13225
12546
12128
11812
11634
11624
11634
11738
11691
11686
11662
11645
11590
11626
11688
11680
11763
11735
11686
11603
11885
12317
12676
12813
12865
12814
12674
12538
12472
12399
12581
12755
12573
12316
14130
18457
23508
24324
12354
8606
11075
11902
12847
13634
14012
14243
14688
15121
15373
15615
15735
15928
16148
16353
16581
16780
17068
17379
17743
18127
18430
18683
18911
18981
18914
18623
17929
16931
15954
14949
14165
13732
13415
13266
13246
13393
13379
13377
13410
13596
15687
15667
15659
15953
16633
18022
19071
19560
19926
21060
24539
26091
26156
26171
26172
26157
26128
26044
25630
24728
24103
23332
22369
23329
26083
26171
26254
24318
17590
17567
17787
18135
18420
18527
18282
18031
17812
17600
17386
17218
17142
16954
16677
16586
16565
16742
16775
16679
16725
16812
16759
16606
16297
15808
15217
14293
12922
11602
10408
9347
8511
7860
7409
7082
6825
6620
6528
6429
6238
5899
5525
5142
4688
4307
3973
3772
4038
4088
3987
3879
3983
3865
3334
2392
1994
2207
2352
2358
2444
2657
2925
3187
3250
4231
7977
13021
17155
8370
4
1351
2843
3999
4957
5596
5973
6229
6486
6814
7171
7486
7814
8201
8594
9033
9528
10075
10699
11379
12049
12706
13248
13571
13793
13905
13796
13390
12617
11664
10677
9894
9402
9131
9075
9138
9303
9549
9809
10024
10269
10483
10654
10830
11028
11174
11277
11416
11509
11607
11695
11789
11887
12019
12081
12214
12266
12254
13928
13841
13737
13620
13686
13694
13679
13347
13787
17213
22627
26179
24819
14623
17011
20413
23446
25741
26159
26231
26261
26273
26283
26290
26296
26297
26298
26298
26305
26301
26303
26302
26301
26303
26150
26295
26299
26298
26297
26298
26294
26290
26277
26228
24650
17122
13212
11359
10227
8950
6359
3717
1952
815
49
4
5
4
3
5
5
3
3
5
4
4
4
3
3
3
0
1
0
2
2
2
4
2
4
6
7
4
4
4
5
10
375
619
3047
7812
13588
13519
728
6341
6828
7263
7673
8125
8556
8940
9174
9449
9816
10371
10958
11710
12404
13137
13712
14185
14448
14580
14495
14142
13414
12467
11506
10648
10115
9864
9830
9871
10045
10230
10502
10725
11008
11172
11382
11534
11741
11868
12006
12134
12262
12388
12490
12580
12602
12687
12742
12819
12883
12954
12908
13003
13348
13858
14153
14329
14341
14385
14341
14224
14127
14039
14079
14121
13980
13709
15903
20369
25386
24859
12644
9966
12191
12883
15936
16067
16238
16386
16618
16919
17212
17489
17832
18300
18734
19214
19517
19698
19661
19557
19224
18656
17691
16587
15373
14397
13673
13248
13054
12888
12833
12839
12923
12987
13110
13157
13271
13297
13370
13362
13430
13405
13421
13457
13427
13397
13346
13305
13330
13294
13174
13162
13339
13775
14026
14149
14031
14043
13850
13691
13532
13396
13309
13295
13020
12714
14637
18884
23994
24289
11983
8837
11018
11775
12714
13487
13853
14040
15156
15350
15656
15925
16260
16660
17140
17577
17906
18110
18114
17938
17583
16953
15938
14812
13616
12668
11877
11492
11267
11210
11151
11204
11318
11397
11512
11644
11735
11755
11836
11838
11878
11870
11926
11875
11919
11881
11909
11840
11873
11834
11742
11569
11787
12249
12531
12707
12643
12601
12471
12356
12125
12013
11938
11975
11779
11384
12815
16980
22339
24377
12089
7305
9461
10350
11378
12181
12581
12782
13006
13159
13387
15197
15603
16044
16599
17046
17459
17711
17774
17686
17416
16868
16001
14888
13684
12649
11863
11442
11183
11081
11061
11147
11196
11284
11331
11480
11583
11661
11701
11720
11820
11794
11799
11764
11847
11829
11908
11926
11967
11921
12053
12020
11986
11949
12362
12798
13074
13150
13167
13153
13033
12906
12687
12570
12532
12593
12291
12002
14122
18654
24149
23526
10296
8487
10294
11271
12251
13025
13360
13530
13700
13813
14005
14109
16105
16506
17037
17465
17880
18032
18127
17967
17692
17053
16102
14967
13808
12746
12091
11588
11293
11227
11206
11298
11346
11467
11499
11600
11620
11740
11742
11800
11771
11795
11821
11818
11829
11824
11872
11929
11981
11949
12031
12044
12038
11903
12107
12577
12985
13128
13086
13054
13042
12868
12696
12569
12464
12504
12437
11978
12573
16215
21303
25730
16955
7628
9570
10569
11645
12554
13077
13302
13481
13623
13841
14021
14181
14296
16808
17285
17718
17969
18137
18056
17899
17414
16652
15543
14361
13215
12273
11655
11327
11147
11064
11083
11093
11234
11266
11396
11489
11533
11499
11591
11575
11637
11684
11703
11695
11750
11747
11793
11799
11787
11878
11924
11881
11790
11846
12264
12739
12936
12986
12944
12941
12754
12613
12386
12331
12392
12412
12065
12169
15263
20079
25010
19817
8017
8992
10339
11173
12168
12866
13248
13400
13594
13746
13920
14056
14163
14384
17047
17471
17763
17940
17861
17693
17260
16582
15550
14401
13221
12313
11678
11371
11186
11098
11061
11132
11222
11319
11446
11505
11630
11635
11709
11688
11753
11751
11806
11776
11853
11852
11895
11886
11946
11993
11879
11802
11938
