7813
11275
12150
12744
13061
13320
13495
13632
13687
13935
14210
14346
14531
14724
15118
15482
15920
16314
16780
17105
17533
17676
17606
17530
17220
16416
15392
14335
13197
12345
11696
11365
11124
11054
11065
11174
11169
11284
11393
11551
11531
11636
11744
11681
11815
11791
11774
11743
11813
11869
11862
11768
11837
12038
12119
11988
11889
12230
12726
13032
13249
13132
13140
13087
12788
12551
12447
12509
12463
12290
11889
13531
17931
23847
21724
8392
8164
9991
11501
12490
12967
13182
13326
13701
13841
13938
14122
14200
14312
14683
14991
15418
15762
16020
16604
17117
17403
17557
17788
17689
17661
17317
16644
15722
14575
13357
12477
11819
11233
11108
11000
11032
11152
11344
11203
11330
11464
11444
11531
11747
11832
11795
11847
11925
11826
11980
11826
11801
11758
11834
11832
11803
11805
11993
12518
12863
13076
13133
13098
12919
12691
12475
12478
12478
12358
12362
11952
13829
18277
23864
24557
11185
7527
9659
10941
12083
12723
13079
13255
13469
13626
13698
13715
14104
14248
14480
14697
15014
15380
15861
16332
16787
17186
17382
17672
17571
17653
17313
16618
15681
14577
13340
12395
11639
11197
10906
10951
11046
11048
10984
11076
11145
11230
11507
11552
11575
11648
11724
11807
11782
11751
11870
11904
12026
11801
11839
11845
11853
11746
11924
12487
12884
13128
12985
12872
12752
12705
12589
12383
12128
12301
12063
12015
14280
18898
24716
23329
9594
8033
9611
10965
12221
12987
13218
13276
13525
13714
13853
13907
14099
14404
14704
14847
15028
15485
15959
16376
16879
17189
17647
17901
17765
17526
17233
16351
15507
14423
13104
12190
11664
11457
11273
11094
10889
11163
11302
11428
11529
11597
11684
11636
11713
11835
11822
11938
11975
11888
11960
12010
12094
11945
11820
11851
11904
12266
12529
12845
13101
13221
13118
12922
12773
12660
12427
12487
12426
12024
12171
14918
19761
25541
21815
8515
8504
10197
11404
12495
13009
13247
13340
13541
13773
13858
13907
14123
14306
14519
14808
15226
15661
15954
16350
16882
17384
17580
17645
17603
17475
17094
16323
15338
14158
13076
12241
11608
11221
11013
10934
11021
11059
11258
11348
11374
11446
11692
11708
11791
11776
11751
11754
11802
11826
11888
11971
11972
11844
11751
11739
11921
12406
12735
13077
13015
12993
12788
12581
12437
12275
12206
12255
12012
12126
14979
20006
25667
21267
8311
8498
9868
11274
12222
12926
13219
13300
13396
13499
13736
13939
14036
14242
14460
14781
15065
15427
15946
16287
16754
17321
17651
17495
17389
17320
16989
16136
15198
14188
12905
11946
11394
11211
11087
10937
10934
11040
11251
11421
11410
11461
11631
11762
11813
11741
11716
11871
11933
11949
11946
11875
11835
11998
12514
12845
12941
12908
12935
12653
12533
12425
12205
12131
12216
11925
11693
13546
18116
24277
23814
10224
7879
9764
11108
12125
12648
12961
13127
13323
13543
13750
13831
14117
14163
14411
14673
14949
15291
15660
16081
16578
17131
17443
17543
17421
17205
16816
16342
15362
14266
13236
12304
11586
11307
11217
11157
11096
11174
11288
11306
11486
11597
11560
11665
11767
11725
11828
11874
11954
11919
11928
11866
11823
11967
12356
12711
12998
13097
12905
12826
12716
12652
12309
12238
12233
12271
11813
12063
17037
23007
25189
12766
7270
9406
10757
12043
12690
12916
13130
13301
13467
13615
13829
13960
14234
14418
14581
14941
15455
15752
16205
16577
17094
17400
17572
17475
17393
17151
16505
15503
14552
13464
12409
11741
11261
11222
11008
10900
10991
11179
11190
11409
11420
11536
11669
11870
11870
11831
11850
11818
11718
11807
11890
11796
11904
12111
12534
12816
13068
12962
12933
12679
12629
12403
12191
12330
12370
12001
11835
14190
18998
25752
17534
7291
9063
10293
11662
12536
12911
13129
13289
13490
13572
13785
13823
14108
14427
14678
14892
15219
15666
16129
16511
16926
17276
17220
17511
17371
17071
16431
15775
14710
13606
12681
11861
11230
10835
10925
11025
10948
11125
11259
11328
11395
11548
11693
11561
11833
11887
11815
11793
11813
11702
11896
11902
11849
11668
11962
12587
12818
12953
12893
12816
12809
12563
12254
12081
12164
12345
11939
11654
13745
18554
24583
23347
7516
9027
10031
11400
12363
12842
13043
13255
13440
13562
13752
13881
14092
14321
14523
14835
15324
15650
15997
16384
16861
17143
17427
17362
17228
16980
16639
15805
14715
13634
12714
11883
11419
11157
11026
10925
11011
11278
11388
11477
11540
11555
11545
11612
11851
11858
11775
11773
11786
11874
12004
11925
11934
11829
11815
11966
12472
12881
13124
13099
13128
12906
12667
12563
12366
12223
12293
12274
11823
12661
16559
22337
25808
9821
7809
9600
11011
12131
12771
13049
13161
13472
13617
13802
13741
13982
14277
14559
14812
15123
15440
15882
16267
16676
17178
17467
17634
17524
17457
17032
16380
15426
14414
13238
12292
11772
11549
11282
11017
11052
11048
11139
11244
11469
11534
11597
11668
11822
11816
11798
11767
11835
11760
11806
11906
11870
11880
12113
11873
11695
12052
12690
13035
13187
13005
12966
12966
12721
12604
12313
12230
12334
12198
11807
13534
17735
23432
21374
8058
8022
9845
11346
12383
12989
13173
13430
13598
13721
13928
14082
14174
14388
14644
14923
15115
15635
16053
16474
16799
17194
17520
17547
17564
17401
16970
16381
15446
14484
13434
12452
11704
11282
11261
11072
11213
11309
11350
11403
11645
11705
11824
11844
11770
11712
11864
12030
11977
11991
11879
11910
11962
11955
12062
12183
12046
11931
11923
12475
12989
13291
13265
13091
13106
12995
12885
12646
12509
12526
12629
12271
13411
17377
22948
25547
13846
7087
9300
10637
11964
12708
13076
13219
13578
13718
13907
14011
14245
14390
14544
14857
15227
15536
15840
16333
16710
17127
17483
17708
17658
17546
17152
16847
16131
15112
13873
12939
12010
11516
11334
11258
11126
11129
11183
11201
11348
11459
11597
11631
11738
11674
11828
11902
11852
11814
11756
11811
11961
11902
11891
11881
11813
11847
12080
12690
12956
13180
13010
12775
12649
12677
12399
12265
12172
12303
11986
13236
17245
22791
25171
13176
7063
9432
10574
11824
12734
13045
13185
13480
13654
13622
13753
13967
14290
14471
14757
15032
15334
15594
16223
16735
17188
17410
17491
17506
17373
17140
16474
15649
14572
13627
12596
11873
11335
11052
10953
11034
11022
11161
11258
11389
11520
11652
11690
11677
11677
11707
11829
11742
11837
11878
11931
11884
12041
11917
11750
11769
12154
12609
12862
12992
13100
12860
12713
12700
12353
12131
12146
12356
11938
12067
15062
20104
25722
20371
7764
8506
9812
11276
12494
13060
13190
13257
13384
13723
13932
14016
14219
14342
14554
14902
15316
15643
16085
16482
16972
17304
17620
17818
17784
17433
16953
16228
15268
14213
13215
12217
11462
11316
11189
11232
11126
11155
11250
11402
11416
11457
11597
11773
11858
11858
11827
11859
11800
11828
11823
11858
11884
12028
12102
11963
11801
12042
12532
12893
13156
13045
13062
12937
12724
12515
12321
12307
12314
12041
12153
14651
19435
25308
22088
8474
7957
9831
11348
12442
12935
13171
13315
13572
13607
13835
14099
14282
14380
14691
15019
15257
15560
16088
16493
16816
17272
17565
17640
17513
17415
16996
16441
15475
14477
13394
12466
11799
11479
11272
11215
11125
11162
11222
11308
11509
11648
11740
11656
11720
11747
11798
11788
11903
11881
12006
11932
11832
12062
12122
11990
11881
12183
12516
12905
13160
13144
12995
12847
12620
12396
12352
12399
12390
12182
12436
15163
19906
25435
20933
7757
7900
9784
11364
12378
12872
13103
13390
13627
13740
13831
13993
14161
14466
14691
14992
15239
15647
16027
16542
17009
17445
17627
17681
17698
17507
17128
16370
15578
14437
13227
12421
11826
11362
11111
10954
11107
11187
11176
11236
11444
11441
11580
11719
11775
11924
11930
11865
11780
11864
11859
11857
11940
11989
11830
11948
11933
12180
12568
12937
13157
13023
12916
12857
12605
12381
12298
12346
12245
11919
12851
16400
21773
25828
16539
6957
8853
10145
11518
12468
13039
13205
13369
13506
13716
13809
13979
14193
14378
14593
14854
15231
15580
16094
16503
16825
17143
17412
17562
17520
17157
16733
15895
14890
13761
12738
11927
11404
11124
10975
10801
10947
11221
11212
11294
11346
11520
11525
11677
11743
11836
11686
11727
11807
11867
11939
11892
11761
11685
11797
12009
12293
12731
13022
12953
12931
12693
12570
12331
12228
12269
12350
11839
12108
15170
20311
25771
20600
7923
8591
9836
11207
12350
12911
13065
13249
13419
13629
13742
13777
14081
14272
14624
14869
15224
15531
16001
16428
16910
17226
17401
17545
17455
17198
16623
16006
15008
13919
12825
11988
11384
11077
10947
10934
10958
11065
11122
11199
11285
11407
11539
11609
11683
11661
11738
11689
11825
11842
11899
11808
11771
11743
11849
11940
12327
12583
12992
13088
12925
12840
12686
12393
12204
12193
12232
11956
11778
13888
18523
24341
23764
10170
7673
9587
10911
11845
12561
13187
13364
13574
13686
13731
13692
14034
14349
14335
14507
14933
15244
15692
15997
16256
17061
17646
17773
17782
17634
17158
16444
15560
14568
13377
12572
11766
10953
10742
10805
10634
10406
10853
11017
11157
11329
11564
11627
11892
11707
11664
12020
12172
12074
11922
11956
11968
12133
12207
12015
11755
12390
12780
13118
13200
12942
12795
12774
12516
12336
12240
12345
12322
12092
12094
14779
19537
25103
21243
7860
7786
9612
11166
12232
12858
13171
13381
13556
13707
13751
13892
14186
14422
14585
14865
15216
15625
15980
16442
16931
17295
17644
17796
17811
17546
17214
16523
15567
14449
13359
12387
11775
11328
11105
11053
11069
11108
11274
11367
11355
11477
11588
11718
11618
11748
11780
11773
11807
11799
11754
11842
11768
11816
11871
11938
11954
11805
11711
12060
12570
12966
13116
13107
13100
13010
12858
12649
12663
12621
12669
12371
12517
15315
20020
25135
21149
8114
8377
10112
11232
12289
13005
13356
13583
13759
13971
14214
14322
14438
14542
14889
15113
15481
15847
16205
16646
17149
17440
17769
17932
17867
17632
17309
16635
15636
14485
13326
12524
11843
11523
11321
11231
11144
11238
11355
11451
11472
11555
11717
11836
11779
11825
11964
11958
11856
11771
11910
11890
11992
11993
12086
11856
11746
12001
12592
12837
13094
12978
12947
12782
12676
12346
12268
12314
12345
12078
12264
15253
19959
24834
19804
7837
8446
10074
11178
12178
12738
12944
12572
12841
13591
14320
14392
14452
14558
14765
15043
15271
15631
16001
16376
16812
17350
17585
17745
17543
17444
16939
16232
15198
14045
12973
12159
11591
11342
11222
11165
11182
11194
11301
11335
11545
11650
11775
11763
11907
11902
11915
11970
12099
12066
12044
12071
12044
11941
11968
12116
12444
12986
13299
13243
13039
12940
12768
12648
12389
12410
12409
12310
11690
12739
16803
22135
25307
14333
7627
9638
10475
11538
12442
12926
13248
13412
13551
13748
14019
14061
14113
14252
14624
14865
15293
15715
16185
16652
17159
17418
17604
17687
17588
17242
16655
15852
14804
13777
12570
11874
11465
11263
11125
11140
11219
11285
11384
11512
11538
11669
11699
11700
11788
11844
11888
11828
11951
12009
12053
12022
12155
12059
12082
12047
12709
12989
13281
13277
13324
13151
12918
12686
12503
12506
12519
12302
11838
12634
16344
21593
25753
16124
7385
9278
10363
11726
12587
13043
13137
13328
13525
13727
13883
14076
14216
14331
14605
14903
15215
15484
16034
16485
16949
17236
17631
17593
17490
17278
16847
15984
14907
13804
12712
11915
11408
11147
11002
11044
11084
11166
11170
11388
11399
11563
11561
11699
11737
11799
11782
11786
11844
11775
11786
11725
11827
11837
11845
11747
12302
12741
12982
13052
13070
12947
12899
12593
12282
12142
12288
12234
11943
11955
14732
19466
25153
20946
7874
8153
9772
11200
12180
12822
12991
13236
13330
13620
13749
13910
13973
14233
14510
14802
15164
15500
15880
16356
16873
17254
17580
17661
17627
17399
17092
16385
15522
14339
13361
12353
11732
11374
11164
11042
11106
11108
11246
11409
11527
11579
11611
11751
11754
11791
11808
11873
11783
11848
11917
11984
12010
11983
11918
11917
12223
12690
12936
13133
13075
13072
12957
12769
12529
12383
12470
12476
12163
11934
14376
19000
24759
22878
9181
7802
9674
11016
12148
12807
13002
13175
13347
13609
13846
14049
14130
14307
14514
14861
15105
15532
15917
16449
16886
17367
17589
17638
17585
17510
17165
16538
15587
14415
13278
12401
11703
11206
11151
11047
11085
11075
11239
11218
11312
11504
11620
11550
11591
11716
11647
11684
11753
11844
11778
11873
11716
11804
11847
12228
12589
12962
12983
12913
12788
12620
12465
12358
12270
12266
12161
11790
12209
15600
20542
25322
17989
7313
9107
10196
11415
12259
12871
13067
13302
13419
13596
13774
13933
14039
14262
14658
14895
15199
15613
16027
16444
16918
17258
17477
17459
17471
17218
16750
15921
14990
13773
12757
11948
11491
11222
11106
11067
11119
11283
11395
11517
11609
11690
11727
11921
11917
11967
11970
11989
11901
11980
12101
12034
11952
11933
12244
12866
12955
13057
12938
12918
12745
12429
12423
12440
12429
12346
11931
12177
15458
20529
25750
18621
7845
9208
10355
11501
12481
12988
13192
13253
13473
13688
13882
14031
14169
14439
14688
14864
15143
15539
15947
16480
16876
17251
17402
17517
17410
17163
16606
15853
14908
13716
12682
11946
11443
11116
11127
11118
11174
11179
11289
11324
11505
11552
11688
11753
11838
11908
11959
11954
11950
11948
11955
11904
11935
11989
11848
11919
12190
12797
13065
13146
13055
13015
12788
12639
12341
12340
12371
12339
11866
12407
15852
21108
25840
17292
7640
9309
10482
11648
12590
13007
13245
13383
13599
13676
13871
14059
14207
14387
14669
14912
15177
15461
15940
16406
16873
17313
17529
17558
17301
17134
16694
15936
14834
13832
12865
12024
11477
11203
11050
11042
10985
11088
11320
11365
11440
11396
11529
11558
11633
11535
11618
11738
11820
11778
11753
11721
11756
11711
11745
11662
12282
12768
13057
13024
12993
12867
12621
12390
12193
12255
12283
12214
11751
12911
16708
22305
25292
13704
6996
9180
10576
11817
12531
13037
13327
13328
13453
13627
13818
13943
14159
14263
14543
14810
15357
15618
16094
16556
17017
17331
17516
17500
17412
17129
16540
15723
14744
13744
12652
11871
11422
11188
11074
10988
10927
11133
11233
11373
11458
11548
11631
11682
11773
11841
11767
11733
11750
11709
11880
11992
12078
12068
12029
11837
11938
12218
12798
13041
13020
13030
12981
12731
12613
12396
12374
12314
12258
11961
12953
16771
22077
25710
15081
7052
9038
10547
11852
12718
12989
13193
13431
13673
13781
14001
14127
14270
14464
14718
14939
15240
15632
16081
16610
17035
17425
17608
17649
17462
17206
16738
16014
14988
13889
12863
12131
11622
11339
11215
11190
11240
11257
11366
11361
11595
11635
11724
11718
11759
11764
11879
11897
11852
11862
11879
11943
11812
11874
11941
12219
12645
12913
13142
13070
12825
12810
12669
12471
12321
12350
12322
12161
11977
14377
19032
24577
23113
9451
8319
10026
11149
12176
12933
13130
13411
13568
13744
13802
14067
14169
14445
14603
14902
15178
15453
15794
16342
16868
17211
17487
17604
17530
17283
16926
16266
15301
14130
13168
12293
11717
11372
11206
11009
11093
11095
11185
11283
11378
11511
11660
11753
11766
11873
11838
11807
11786
11850
11948
12056
11979
12007
12024
12065
12265
12677
12936
13233
13168
13050
12817
12804
12537
12325
12354
12383
12152
12136
14835
19555
25138
20869
8133
8469
9988
11370
12362
12874
13191
13360
13578
13754
13861
13954
14131
14350
14490
14836
15212
15653
16054
16469
16851
17292
17520
17626
17557
17399
17005
16360
15422
14250
13110
12262
11720
11408
11314
11207
11206
11213
11395
11419
11550
11600
11711
11708
11740
11811
11874
11858
11917
12016
12067
12070
12146
12044
11967
12236
12589
13006
13217
13077
12986
12985
12761
12584
12341
12391
12371
12229
11961
13582
17797
23589
24659
11596
7407
9585
11043
12147
12834
13079
13204
13297
13669
13769
13962
14008
14168
14501
14856
15054
15420
15754
16165
16665
17083
17409
17511
17501
17378
17129
16569
15804
14652
13574
12484
11772
11505
11364
11069
11102
11308
11491
11734
11711
11756
11816
11810
11817
11909
11912
11704
11683
11977
12033
12117
12146
12151
12137
11952
11693
11957
12269
12551
13105
13242
13115
13048
12901
12818
12575
12448
12484
12283
11986
13313
17257
22700
25549
13816
6847
8994
10543
11903
12848
13195
13272
13373
13492
13689
13721
13792
13950
14356
14678
14858
15217
15810
16178
16539
16871
17395
17526
17353
17235
17107
16633
15829
14868
13845
12867
12036
11582
11218
11129
10990
11042
11106
11262
11318
11377
11475
11536
11549
11623
11687
11686
11729
11761
11863
11735
11716
11772
11738
11671
11840
12159
12644
12829
12891
12878
12756
12455
12379
12226
12238
12280
12213
11980
12920
16297
21230
25094
16486
7157
9080
10246
11404
12525
13023
13310
13425
13600
13727
13862
14024
14261
14387
14592
14919
15255
15670
16076
16561
16984
17344
17490
17573
17456
17266
16743
15943
14915
13873
12889
12136
11602
11336
11240
11077
11135
11211
11307
11359
11565
11606
11764
11840
11889
11863
11961
11880
11937
11978
12009
12059
11975
11941
11982
12257
12669
12900
12987
12906
12853
12749
12577
12434
12330
12362
12296
12120
12241
14955
19530
24828
21376
8498
7917
9659
11033
12161
12855
13133
13385
13501
13691
13844
14097
14170
14385
14570
14914
15179
15537
15896
16386
16819
17220
17562
17612
17578
17364
17035
16372
15460
14349
13421
12515
11910
11514
11237
11081
11162
11148
11268
11380
11448
11614
11725
11826
11840
11911
11935
11997
11973
11981
11907
12020
11922
11911
11956
12346
12698
13014
13066
13000
12849
12734
12542
12408
12340
12365
12318
12125
12180
14502
19030
24522
22602
9325
7689
9631
11069
12181
12928
13112
13291
13426
13639
13824
13963
14110
14324
14554
14780
15159
15463
15922
16313
16818
17244
17665
17681
17694
17478
17197
16604
15586
14442
13361
12391
11646
11274
11073
11009
10931
11083
11185
11337
11419
11519
11513
11662
11650
11728
11789
11848
11908
11915
11881
11994
11933
11851
11855
12243
12545
12791
12986
12950
12921
12681
12444
12210
12174
12189
12302
12107
11990
13917
18245
23793
23574
10517
7427
9469
10748
12009
12699
13046
13195
13414
13549
13723
13868
14084
14182
14414
14730
15033
15342
15792
16253
16750
17201
17578
17779
17729
17591
17242
16629
15645
14670
13525
12549
11831
11435
11190
11061
10983
11102
11246
11326
11426
11414
11445
11530
11641
11679
11778
11726
11743
11745
11815
11741
11750
11634
11892
12218
12636
12814
12835
12748
12630
12403
12260
12073
12044
12112
12072
11800
12585
16158
21207
25269
16612
7195
8887
10101
11324
12344
12825
13078
13301
13478
13626
13762
13900
14122
14332
14571
14943
15282
15651
15960
16517
17028
17496
17708
17760
17544
17301
16770
15954
14909
13789
12783
11971
11481
11187
11081
11000
11031
11070
11254
11287
11397
11437
11542
11587
11683
11738
11826
11823
11856
11817
11860
11904
11818
11832
12057
12393
12719
12974
12909
12809
12766
12587
12399
12335
12332
12428
12294
12035
12870
16499
21563
25237
15784
7406
9323
10284
11589
12502
12999
13250
13411
13568
13808
13867
14042
14160
14451
14684
15004
15348
15681
16099
16582
17070
17455
17610
17619
17610
17375
16857
15874
14770
13619
12704
11912
11531
11229
11136
11125
11224
11351
11439
11566
11663
11665
11764
11897
11918
11954
11960
12006
12026
12101
12010
12139
12005
11943
12107
12500
12830
13112
13080
13083
12970
12763
12616
12481
12392
12369
12418
12098
12069
14617
19231
24923
21865
8926
8422
9758
11133
12211
12850
13060
13294
13523
13648
13793
13894
14113
14296
14535
14729
15086
15413
15884
16285
16834
17293
17617
17674
17712
17448
17085
16305
15329
14208
13032
12161
11577
11270
11134
11095
11019
11144
11201
11316
11389
11536
11613
11745
11769
11784
11768
11827
11845
11894
11967
11940
11963
11970
12062
11963
11853
12040
12517
12895
13134
13059
13062
13053
12912
12693
12544
12399
12418
12317
11921
12254
15472
20438
25733
18865
7694
8774
9944
11383
12405
12985
13142
13401
13581
13808
13874
14031
14204
14429
14578
14916
15245
15638
16040
16523
17032
17446
17716
17808
17800
17550
17109
16312
15302
14141
13108
12170
11677
11314
11146
11094
11112
11219
11292
11373
11453
11641
11698
11759
11782
11866
11803
11951
11880
11834
11857
11932
11960
12011
12006
12110
12153
12178
12110
12042
12300
12818
13224
13384
13330
13235
13233
12994
12875
12607
12588
12545
12543
12084
12585
15865
21079
25836
17902
7505
8900
10181
11568
12581
13128
13372
13454
13655
13838
14023
14077
14292
14412
14747
14943
15279
15609
16075
16519
17016
17437
17673
17838
17733
17513
17062
16374
15330
14316
13160
12255
11643
11387
11206
11193
11165
11225
11313
11472
11542
11673
11722
11804
11827
11751
11788
11787
11842
11862
11939
11849
11908
11969
12007
12012
12087
12046
12240
12205
12192
12139
12507
12914
13088
13198
13152
13102
12962
12867
12727
12572
12522
12646
12264
11944
13571
18019
23867
25166
12494
7743
9567
10607
11911
12671
12937
13117
13362
13543
13783
13791
13960
14085
14392
14673
15020
15392
15818
16322
16769
17167
17669
17868
17813
17744
17404
16791
15869
14850
13639
12633
11916
11584
11311
11149
11006
11054
11143
11233
11370
11513
11491
11532
11580
11578
11667
11803
11880
11887
11773
11627
11677
11695
11805
11865
11862
11978
12133
11909
11921
12332
12805
13088
13175
13016
12935
12742
12653
12384
12363
12475
12390
12062
12460
15720
20486
25450
18912
7799
9176
10491
11531
12495
13137
13336
13509
13686
13874
13986
14120
14232
14468
14710
14934
15246
15710
16076
16537
17055
17600
17646
17784
17679
17442
17070
16360
15285
14170
13023
12163
11675
11275
11071
11064
11102
11045
11246
11292
11316
11461
11626
11690
11796
11891
11932
11803
11838
11863
11894
11922
11965
11922
11894
12016
12036
12147
12057
11969
11966
12458
12951
13227
13103
13268
13177
12875
12721
12568
12519
12455
12486
12221
12312
14942
19485
25134
21373
8542
8534
10018
11189
12271
13057
13395
13545
13644
13762
13872
14023
14156
14368
14652
14919
15211
15466
16003
16489
17030
17404
17711
17785
17786
17746
17479
16636
15326
14172
13009
12117
11655
11317
11161
11006
11128
11319
11485
11479
11435
11501
11588
11677
11822
11955
11748
11866
11859
11977
11980
11945
11811
11830
11943
11968
11980
12049
12147
12231
12245
12102
12020
12428
12968
13058
13237
13283
13164
12953
12932
12822
12594
12498
12546
12473
12179
14141
18318
24069
24254
11385
8179
9974
11187
12263
13020
13516
13579
13726
13783
13986
14046
14219
14453
14615
14877
15118
15277
15818
16412
16953
17548
17812
18014
17947
17796
17329
16745
15643
14537
13457
12734
11965
11384
11239
11220
11155
11099
11269
11392
11517
11573
11602
11672
11779
11697
11851
11825
11825
11867
11844
11933
11939
11773
11875
11906
11996
12021
12031
12138
11992
11920
12387
12953
13209
13250
13161
13053
12892
12812
12505
12355
12434
12484
12186
11942
14085
18624
24722
23438
9840
7856
9652
11102
12310
12877
13268
13373
13550
13754
13920
14084
14280
14471
14620
14845
15254
15728
16091
16462
17019
17599
17772
17823
17838
17725
17226
16569
15574
14473
13203
12398
11786
11368
11106
11025
11030
11088
11185
11263
11414
11454
11447
11579
11669
11673
11792
11723
11713
11773
11803
11825
11857
11878
11903
11916
12018
12097
12144
12155
11976
12034
12437
12882
13125
13165
13107
13140
12924
12756
12589
12551
12490
12500
12043
12285
15029
19776
25394
21588
8327
8149
9929
11256
12255
12921
13194
13498
13710
13861
14021
14166
14353
14592
14754
14891
15167
15596
16092
16551
17048
17507
17726
17913
17831
17591
17075
16375
15404
14404
13139
12171
11643
11398
11148
11137
11001
11083
11222
11305
11415
11486
11550
11635
11725
11675
11682
11661
11686
11673
11750
11832
11868
11855
11887
11944
11948
11807
11677
11968
12609
12900
13014
12974
12927
12810
12645
12522
12261
12272
12364
12300
11982
13471
17512
22814
24793
12725
7217
9406
10507
12247
12937
13263
13465
13654
13846
13957
14091
14254
14471
14786
14964
15173
15546
16048
16491
16835
17372
17702
17861
17771
17603
17318
16590
15676
14559
13524
12614
11800
11203
11078
11089
11058
11002
11149
11188
11390
11433
11464
11554
11603
11647
11787
11822
11699
11745
11921
11958
11849
11844
11924
11956
11831
11790
12228
12760
12993
13103
12953
12797
12600
12558
12365
12164
12268
12153
11890
12020
14883
19692
25277
20963
8162
8408
10292
11577
12584
12998
13262
13422
13614
13735
13956
14103
14317
14379
14575
14886
15181
15621
16117
16552
17003
17558
17755
17867
17644
17540
17041
16245
15183
14105
13031
12220
11596
11221
11113
11080
11079
11116
11153
11195
11506
11514
11557
11561
11694
11856
11811
11707
11816
11745
11750
11854
11887
11827
11952
11906
11860
12051
12406
12800
13006
13226
13137
13042
12777
12563
12353
12311
12363
12428
12135
12294
15110
19887
25270
15123
7003
8951
10397
11818
12612
12982
13240
13455
13653
13836
13958
14071
14259
14374
14662
14983
15338
15703
16065
16540
16993
17384
17674
17778
17584
17402
16958
16156
15124
14083
13040
12268
11643
11358
11139
11075
11068
11165
11255
11375
11498
11497
11509
11697
11835
11856
11853
11790
11741
11811
11904
11828
11930
11983
11892
11838
12030
12312
12781
13099
13190
13140
13111
12971
12711
12501
12316
12381
12369
12129
12057
14427
21041
25817
18015
7187
8619
10120
11530
12477
12954
13289
13465
13641
13786
13893
14105
14231
14419
14645
14904
15220
15554
15971
16506
16834
17334
17718
17927
17780
17419
16951
16298
15324
14149
13084
12161
11492
11199
11070
11139
11216
11218
11215
11266
11279
11406
11598
11619
11620
11677
11851
11845
11715
11691
11725
11788
11751
11723
11752
12043
12230
12639
12938
13029
12849
12759
12448
12382
12226
12237
12263
12231
11964
12363
15659
22807
24665
12491
7109
9322
10518
11748
12612
12982
13224
13240
13491
13756
13986
13952
14136
14380
14841
15079
15241
15600
15997
16609
17140
17439
17489
17589
17472
17157
16620
15715
14607
13558
12540
11869
11371
11096
10946
11030
11044
11107
11130
11193
11522
11521
11570
11634
11653
11714
11807
11666
11806
11924
11822
11861
11877
11851
11824
12083
12468
12719
12920
13016
12872
12861
12658
12441
12331
12399
12337
12192
11787
13082
18589
24531
23119
9574
8057
9737
11075
12247
12921
13131
13383
13448
13510
13749
14023
14097
14311
14507
14869
15106
15415
15803
16218
16720
17214
17527
17771
17674
17544
17197
16472
15516
14452
13422
12419
11684
11270
11083
11124
11094
11046
11168
11247
11354
11515
11565
11608
11778
11787
11803
11721
11761
11896
11808
11858
11895
12043
11963
11967
11908
12162
12494
12892
13054
12992
12886
12884
12628
12423
12295
12308
12416
12334
11933
13810
18066
23964
24169
10698
7507
9449
11032
12201
12844
13063
13379
13447
13634
13762
13939
14041
14232
14487
14775
15053
15374
15774
16226
16739
17069
17484
17664
17602
17350
17107
16627
15876
14773
13696
12676
11954
11323
11109
11016
11048
11103
11191
11278
11387
11555
11487
11573
11672
11821
11806
11824
11800
11914
11873
11969
11932
11902
12043
12063
11956
11812
12147
12698
13097
13135
13106
13074
13007
12677
12554
12327
12374
12399
12366
12107
13794
18042
23845
24148
10687
7290
9499
11040
12195
12824
13117
13439
13576
13768
13832
13991
14054
14391
14659
14843
15024
15338
15700
16295
16715
17178
17532
17614
17646
17525
17337
16801
15935
14810
13751
12710
11997
11447
11217
11122
11057
11043
11197
11290
11362
11417
11554
11718
11743
11724
11719
11793
11767
11848
11783
11789
11817
11950
12052
12082
11922
11858
12009
12453
12867
13113
13097
13029
13025
12829
12648
12384
12350
12410
12223
11832
12996
16976
22598
25574
14479
7149
9134
10406
11753
12557
13079
13278
13391
13576
13740
13871
14028
14286
14452
14651
14905
15310
15614
16098
16551
17026
17334
17572
17514
17470
17254
16738
15946
14875
13761
12758
12061
11529
11249
10962
10963
10975
11217
11245
11310
11357
11639
11715
11710
11719
11723
11722
11782
11739
11749
11814
11815
11944
11860
11774
11769
12228
12621
12989
13062
12995
12926
12878
12451
12375
12353
12374
12414
12080
12000
14354
18740
24456
23101
9695
8088
9846
10991
12023
12742
13020
13258
13551
13745
13832
13953
14071
14335
14497
14734
15036
15429
15835
16374
16886
17276
17594
17623
17595
17358
17039
16381
15570
14493
13376
12420
11827
11308
11109
10987
11051
11202
11303
11364
11368
11522
11671
11842
11885
11950
11854
11843
11795
11914
11909
11937
11928
11949
11896
11795
11925
12390
12860
13039
13091
13041
13014
12769
12701
12491
12516
12446
12526
12095
12456
15752
20822
25820
18850
7461
8787
10133
11597
12533
13014
13179
13388
13615
13718
13812
13901
14158
14316
14631
14867
15135
15660
16091
16490
17033
17419
17633
17655
17560
17370
16916
16334
15377
14216
13144
12334
11642
11396
11278
11192
11037
11157
11314
11336
11392
11557
11677
11762
11753
11772
11819
11926
11960
11775
11732
11786
11872
11933
11869
11679
11951
12431
12862
13173
13150
12892
12787
12673
12471
12336
12406
12437
12208
11951
13790
18107
23811
24615
11176
7136
9395
10974
11971
12697
13010
13333
13391
13507
13711
13781
13945
14185
14447
14651
14936
15330
15754
16077
16612
17030
17336
17572
17715
17543
17231
16647
15780
14650
13641
12594
11810
11391
11106
11089
11173
11221
11180
11290
11222
11290
11517
11657
11674
11742
11622
11786
11883
11857
11758
11760
11775
11751
11856
11861
11825
12018
12568
12867
13102
13087
12877
12645
12417
12182
12239
12357
12205
12076
14117
18653
24357
24063
10453
7448
9487
10922
12076
12808
13164
13370
13518
13610
13869
13965
14118
14255
14523
14779
15075
15407
15836
16267
16735
17198
17498
17634
17519
17448
17074
16394
15462
14604
13506
12597
11897
11474
11148
11103
11048
11081
11089
11199
11401
11567
11636
11712
11798
11784
11771
11699
11707
11799
11822
11893
11948
11818
11746
12008
12409
12712
12913
12903
12819
12616
12511
12394
12335
12256
12263
12128
11764
12952
16700
21919
25312
15035
6960
9116
10177
11566
12562
13020
13188
13399
13554
13767
13873
14053
14273
14506
14725
14924
15326
15724
16084
16556
17176
17487
17730
17951
17776
17376
16854
15904
14926
13826
12835
11930
11386
11091
10852
10887
11024
11195
11144
11368
11449
11557
11588
11730
11711
11718
11747
11920
11931
11854
11950
11827
11754
11741
12153
12443
12760
12885
12866
12789
12564
12394
12326
12326
12307
12200
11873
11848
14663
19340
25151
21507
8483
8218
9646
11149
12187
12894
13055
13230
13398
13662
13792
14007
14136
14250
14475
14791
15092
15419
15843
16457
16971
17288
17375
17503
17536
17292
16937
16084
15080
13912
12952
12122
11561
11151
11057
10922
10962
11069
11123
11288
11426
11592
11659
11589
11560
11812
11878
11912
11835
11894
11957
11977
11787
11782
12062
12489
12824
13010
12952
12849
12750
12585
12377
12224
12283
12350
12081
11580
13548
18105
23988
24411
11100
7643
9520
10821
11948
12672
13032
13132
13301
13559
13860
13941
14062
14196
14536
14748
14994
15432
15730
16237
16724
17125
17365
17614
17533
17408
17058
16462
15499
14394
13463
12416
11740
11389
11108
10970
11128
11161
11234
11258
11410
11447
11489
11557
11631
11592
11626
11640
11680
11739
11895
11806
11745
11778
12016
12470
12775
12941
12799
12904
12726
12566
12234
12153
12153
12120
11797
12026
14589
19540
25382
21787
8461
8104
9955
11464
12308
12788
13060
13288
13448
13564
13695
13844
14072
14197
14432
14742
15181
15485
15933
16391
16819
17083
17274
17418
17395
17177
16839
16153
15143
14182
13115
12266
11623
11323
11095
11116
10999
11028
11142
11279
11404
11518
11678
11807
11786
11751
11860
11970
12040
12028
12013
11800
11765
11865
12329
12732
13043
12988
12876
12792
12700
12457
12222
12174
12322
12138
11772
13070
17379
23193
25328
13028
7276
9325
10651
11842
12576
12930
13123
13351
13450
13615
13814
14049
14191
14403
14565
14970
15316
15640
16081
16606
17058
17343
17485
17389
17259
16906
16480
15630
14671
13465
12619
11795
11348
11117
11079
10939
11049
11121
11135
11251
11287
11525
11639
11758
11694
11839
11781
11809
11840
11879
11790
11714
11897
12301
12614
12831
12884
12726
12570
12330
12384
12189
12243
12247
12140
12003
14485
19083
24454
22223
9218
8217
10021
10940
11803
12510
12995
13207
13319
13565
13771
13926
14105
14299
14487
14730
15014
15359
15778
16231
16698
17135
17326
17500
17409
17273
16835
16120
15159
14050
12950
12229
11659
11199
11147
11027
11083
11081
11307
11387
11554
11630
11794
11813
11904
11862
11855
11971
12013
12045
11881
11890
11834
12198
12462
12866
12912
12907
12710
12553
12565
12401
12160
12237
12255
11943
11848
14327
18988
25732
17537
7583
9141
10246
11469
12407
12982
13210
13435
13545
13745
13907
14032
14148
14347
14498
14904
15254
15630
16074
16587
17016
17431
17546
17505
17416
17107
16667
15722
14716
13569
12658
11932
11487
11164
11103
11037
11106
11226
11350
11412
11467
11639
11752
11669
11794
11971
11928
11894
11780
11874
11991
11930
11777
11991
12440
12937
13114
13044
12959
12891
12746
12503
12278
12209
12341
12116
11768
12343
15956
21288
25959
12234
7830
9485
10795
11921
12646
12938
13168
13338
13534
13641
13821
14025
14114
14353
14583
14980
15366
15815
16137
16667
17072
17413
17559
17554
17278
16959
16335
15541
14420
13332
12411
11720
11325
11112
11078
11096
11236
11245
11316
11375
11484
11487
11692
11784
11825
11813
11861
11930
11991
11926
11962
12064
11998
11875
11924
12337
12906
13228
13065
12973
12936
12854
12662
12449
12319
12400
12354
11895
12074
15249
20349
25760
20257
7266
9079
10478
11963
12729
13052
13206
13372
13370
13599
13771
13984
14174
14481
14653
14966
15277
15609
16046
16606
16992
17301
17468
17484
17452
17216
16730
15934
14955
13721
12557
11788
11325
11028
11143
11120
11229
11322
11378
11451
11502
11499
11632
11779
11659
11807
11823
11855
11846
11939
11816
11839
11869
11985
11879
11812
11908
12424
12932
13292
13171
13046
12974
12677
12524
12317
12256
12269
12314
11960
12374
15512
20675
25585
13906
7209
9175
10582
11993
12729
13153
13323
13420
13557
13751
14038
14207
14350
14488
14787
15114
15436
15809
16330
16732
17176
17481
17719
17660
17528
17172
16760
15905
14889
13818
12807
12171
11570
11352
11257
11195
11177
11274
11322
11443
11534
11629
11626
11623
11588
11752
11684
11856
11903
11835
11740
11857
11850
11716
11778
12152
12607
12876
13006
12845
12897
12685
12642
12441
12287
12326
12281
11918
12007
14697
19502
25044
16300
6969
8953
10198
11570
12453
12831
13095
13326
13542
13633
13790
13864
14128
14392
14520
14871
15285
15608
16065
16538
16974
17387
17447
17565
17487
17222
16534
15795
14783
13673
12704
11870
11243
11093
10871
10827
11037
11094
11146
11311
11479
11566
11588
11539
11570
11561
11740
11790
11861
11848
11923
11793
11771
11768
11988
12353
12721
12963
12927
12776
12600
12495
12296
12222
12214
12323
12044
11792
13118
17396
22860
25286
9034
8092
9636
10980
12038
12770
13141
13403
13509
13649
13772
13893
14110
14263
14445
14694
15180
15495
15779
16256
16896
17299
17576
17660
17581
17245
16930
16182
15221
14186
13074
12108
11557
11234
11020
11007
11094
11004
11058
11235
11308
11497
11561
11663
11806
11872
11706
11747
11822
11862
11878
11854
11885
11808
11701
12061
12663
12875
13117
12905
12923
12897
12738
12461
12277
12255
12286
12121
11853
13014
17212
22808
25487
13796
7913
9672
11094
12198
12757
13144
13359
13559
13662
13780
13962
14155
14213
14469
14781
15099
15341
15810
16421
16922
17322
17524
17708
17596
17382
17037
16467
15549
14458
13351
12541
11792
11391
11114
11167
11161
11156
11219
11357
11460
11557
11645
11679
11764
11744
11754
11664
11786
11745
11795
11802
11986
11848
11795
11827
12347
12681
12967
13075
12934
12844
12606
12556
12286
12329
12323
12282
11899
12122
14968
19770
25293
20953
6910
8840
10245
11665
12573
13022
13202
13455
13591
13568
13691
13926
14149
14260
14526
14754
15173
15610
16008
16492
17001
17357
17543
17504
17463
17267
16782
15949
14944
13947
12925
12050
11492
11250
11065
11021
11104
11189
11210
11418
11525
11629
11534
11745
11852
11860
11909
11885
11779
11864
11886
11836
11907
11775
11802
11998
12345
12535
13132
13231
13067
12907
12902
12669
12435
12385
12508
12489
12058
12132
14894
19785
25466
16243
7248
9005
10419
11795
12661
13102
13307
13533
13666
13825
13919
14065
14283
14566
14724
15058
15413
15844
16203
16619
17110
17475
17703
17681
17591
17313
16952
16109
15070
13940
12895
12139
11677
11379
11267
11151
11174
11291
11408
11399
11462
11561
11564
11673
11640
11717
11683
11810
11775
11825
11825
11883
11760
11766
11815
12133
12511
12765
12965
12880
12778
12608
12513
12328
12190
12135
12280
12022
11932
14333
19052
24828
22614
7219
8773
10010
11580
12476
12860
13113
13275
13421
13684
13880
13956
14214
14459
14674
14916
15231
15461
15966
16401
17002
17455
17670
17704
17642
17272
16717
15853
14837
13764
12777
11875
11311
11138
10962
10961
10900
11074
11175
11378
11496
11548
11594
11643
11658
11723
11703
11800
11896
11797
11812
11905
11824
11692
12083
12423
12687
12849
12930
12861
12806
12573
12402
12218
12160
12247
12058
11606
13072
17359
22996
25302
13276
8242
9632
11013
12187
12899
13130
13338
13486
13658
13753
13953
14157
14361
14454
14710
15023
15524
15984
16388
16827
17222
17517
17625
17620
17285
16928
16235
15259
14120
13144
12237
11704
11396
11203
11083
11125
11093
11220
11385
11411
11555
11626
11626
11637
11746
11738
11821
11812
11858
11844
11947
11767
11837
12018
12402
12675
12942
13014
12922
12838
12684
12560
12287
12171
12148
12260
11885
12074
14952
19794
25483
20457
7941
8510
10420
11774
12538
12854
13183
13427
13603
13822
13889
13945
14224
14494
14713
14920
15310
15693
16122
16633
17076
17221
17537
17574
17390
17078
16642
15951
14884
13683
12656
11996
11484
11181
10981
11147
11215
11243
11279
11396
11473
11578
11639
11755
11723
11780
11784
11760
11730
11922
11975
12006
11960
11904
12008
12308
12779
13007
13160
13028
12952
12794
12601
12379
12221
12297
12388
11964
12217
15301
20282
25666
19692
7516
8393
10734
11937
12573
12988
13181
13347
13574
13728
13918
14050
14255
14412
14612
14842
15299
15780
16249
16694
17024
17408
17632
17561
17357
17164
16688
15830
14759
13789
12796
12064
11531
11305
11085
11019
11127
11308
11332
11347
11502
11568
11663
11780
11767
11755
11787
11804
11851
11793
11806
11897
11989
11881
11774
12074
12455
12823
13055
13008
12930
12842
12623
12459
12220
12229
12260
12315
11803
12467
15964
21165
25565
16618
6761
8554
10791
12168
12986
13275
13334
13509
13711
13893
13888
13987
14249
14556
14857
15153
15609
15961
16399
16733
17208
17475
17676
17677
17541
17215
16618
15711
14798
13761
12741
11925
11406
11246
11138
11153
11170
11346
11412
11531
11521
11663
11697
11768
11825
11808
11805
11825
11799
11714
11813
11823
11863
11775
11948
12282
12723
12903
12985
12869
12914
12754
12566
12272
12273
12207
12193
11754
12418
15917
21192
25700
17330
7048
8652
10607
11888
12640
12963
13272
13456
13599
13716
13942
14049
14254
14517
14757
14982
15360
15772
16192
16583
17100
17431
17571
17465
17236
17069
16457
15558
14527
13459
12428
11875
11354
11046
10913
10978
10977
11114
11320
11514
11629
11687
11848
11863
11960
11813
11834
11784
11788
11862
12022
11779
11835
11956
12421
12738
12996
13058
12983
12843
12625
12472
12308
12275
12192
12222
11766
12545
16167
21529
25789
16585
7278
8921
10065
11529
12624
12966
13167
13350
13528
13677
13808
14029
14299
14453
14679
14945
15444
15802
16244
16682
17097
17282
17399
17474
17320
16857
16215
15382
14382
13327
12343
11616
11302
11150
11009
11025
11138
11240
11296
11481
11536
11691
11686
11780
11761
11840
11815
11823
11863
11969
11905
11743
11753
11976
12435
12761
13016
12917
12885
12772
12572
12374
12240
12249
12295
12159
11701
12769
16760
22319
25647
14636
7230
9270
10449
11810
12645
13148
13300
13408
13539
13717
13824
14164
14279
14513
14677
15104
15481
15838
16249
16757
17150
17312
17483
17511
17378
16939
16292
15395
14288
13306
12453
11600
11303
11101
11080
11082
11200
11259
11428
11418
11522
11600
11737
11691
11765
11821
11881
11887
11806
11951
12093
11943
11836
11939
12209
12599
12871
13033
13040
12953
12727
12590
12363
12207
12240
12273
12087
11923
13916
18418
24296
23137
9507
7633
9644
11097
12153
12837
13075
13307
13536
13682
13773
14044
14226
14435
14656
14913
15176
15631
15944
16491
16927
17355
17540
17667
17514
17283
16802
16126
15180
14082
12993
12223
11641
11313
11150
11048
11158
11207
11418
11439
11575
11538
11656
11710
11770
11778
11889
11861
11899
11850
11887
11887
11896
11800
11906
11887
12207
12841
13092
13208
13144
13080
12848
12754
12521
12372
12334
12397
12098
12005
14114
18530
24414
23222
9605
7726
9755
11213
12256
12794
13254
13354
13530
13688
13910
13936
14098
14243
14575
14945
15321
15658
16036
16492
16925
17324
17484
17513
17453
17169
16687
16128
15163
14190
13072
12237
11576
11236
11095
11085
11070
11169
11204
11328
11491
11617
11738
11702
11728
11899
11897
11811
11751
11754
11876
11873
11684
11631
11839
12118
12536
12920
13021
12904
12776
12693
12534
12393
12186
12272
12177
11847
11890
14736
19544
25271
21344
8300
8089
9550
11170
12261
12755
13034
13314
13450
13533
13780
14015
14102
14363
14670
14892
15200
15702
16104
16475
16871
17336
17545
17552
17374
17064
16537
15791
14754
13633
12693
11983
11449
11198
11082
11025
11056
11126
11326
11394
11586
11627
11683
11797
11938
12018
12001
11917
11811
11827
11943
11865
11905
11947
12100
12617
12862
12987
13072
13062
12679
12592
12368
12220
12335
12414
12003
12138
14791
19587
25408
22338
8952
8302
9801
11009
12167
12796
13104
13230
13472
13709
13986
13997
14160
14402
14740
14847
15212
15541
15908
16386
16903
17232
17337
17317
17295
17042
16384
15636
14725
13610
12502
11826
11344
11145
11001
11007
10940
11075
11201
11348
11412
11535
11590
11657
11761
11745
11755
11826
11951
11813
11908
11861
11773
11803
12114
12355
12632
12820
13017
12960
12868
12658
12491
12281
12240
12364
12268
11994
13033
16869
22233
25833
15832
7334
9233
10268
11553
12480
12950
13171
13389
13436
13687
13800
13985
14085
14348
14582
14841
15196
15655
15994
16518
16941
17253
17283
17400
17194
16801
16255
15446
14298
13215
12326
11700
11405
11140
11025
11031
11082
11130
11398
11426
11562
11568
11795
11864
11934
11944
12014
11813
11750
11912
12072
12071
11958
12046
12343
12774
12956
13027
12926
12866
12550
12422
12226
12252
12222
12206
11990
12448
15560
20565
25365
18202
7025
8688
10341
11513
12447
12886
13119
13224
13433
13574
13881
13957
14147
14247
14642
14900
15158
15532
15949
16327
16777
17013
17128
17082
16884
16544
15976
15112
14092
13081
12185
11743
11347
11147
10991
11070
11066
11110
11176
11377
11472
11528
11630
11737
11861
11834
11851
11787
11844
11803
11940
11840
11792
11624
11862
12244
12699
13035
13097
12963
12877
12795
12603
12384
12314
12218
12177
11961
12525
15962
20889
25533
17024
7229
8862
10408
11608
12561
13022
13306
13489
13661
13782
13963
14144
14166
14516
14922
15150
15310
15712
16188
16658
17106
17306
17233
17311
17180
16923
16363
15629
14489
13383
12562
12015
11585
11394
11282
11297
11442
11456
11632
11754
11880
11925
11998
11878
11939
11917
11980
12100
11954
12007
11924
11973
12035
12370
12722
13017
13080
13038
12896
12684
12481
12270
12130
12260
12241
11967
11885
14384
18971
24696
21933
8596
7973
10002
11270
12220
12954
13124
13440
13533
13693
13734
13983
14064
14358
14595
14857
15199
15623
15916
16473
16914
17191
17309
17334
17187
16883
16481
15716
14818
13727
12917
12127
11738
11418
11319
11215
11304
11407
11668
11708
11832
11930
11942
12003
11929
11933
11831
11946
11998
12039
11956
11927
11797
12089
12408
12877
13115
13220
12999
12810
12549
12335
12218
12181
12209
12172
11982
12759
16284
21375
25139
15486
6688
9003
10485
11674
12559
13028
13291
13378
13437
13678
13870
14052
14278
14486
14637
14972
15208
15553
16125
16559
16835
17274
17401
17394
17061
16726
16190
15412
14357
13385
12495
11920
11545
11364
11296
11236
11333
11338
11458
11614
11780
11683
11768
11627
11735
11732
11841
11890
11929
11830
11804
11868
12008
12338
12733
13106
13032
12950
12595
12396
12225
12182
12155
12326
12176
11915
13043
16703
22193
24625
13069
6947
9292
10541
11810
12670
12980
13086
13392
13503
13705
13855
14024
14115
14488
14668
15034
15336
15870
16318
16631
16857
17058
17291
17219
16900
16525
16065
15198
14232
13210
12350
11755
11417
11255
11215
11143
11342
11598
11729
11687
11704
11833
11838
11792
11909
11852
11839
12066
12033
11968
11806
11990
12402
12931
13085
13064
12923
12871
12691
12441
12189
12135
12230
12218
11769
12435
15819
21203
25100
14844
7098
9202
10481
11651
12612
13029
13318
13458
13590
13617
13728
14087
14341
14350
14584
14918
15306
15713
15960
16372
16908
17223
17334
17217
16957
16690
16158
15378
14293
13329
12447
11862
11341
11190
11211
11256
11335
11335
11570
11663
11725
11926
12040
11863
11903
11939
12079
11979
11974
11875
12144
12745
13257
13658
13571
13044
12658
12411
12184
12080
11990
12059
11782
11537
13600
18738
24597
21368
8010
7749
9661
10766
11905
12425
12704
13046
13194
13249
13305
13455
13506
13545
13760
14229
14645
15065
15640
15995
16324
16696
17061
17168
17079
16828
16347
15580
14710
13661
12952
12227
11616
11314
11159
11269
11288
11411
11441
11594
11809
11863
11935
12023
12079
12096
11941
11907
11844
12022
12394
12896
13233
13210
13008
12722
12459
12111
12120
12154
12223
12108
11688
13134
17347
22762
22889
10517
7117
9484
10808
12065
12690
12931
13142
13389
13415
13727
13960
14005
14151
14404
14506
14866
15290
15738
16029
16448
16854
17189
17227
17139
16813
16472
16104
15223
14249
13172
12446
11690
11362
11234
11136
11223
11344
11413
11516
11468
11803
11889
11898
11764
12046
11956
11811
11735
11966
12602
12869
12907
12822
12836
12646
12471
12216
12012
11999
12067
11657
11458
13671
18414
23905
21182
8375
7860
9775
11120
12176
12777
12988
13081
13210
13299
13592
13683
13847
14125
14402
14627
14931
15279
15763
16242
16609
16992
17174
17151
16962
16730
16277
15750
14832
13983
12890
12083
11563
11309
11112
11170
11176
11328
11435
11554
11606
11695
11612
11750
11999
12073
11982
11804
12110
12687
12920
12980
13053
12824
12630
12523
12340
12047
12141
12141
11765
11428
13743
18419
24068
21175
8376
8160
9961
11182
12163
12869
12995
13176
13431
13667
13810
13953
14073
14242
14401
14651
14999
15408
15829
16203
16640
17038
17298
17422
17265
16915
16518
15787
14835
13774
12768
11960
11605
11280
11122
11312
11275
11173
11384
11514
11684
11732
11696
11774
12044
11972
11609
11728
12205
12614
12900
13008
12889
12819
12512
12313
12212
12087
12089
11889
11327
11638
14973
20407
25116
16666
7305
9064
10310
11690
12455
12899
13215
13330
13495
13675
13798
13891
13929
14064
14346
14765
15082
15462
15764
16330
16809
17250
17372
17416
17105
16836
16334
15635
14580
13485
12574
11877
11465
11300
11212
11277
11315
11292
11434
11499
11627
11690
11925
11891
11994
11836
11878
11839
11997
12435
12847
13006
12981
12885
12561
12408
12317
12209
