11891
11817
12082
12143
11869
11751
12027
12585
12796
12850
12886
12950
12745
12508
12349
12285
12205
12216
12000
11889
14113
18650
23953
23258
10173
7697
9976
10983
12129
12791
13136
13282
13374
13549
13844
14169
14385
14616
14750
15023
15153
15624
15916
16394
16677
17141
17381
17603
17543
17404
17118
16590
15543
14380
13371
12424
11839
11315
11027
10843
10978
10992
11178
11254
11479
11470
11671
11769
11817
11772
11734
11789
11795
11746
11832
11758
11970
12076
11984
11891
12094
12664
13010
13128
12996
12916
12671
12659
12485
12340
12221
12394
12152
11998
13476
17594
23139
24828
12550
7362
9436
10616
11910
12659
13117
13281
13480
13532
13688
13873
14140
14314
14511
14713
15193
15457
15820
16280
16705
17167
17522
17734
17727
17696
17216
16645
15712
14787
13560
12653
11732
11497
11098
11076
11058
11011
11192
11335
11381
11447
11539
11467
11760
11717
11880
11719
11864
11818
11944
11724
11889
12023
11907
11775
12007
12355
12861
13010
13047
13006
13007
12986
12877
12656
12325
12409
12410
12169
12011
14538
19178
25180
22936
9143
8005
9941
11080
12053
12659
13016
13256
13519
13768
13881
14017
14088
14265
14455
14832
15036
15581
15761
16261
16802
17367
17569
17757
17782
17624
17242
16555
15602
14524
13571
12610
11868
11376
11308
10999
11104
11140
11139
11148
11308
11508
11598
11670
11666
11758
11816
11939
11918
11735
11644
11737
11879
11979
11804
11788
11922
12627
12940
13176
12977
12988
12813
12594
12372
12324
12217
12260
12259
11978
12535
15900
21115
25940
19374
7414
8572
9884
11413
12327
12916
13114
13415
13550
13709
13924
14215
14295
14417
14611
14930
15249
15631
16109
16473
17037
17394
17652
17657
17589
17378
17085
16230
15245
14107
13215
12384
11644
11134
11039
10917
10851
10909
11003
11386
11428
11449
11412
11569
11619
11771
11743
11862
11750
11747
11673
11881
11786
11785
11562
12080
12523
12664
12684
12824
13033
12812
12569
12306
12233
12217
12294
12033
11897
13429
17874
23025
24786
12948
7418
9714
10492
11742
12345
12750
13268
13423
13371
13670
13910
14189
14325
14664
14796
14959
15437
15946
16279
16875
17394
17576
17705
17704
17629
17260
16665
15690
14685
13562
12482
11614
11400
11215
10984
10850
11083
11031
11288
11396
11323
11456
11506
11581
11594
11788
11754
11749
11682
11731
11956
12000
11824
11815
11937
12422
12705
12960
12914
12916
12707
12598
12480
12311
12157
12267
12344
12045
12795
16319
21421
25536
17421
7039
8977
10080
11292
12228
12970
13100
13437
13651
13747
13777
14101
14321
14479
14659
14936
15416
15583
16026
16501
17100
17492
17867
17786
17606
17377
17135
16259
14993
13822
12909
12179
11497
11075
11086
11078
10918
11108
11234
11330
11275
11461
11643
11781
11642
11702
11697
11717
11815
11841
11757
11835
11845
11924
11743
11788
12120
12621
12960
12952
12990
12837
12690
12455
12520
12407
12305
12237
12154
11822
13708
18161
24040
24637
11540
7573
9515
10715
11977
12764
13024
13284
13411
13598
13717
13956
14055
14314
14398
14779
15001
15199
15589
16340
16922
17278
17495
17608
17733
17614
17374
16667
15829
14597
13503
12475
11997
11542
11297
11105
11102
11076
11126
11342
11393
11411
11475
11505
11492
11770
11800
11756
11709
11768
11837
11918
11864
11992
11957
12035
11913
11857
11891
12438
12863
13094
12965
12828
12991
12806
12644
12593
12450
12305
12480
12268
12017
13580
18117
23873
24989
12000
7329
9442
10846
12112
12918
13253
13233
13468
13685
13921
14025
14341
14395
14580
14720
15107
15392
15892
16365
16838
17289
17756
17863
17969
17969
17589
16977
16110
15107
13877
12890
12031
11476
11114
11248
11120
11113
11135
11298
11378
11361
11562
11849
11798
11700
11654
11712
11696
11735
11733
11740
11833
11947
12036
11984
12024
12044
12117
11959
11981
12397
12892
13055
13162
13223
13089
12947
12920
12688
12499
12460
12464
12279
12131
14457
18958
24799
23574
10163
7847
9733
10799
12122
12803
13163
13302
13608
13748
13915
14084
14225
14403
14610
15040
15253
15691
15918
16453
16867
17375
17588
17723
17798
17735
17386
16830
16030
14899
13660
12685
11906
11272
11207
11095
11053
10987
11151
11147
11370
11241
11411
11469
11631
11734
11846
11689
11718
11706
11713
11729
11670
11741
11872
11907
11848
12050
11979
11860
11928
12626
12980
13141
13024
13007
12790
12727
12499
12496
12616
12559
12297
11896
12970
16743
22058
25681
15743
7171
9342
10329
11599
12580
13187
13287
13393
13534
13810
13916
13956
14229
14638
14800
14875
15418
15690
16168
16580
17180
17611
17891
17856
17851
17431
17056
16338
15379
14126
12946
11897
11520
11163
11043
11028
11010
11110
11191
11373
11439
11574
11588
11719
11641
11840
11820
11824
11707
11895
11868
11943
11864
11893
11852
11869
12064
12256
12245
12086
12090
12389
12828
13046
13233
13087
13123
12955
12845
12815
12754
12585
12613
12454
12102
13607
17718
23674
24964
12475
7510
9481
10714
12045
12689
13096
13290
13604
13738
14023
14029
14071
14343
14626
14763
15070
15433
15771
16302
16652
17210
17533
17702
17767
17788
13972
12873
12053
11481
11292
11126
10975
10931
11122
11171
11269
11405
11441
11570
11810
11699
11817
11753
11845
11860
11925
11943
11983
11893
11768
11887
11977
12093
12135
12122
11982
12279
12535
13114
13261
13284
13123
13030
12877
12843
12527
12571
12543
12365
12155
12882
16291
21373
25927
17596
7356
8814
10318
11679
12738
13153
13437
13528
13635
13698
13958
14218
14393
14594
14637
15018
15383
15755
16115
16590
17093
17619
17750
17894
17829
17551
17044
16391
15287
14139
13002
12181
11558
11251
11127
11113
11122
11146
11123
11222
11504
11577
11661
11549
11684
11571
11710
11718
11811
11786
11719
11605
11637
11783
11927
12118
12062
11819
11737
12356
12946
13246
13039
13059
12989
12857
12633
12504
12373
12401
12329
12111
12549
15365
20003
25285
21550
8397
8137
9721
11102
12306
12985
13237
13562
13730
13831
13860
14114
14225
14428
14651
14879
15124
15529
16104
16530
17074
17476
17709
17810
17781
17581
17259
16398
15347
14192
13297
12311
11752
11189
11095
10970
10962
10907
10993
11037
11316
11419
11471
11604
11621
11694
11479
11690
11684
11682
11691
11853
11758
11785
11614
11860
11890
12256
12582
12804
12971
12981
12854
12518
12551
12328
12250
12075
12249
11993
12138
14406
18700
24072
22853
9754
7689
9732
10803
11878
12500
12997
13164
13509
13530
13851
14011
14088
14168
14477
14828
15205
15391
15991
16458
17116
17359
17687
17774
17792
17593
17243
16459
15354
14250
13217
12366
11660
11279
10969
10855
10855
11079
11041
11208
11165
11202
11499
11664
11665
11637
11587
11774
11860
11827
11905
11864
11929
11795
11790
11845
12261
12558
12881
13104
13159
12983
12887
12690
12499
12227
12219
12349
12161
11921
13336
17353
22545
25352
14249
7043
9197
10322
11646
12575
13010
13399
13491
13608
13704
13946
14166
14271
14457
14656
15062
15272
15746
16277
16738
17157
17624
17842
17910
17689
17455
16772
15893
14741
13656
12579
11896
11377
11113
10982
11055
11116
11134
11225
11275
11270
11435
11628
11702
11784
11606
11760
11692
11790
11806
11816
11774
11901
11840
11630
11845
12309
12770
13055
13028
12773
12676
12502
12557
12205
12206
12315
12192
11931
12315
15263
20106
25410
20388
7742
8356
9949
11203
12116
12733
13155
13323
13529
13592
13819
14015
14163
14299
14497
14727
15282
15652
16166
16545
17017
17340
17681
17807
17652
17414
16833
16169
15428
14378
13036
12102
11469
11211
11137
11063
10996
11145
11138
11446
11546
11404
11396
11649
11717
11698
11626
11676
11820
11778
11787
11790
11915
11942
11919
11814
11886
12379
12847
13124
13020
12920
12829
12754
12629
12372
12236
12340
12376
12102
12413
15894
20859
25687
18605
7382
8532
10081
11497
12395
12972
13318
13413
13591
13706
13885
14178
14281
14356
14578
15218
15475
15873
16264
16723
17137
17633
17733
17719
17676
17678
17078
16350
15260
14128
12975
12165
11561
11226
11044
10960
11034
11104
11253
11274
11387
11316
11641
11659
11785
11792
11755
11583
11664
11733
11822
11699
11692
11761
11715
12091
12343
12775
12929
12993
12884
12885
12527
12456
12039
11987
12146
12219
11976
12695
16150
21260
25816
17703
7100
8765
10012
11281
12370
12797
13144
13199
13554
13741
13906
13985
14293
14474
14766
14952
15376
15565
16080
16535
17031
17407
17691
17580
17345
17179
16758
15923
14719
13617
12620
11935
11332
11158
11067
11029
10972
11160
11316
11389
11313
11296
11443
11455
11667
11666
11780
11685
11749
11690
11788
11775
11838
11637
11739
12126
12488
12786
13032
12918
12776
12727
12503
12250
12207
12342
12295
12113
11770
13216
17041
22421
25241
14290
7184
9388
10466
11676
12562
12957
13151
13303
13558
13572
13829
13884
14259
14549
14779
14936
15467
15674
16213
16747
17182
17417
17602
17545
17465
17159
16563
15569
14496
13414
12588
11944
11286
11139
11078
11087
11110
11279
11219
11361
11417
11718
11725
11873
11818
11712
11704
11816
11887
11937
11953
11857
11924
11848
11751
11751
12265
12603
13027
12946
12990
12853
12767
12481
12379
12289
12298
12269
12054
12080
14398
18921
24726
22893
9355
8025
9631
11026
12057
12908
13104
13167
13405
13694
13877
13995
14043
14446
14633
14967
15151
15380
15899
16520
17032
17297
17548
17564
17647
17372
17018
16302
15487
14253
13274
12174
11662
11378
11272
11097
11007
11176
11297
11370
11298
11449
11493
11698
11721
11769
11667
11856
11795
11835
11853
11918
11807
11967
12074
12002
11863
11889
12330
12891
13284
13131
13113
13017
12952
12753
12488
12382
12493
12452
12240
12164
14511
19049
24908
23231
9629
7871
9576
11103
12252
12928
13047
13448
13620
13766
13838
14171
14294
14503
14731
15088
15183
15690
16022
16485
16891
17378
17501
17659
17584
17404
17107
16449
15596
14504
13428
12435
11785
11342
11224
11031
11043
11054
11198
11332
11436
11504
11621
11720
11622
11689
11748
11742
11786
11810
11712
11852
11800
11810
11841
11895
11846
12132
12151
11997
11851
12250
12772
13126
13147
13071
13155
12956
12848
12595
12501
12520
12641
12286
12425
14730
19261
24897
22576
9181
7940
9792
11263
12392
13191
13317
13449
13696
13729
13942
14068
14309
14519
14800
14892
15211
15515
16060
16528
16988
17166
17405
17580
17532
17395
17043
16443
15468
14554
13406
12511
11845
11536
11179
11053
10871
11073
11301
11399
11271
11420
11501
11671
11630
11653
11655
11652
11746
11675
11751
11749
11825
11720
11742
11735
11969
11936
11907
12037
12595
12814
13044
13109
13110
13074
12719
12466
12378
12488
12496
12527
12171
12653
15607
20593
25643
19463
7058
9390
10466
11837
12657
13083
13175
13413
13462
13738
13958
14040
14175
14387
14744
14937
15379
15772
16297
16642
17192
17330
17734
17755
17671
17359
16915
16082
15167
14092
12939
12048
11521
11343
11074
11198
11155
11146
11230
11505
11525
11609
11670
11670
11614
11804
11721
11723
11768
11748
11893
11878
11876
11916
11952
11983
12125
11892
11779
12222
12884
13066
13200
13010
12983
12914
12810
12538
12427
12472
12379
12218
12111
14479
20795
25818
18558
7353
8761
10279
11534
12565
13013
13280
13380
13530
13577
13821
14068
14194
14457
14657
14959
15372
15707
15949
16492
16952
17375
17441
17615
17542
17535
17160
16514
15486
14437
13303
12414
11660
11369
11141
10972
11064
11121
11401
11381
11431
11377
11589
11648
11678
11639
11828
11750
11782
11846
11916
11838
11792
11844
11949
11984
11987
12015
11866
11977
12391
12927
13021
12945
12995
13047
12762
12637
12444
12347
12411
12386
12008
13293
17274
22872
25299
13723
7064
9323
10749
11965
12781
13061
13328
13318
13541
13625
13765
13920
14331
14451
14814
15018
15275
15678
16185
16597
17042
17460
17674
17744
17549
17452
17016
16316
15260
14274
13107
12410
11671
11316
11104
11104
10994
11140
11377
11383
11379
11444
11653
11739
11731
11669
11818
11766
11776
11527
11789
11662
11846
11901
11923
12061
12074
11972
12077
12575
12934
13144
13085
13154
12896
12711
12517
12447
12346
12394
12243
12206
13993
18340
23960
24217
10759
7240
9487
10809
12047
12875
13035
13264
13587
13641
13783
13972
14188
14216
14553
14788
15203
15541
15901
16224
16798
17136
17481
17704
17728
17636
17353
16856
16109
15057
13821
12863
12055
11609
11167
10954
10934
11027
11128
11206
11139
11267
11427
11633
11718
11580
11641
11617
11573
11577
11739
11805
11765
11775
11943
11704
11862
11850
12170
12442
12863
12962
12868
12990
12609
12385
12377
12268
12256
12346
12196
12647
15511
20345
25390
19993
7409
8538
9897
11265
12249
13006
13181
13319
13404
13612
13677
14085
14289
14348
14596
14808
15276
15608
16081
16454
16923
17357
17711
17501
17593
17515
17216
16533
15467
14402
13469
12546
11707
11420
11145
10933
10866
11070
11193
11350
11349
11564
11516
11797
11850
11875
11835
11805
11824
11839
11810
11716
11861
11974
12018
11922
12156
12402
12775
12971
13056
12933
12996
12691
12559
12311
12418
12354
12209
11912
12746
16301
21484
25854
17364
7165
8876
10249
11513
12526
12895
13209
13305
13536
13796
13995
13846
14232
14413
14726
14828
15169
15605
15990
16513
16935
17391
17591
17746
17537
17402
16880
16198
15181
14067
13122
12418
11651
11204
11058
10931
10998
11067
11213
11295
11418
11608
11653
11630
11767
11641
11797
11734
11802
11857
11831
11777
11795
11897
11967
11945
12078
11968
11998
12786
13120
13096
13018
12962
12886
12796
12613
12459
12377
12484
12186
12201
14220
18583
24391
23978
10215
7742
9646
11086
12262
12882
13148
13246
13549
13620
13783
13933
14132
14297
14613
14626
15098
15433
15774
16155
16642
17069
17381
17581
17618
17620
17355
16805
15927
14933
13757
13014
11956
11500
11267
11230
11045
11103
11202
11374
11546
11600
11548
11581
11650
11705
11677
11760
11892
11783
11695
11702
11946
11874
11816
11903
12109
11958
11923
12019
12285
12032
12278
12644
13116
13214
13218
13186
13163
12965
12762
12577
12558
12680
12456
12247
13242
16968
22397
25891
15762
7333
9291
10500
11874
12660
13053
13283
13538
13619
13803
14008
14169
14210
14494
14713
14840
15115
15774
16246
16612
16928
17483
17708
17739
17653
17464
17220
16334
15428
14359
13402
12470
11874
11389
11280
11161
11220
11078
11335
11529
11652
11621
11554
11704
11851
11888
11782
11923
11882
11855
11821
11881
11982
12140
12051
12061
11997
12043
12094
12197
12195
12136
12151
12753
13021
13331
13342
13221
13181
13073
12953
12677
12534
12619
12705
12315
12627
15406
20437
25781
21103
7991
8282
9942
11485
12541
13085
13311
13402
13620
13833
14002
14062
14286
14445
14764
14890
15347
15579
16042
16502
17010
17335
17580
17628
17648
17536
17253
16733
15887
14925
13680
12833
12004
11653
11302
11124
10894
11088
11172
11308
11311
11456
11402
11667
11687
11814
11781
11685
11678
11902
11954
11846
11798
11808
11791
11854
11963
11921
12039
12032
12144
12465
12922
13164
13292
13084
12889
12859
12719
12530
12405
12426
12478
12262
12428
15553
20321
25628
20970
7985
8460
10070
11128
12248
12916
13175
13418
13560
13718
13806
13936
14053
14326
14607
14909
15132
15605
15994
16443
16766
17192
17500
17698
17646
17363
17161
16571
15508
14463
13552
12523
11750
11118
11174
11027
10825
10884
11203
11308
11432
11526
11613
11453
11576
11682
11709
11810
11789
11688
11785
11844
11818
11738
11783
11883
11854
11969
11839
12270
12715
13026
12833
12922
12929
12870
12662
12351
12253
12332
12400
12274
12266
14551
19153
24963
22858
9168
8009
9823
11163
12215
13058
13187
13308
13386
13657
13981
14010
14089
14483
14759
14778
15052
15437
15848
16220
16715
17191
17617
17742
17804
17599
17098
16592
15857
14788
13541
12446
11667
11296
11158
11003
11039
11169
11140
11135
11259
11489
11447
11604
11603
11573
11682
12016
11872
11819
11844
11932
11930
12011
11876
11842
12001
12103
11934
11897
12527
12937
13233
13284
13327
13150
12924
12648
12667
12319
12533
12550
12237
12161
14286
18745
24659
23876
10130
7807
9660
10981
12202
13042
13232
13380
13503
13818
13967
14162
14235
14461
14525
14723
15170
15602
16043
16361
16729
17177
17585
17721
17909
17693
17385
16838
15736
14620
13670
12608
11922
11328
11106
11003
11100
11147
11276
11386
11471
11644
11564
11550
11598
11696
11741
11870
11705
11816
11781
11945
11951
11980
11909
11924
12037
12119
12012
11928
12221
12630
13031
13225
13151
13036
12903
12758
12783
12463
12395
12464
12538
12095
13038
16525
22099
25937
16418
7096
8944
10260
11646
12663
13129
13441
13570
13603
13718
14143
14314
14521
14521
14793
14974
15367
15711
16087
16531
16866
17435
17826
17659
17555
17482
17049
16187
15082
14049
12962
12095
11497
11215
10907
11027
10914
11015
11208
11392
11358
11423
11517
11721
11643
11614
11659
11701
11821
11626
11575
11669
11905
11772
11747
11771
11939
11726
11952
12401
12877
13073
12979
12984
12870
12766
12534
12403
12365
12444
12250
12069
12718
16253
21278
25870
18363
7164
8743
10137
11349
12276
12865
13280
13467
13592
13758
13829
14116
14193
14496
14594
14830
15061
15684
16117
16646
16972
17393
17531
17789
17592
17324
16777
15934
14909
14079
13000
11992
11381
11067
10966
10811
10954
10974
11149
11180
11380
11356
11573
11661
11677
11598
11789
11704
11674
11619
11701
11841
11730
11832
11987
12053
11845
11843
12016
12508
12839
13156
12905
12901
12859
12684
12490
12374
12300
12238
12457
12145
13070
16672
22262
25818
15676
7058
9279
10287
11728
12607
12951
13209
13528
13632
13841
13886
13924
14393
14458
14712
15219
15395
15746
16270
16705
17213
17384
17568
17601
17660
17210
16893
15922
14820
13566
12682
11824
11395
11232
11136
11056
10982
11292
11404
11419
11421
11612
11602
11772
11665
11829
11819
12011
11913
11846
11799
11968
11963
11965
12020
12051
12115
12046
12054
12006
12554
12975
13305
13233
13293
13195
13059
12816
12642
12563
12567
12455
12199
12177
14546
19096
25095
23578
9804
8158
9766
11206
12166
12818
13092
13362
13560
13702
13781
14150
14173
14384
14603
14992
15328
15649
15950
16403
17000
17464
17665
17693
17809
17462
17160
16480
15487
14277
13348
12415
11908
11272
11200
11104
10971
11144
11204
11322
11258
11431
11497
11607
11609
11677
11583
11691
11810
11933
11815
11708
11587
11687
11896
11926
12001
12026
11820
11808
12143
12490
12871
13070
13058
13075
13007
12855
12692
12404
12378
12354
12347
12086
13180
16859
22432
25779
15284
7184
9025
10523
11845
12577
13147
13341
13504
13734
14009
14101
14159
14288
14485
14843
15159
15495
15817
16153
16662
17129
17416
17635
17717
17656
17282
16786
16108
15150
14047
12866
12081
11554
11283
11069
10936
10982
11201
11263
11398
11345
11378
11475
11589
11712
11756
11820
11816
11757
11741
11719
11796
11814
11782
11995
11953
11849
11756
12229
12696
12904
13050
13018
12954
12831
12616
12365
12384
12390
12464
12052
12140
14799
19421
24929
22744
9113
7988
9879
11476
12443
13061
13237
13515
13549
13698
14006
14214
14328
14465
14623
14903
15339
15602
16008
16591
17040
17289
17594
17735
17775
17574
17110
16330
15327
14211
13110
12213
11576
11269
11162
10986
10871
10873
11014
11326
11368
11545
11558
11602
11646
11709
11601
11780
11776
11773
11924
11857
11957
12038
11888
11723
11855
12244
12597
12870
13005
13032
12927
12673
12513
12330
12237
12442
12533
12214
12387
14957
19550
25184
21819
8684
9386
10406
11476
12602
12964
13159
13506
13626
13661
13774
14167
14326
14523
14658
14886
15242
15565
15907
16597
17044
17291
17655
17803
17698
17505
16979
16257
15248
14102
12978
12233
11587
11319
11247
11130
11083
11104
11232
11334
11394
11406
11597
11707
11803
11827
11960
11940
11989
11819
11888
12019
12085
12032
11942
11869
12016
12430
12824
13134
13163
13036
12927
12885
12738
12525
12321
12306
12388
12234
12181
14759
19605
25207
17247
7097
8989
10438
11858
12533
13036
13348
13534
13581
13637
13884
14181
14293
14401
14637
14941
15329
15739
15997
16394
16938
17185
17581
17590
17674
17270
16573
16161
15239
14079
13336
12382
11716
11376
11358
11284
11151
11191
11260
11331
11472
11616
11665
11703
11642
11766
11806
11771
11800
11812
11889
11912
11848
11884
11973
11896
11826
12139
12579
13012
13012
12973
13060
12925
12525
12290
12290
12436
12310
12142
12096
13605
17711
25147
22484
8849
8004
9829
10994
12179
12886
13197
13291
13428
13542
13778
13968
14069
14235
14484
14874
15134
15429
15913
16343
16754
17102
17407
17670
17579
17371
17073
16596
15828
14828
13702
12751
11881
11366
11247
11095
10947
11057
11177
11327
11448
11569
11533
11510
11654
11853
11845
11834
11774
11789
11917
11846
11862
11870
12018
11857
11892
11988
12146
12530
13007
13221
12997
12885
12785
12684
12471
12300
12351
12387
12233
12485
15367
20383
25701
20856
8024
8338
9847
11211
12203
12970
13219
13307
13403
13622
13964
14044
14121
14373
14766
14819
15108
15564
15931
16360
16937
17400
17613
17530
17672
17538
16955
16287
15500
14533
13382
12523
11775
11440
11169
11086
11001
11022
11158
11214
11320
11537
11528
11609
11885
11974
11865
11668
11739
11891
11919
11906
11839
11773
11922
11969
12010
12236
12561
13005
13118
12908
12739
12664
12515
12338
12298
12372
12371
11957
12726
16325
21621
25684
16901
7167
9033
10090
11391
12364
12851
13024
13279
13565
13665
13754
13867
14072
14467
14674
14776
15214
15596
15949
16397
16780
17182
17444
17671
17602
17219
16659
15908
14879
13971
13014
12096
11409
11244
11167
11063
10994
11033
11251
11213
11363
11542
11702
11748
11707
11706
11872
11881
11795
11654
11989
12027
12087
12109
11958
11856
11910
12486
12728
12919
13014
13018
12902
12674
12560
12340
12340
12407
12071
11788
13025
16931
22554
25770
15065
7582
9346
10453
11760
12635
12996
13086
13278
13681
13912
13836
13792
14230
14557
14694
14837
15055
15608
16109
16621
16909
17283
17541
17639
17574
17325
16758
16003
15025
13926
12950
12134
11624
11286
11220
11116
11144
11239
11335
11476
11477
11487
11679
11782
11845
11736
11796
11864
11862
11964
11910
11877
11938
12190
12260
12101
11979
11917
12428
12923
12996
13066
13009
13129
12890
12530
12569
12522
12403
12395
12108
12456
15348
20229
25836
20488
7902
8406
10060
11426
12331
12817
13148
13295
13507
13717
13782
13909
14070
14377
14661
14837
14969
15375
15946
16435
16854
17163
17448
17648
17614
17367
16950
16218
15391
14398
13374
12509
11807
11400
11028
11034
11168
11163
11188
11281
11339
11434
11503
11684
11759
11636
11804
11803
11817
11848
11782
11775
11742
11788
12001
12077
11976
11807
11825
12423
12868
13024
13059
13201
13070
12725
12756
12539
12367
12275
12338
12133
12764
16145
21483
25969
17579
7124
8956
10433
11623
12434
13079
13317
13491
13471
13616
14128
14323
14257
14350
14628
14878
15431
15816
16026
16453
17010
17538
17654
17615
17699
17522
17089
16286
15453
14481
13363
12329
11607
11333
11199
10998
11033
11276
11428
11309
11302
11414
11675
11724
11684
11643
11732
11835
11663
11754
11793
11858
11892
11989
11945
11929
11856
11894
12245
12687
13052
13001
12937
12958
12788
12653
12407
12324
12234
12321
12137
12404
15375
20355
25641
20585
7888
8594
9997
11121
12323
13006
13231
13256
13366
13701
13889
14084
14234
14372
14487
14865
15148
15509
15962
16285
16771
17324
17589
17647
17480
17355
17060
16277
15434
14444
13317
12277
11635
11276
11172
11048
10839
11093
11381
11361
11369
11630
11587
11633
11830
11784
11695
11879
11998
11977
11771
11878
11954
11851
11974
12038
11974
12118
12699
12925
12964
13036
12966
12869
12592
12573
12576
12359
12479
12421
11977
12741
16200
21313
25791
17577
7498
9115
10459
11574
12482
12920
13290
13439
13543
13689
13914
13991
14033
14302
14636
14942
15365
15686
15953
16426
16912
17319
17539
17607
17637
17508
17079
16297
15142
14108
12975
12053
11567
11342
11113
11123
11125
11062
11161
11393
11609
11562
11604
11725
11818
11832
12032
11922
11899
11870
11874
11923
11839
11876
12066
12176
11862
11977
12340
12657
13122
13323
13055
13096
12905
12705
12596
12478
12452
12551
12208
12075
13982
18180
24105
24485
11093
7731
9611
11055
12368
12865
13099
13363
13591
13582
13712
14024
14343
14378
14508
14738
15085
15434
15698
15972
16498
17204
17586
17777
17613
17477
17126
16698
15618
14685
13560
12766
11923
11747
11495
11227
11057
11062
11044
11004
11259
11243
11557
11441
11665
11872
11913
11738
11731
11646
11649
11710
11956
11906
11901
11938
12066
11922
11802
11965
12476
13040
13187
12945
12958
13007
12627
12554
12311
12278
12374
12412
11971
13161
16982
22851
25806
14891
7121
9007
10493
12078
12720
13006
13276
13488
13799
13880
14045
13983
14201
14469
14829
15038
15288
15544
16189
16586
17090
17523
17584
17449
17484
17437
16944
16224
15164
14125
13001
12231
11621
11414
11151
10999
11102
11296
11334
11393
11442
11563
11602
11650
11775
11641
11677
11775
11773
11673
11757
11841
11984
11896
12013
11905
12134
12078
11970
11894
12568
13041
13185
13142
13067
13146
12939
12794
12556
12438
12327
12650
12345
12387
14765
19427
25268
22787
9167
8117
9830
11151
12466
13057
13277
13388
13532
13668
14048
14185
14232
14297
14544
14947
15307
15591
15956
16278
16726
17147
17477
17577
17726
17540
17224
16531
15765
14862
13679
12629
11691
11407
11172
11176
11084
11163
11123
11191
11397
11525
11513
11452
11446
11767
11778
11721
11650
11614
11736
11759
11806
11773
11779
11905
12082
11773
11810
12340
12846
12778
13056
13070
12901
12693
12577
12546
12448
12381
12421
12174
12161
14691
19043
24640
22660
9315
8217
10132
11078
12221
12868
13037
13374
13611
13733
13936
13805
14185
14490
14691
14886
14875
15455
15878
16378
16660
17205
17656
17861
17667
17469
17209
16518
15614
14690
13490
12469
12039
11580
11244
11082
10990
10887
11357
11296
11212
11353
11730
11681
11672
11654
11811
11686
11791
11794
11832
11978
11965
11850
11954
11998
11957
11797
11862
12671
12968
13082
13141
13277
13039
12726
12449
12365
12374
12391
12297
11876
12935
16750
22314
25941
16238
7479
9219
10528
11915
12499
13027
13272
13533
13583
13805
13862
14051
14153
14446
14741
14942
15232
15646
16022
16466
17062
17474
17597
17533
17597
17300
16845
15974
15302
14052
12874
11975
11540
11252
11116
11006
11052
11239
11327
11270
11347
11477
11615
11761
11709
11717
11670
11922
11845
11796
11665
11828
11899
11925
11902
12070
12020
12095
12139
12547
13020
13218
13176
13058
13143
12962
12681
12527
12635
12498
12487
12131
12795
15935
21059
25945
18938
7545
8765
10324
11707
12786
13159
13261
13435
13711
13740
13900
13938
14305
14461
14766
14868
15206
15569
16063
16504
16890
17298
17524
17562
17426
17367
16859
16282
15430
14427
13319
12487
11669
11362
11104
11045
10969
11128
11289
11558
11443
11527
11464
11615
11691
11726
11784
11727
11806
11726
11832
11744
11901
11841
11932
11966
11962
11793
11878
12449
12886
13098
13088
12941
13116
13027
12685
12475
12386
12362
12271
12286
12286
14363
18633
24690
24054
10557
7617
9638
11038
12151
12719
13038
13314
13387
13594
13762
14009
14144
14367
14579
14871
15025
15422
15777
16354
16726
17245
17562
17599
17523
17468
17268
16739
15882
14473
13300
12344
11666
11180
10980
10888
10962
10964
11171
11301
11572
11570
11656
11629
11591
11630
11805
11729
11775
11780
11811
11797
11809
11800
11992
12020
11819
11865
12199
12690
12881
13134
12997
12918
12644
12651
12476
12123
12136
12543
12283
12084
14185
18502
23969
24163
11164
7705
9684
10420
11866
12602
13114
13114
13227
13587
13812
13965
14061
14202
14366
14829
15157
15370
15707
16266
16578
17024
17317
17571
17593
17457
16903
16181
15290
14391
13242
12240
11465
11270
11094
10962
11078
11119
11186
11280
11309
11424
11556
11604
11829
11750
11817
11595
11701
11922
11962
12012
12054
11998
11987
11858
11821
12096
12442
12683
13023
13024
13046
12962
12769
12464
12268
12332
12267
12129
11844
12645
16374
21901
25886
16357
7542
9231
10430
11705
12544
12918
13067
13286
13546
13731
13633
14173
14546
14698
14883
15124
15402
15607
15997
16550
17039
17441
17730
17935
17793
17507
16877
15828
14772
13597
12508
11826
11448
11240
11093
10922
11194
11461
11386
11388
11515
11624
11565
11622
11724
11765
11759
11888
11883
11805
11875
11849
11826
11935
11920
11676
11861
12582
12957
13078
13064
13057
12987
12767
12556
12366
12371
12259
12170
12173
12885
16247
21390
25950
17890
7020
8688
10283
11641
12394
12944
13192
13423
13635
13682
13786
14023
14250
14499
14669
14890
15216
15657
16063
16492
16943
17362
17622
17481
17534
17374
16709
15822
14968
13877
12833
11934
11397
11258
11166
11140
11011
11121
11325
11347
11371
11464
11524
11626
11702
11740
11707
11624
11651
11734
11798
11767
11908
11880
11838
11762
12102
12580
12869
12957
12944
12800
12602
12449
12464
12310
12250
12213
12098
11915
13278
17280
23100
25371
13270
6823
9227
10707
11964
12630
12985
13172
13445
13571
13788
14018
14142
14253
14424
14629
15098
15402
15639
16152
16634
17152
17400
17596
17523
17398
17028
16504
15701
14551
13478
12590
11796
11369
11088
11196
11161
10972
11271
11449
11473
11582
11626
11643
11795
11868
11859
11734
11657
11754
11908
11861
11934
11946
11803
11857
12293
12659
12933
12953
12965
12908
12697
12353
12185
12258
12155
12322
12108
11983
14258
18956
24760
23450
9769
7793
9613
10886
12016
12588
12986
13173
13323
13580
13811
13970
14071
14260
14499
14804
15098
15430
15794
16294
16651
17492
17674
17521
17200
16718
16075
15124
13969
12892
12007
11437
11068
10849
11053
11171
11105
11047
11279
11408
11498
11533
11489
11547
11825
11875
11849
11751
11845
11933
11911
11888
11955
11960
12227
12498
12905
13019
12972
12942
12594
12467
12504
12387
12314
12230
12045
12067
14384
18963
24614
22573
9325
8439
10129
11160
12037
12754
13166
13265
13429
13526
13757
13905
14149
14318
14466
14734
15138
15514
15772
16126
16692
17015
17598
17582
17517
17204
16773
16085
14988
13800
12662
11887
11571
11291
11105
11006
11076
11226
11407
11497
11530
11391
11443
11813
11831
11715
11812
11863
12008
12026
11953
12035
12099
11925
11835
12138
12463
12781
13087
13206
12999
12756
12673
12594
12361
12321
12413
12326
11882
12637
16348
21875
25939
16821
7788
9490
10377
11588
12576
12993
13340
13449
13580
13691
13856
14094
14326
14326
14373
14730
15235
15680
15930
16528
16965
17278
17459
17393
17329
17013
16407
15483
14269
13459
12625
11814
11260
10940
10942
11053
10952
11127
11469
11708
11567
11528
11566
11690
11553
11481
11637
11863
11820
11875
11906
11972
12219
12143
11997
11818
12345
12853
13012
13001
13045
12960
12745
12512
12323
12341
12259
12101
11874
12643
16110
21610
25960
17608
7437
8979
10383
11804
12439
12942
13153
13247
13416
13752
13736
13924
14204
14401
14605
14827
15200
15458
15908
16392
16957
17471
17550
17340
17252
16931
16559
15783
14706
13596
12640
12023
11589
11130
10972
11010
11068
11174
11218
11366
11478
11665
11722
11888
11662
11708
11725
11828
11792
11793
11685
11834
11958
11895
12076
11962
11867
12021
12644
12893
13037
12848
13061
13012
12805
12527
12279
12206
12415
12329
12120
13154
17084
22710
25706
14626
7209
9158
10471
11903
12664
13171
13224
13334
13532
13701
13967
14061
14215
14430
14746
15017
15345
15620
16112
16827
17218
17293
17375
17528
17411
16963
16467
15652
14687
13636
12779
11965
11448
11046
11081
11094
11190
11180
11422
11556
11519
11611
11683
11731
11592
11698
11688
11786
11678
11645
11771
11948
11827
11810
11943
11980
11748
11982
12565
12873
13063
13081
13109
12992
12836
12649
12497
12294
12537
12416
12100
13064
17165
22529
25782
15350
7198
9234
10311
11743
12588
13048
13172
13437
13568
13826
13849
13967
14210
14505
14649
14896
15326
15936
16151
16695
17094
17427
17473
17384
17177
17095
16589
15592
14596
13488
12592
11767
11126
10945
11140
10788
11051
11292
11395
11364
11480
11470
11656
11699
11763
11601
11793
12101
12050
11924
11888
11969
11992
12101
11902
11769
11920
12627
13043
13226
13081
12949
12959
12834
12594
12261
12230
12393
12400
11907
13249
17189
22872
25587
14290
7574
9324
10553
12043
12701
12943
13214
13502
13621
13665
13863
13997
14274
14505
14791
15058
15389
15753
16251
16717
17171
17252
17462
17326
17263
16950
16374
15241
14276
13186
12416
11670
11250
11151
11077
10955
11073
11170
11309
11548
11392
11558
11568
11779
11871
11947
11857
11929
11869
11962
11925
11920
11945
11986
11950
11858
12020
12544
13179
13042
12971
13014
13012
12719
12656
12390
12470
12369
12217
11973
12954
16720
22185
25863
15871
7527
9223
10660
11957
12640
12710
13201
13442
13504
13787
14015
14152
14334
14510
14787
14830
15232
15914
16274
16674
17167
17528
17634
17672
17446
17116
16461
15642
14466
13520
12592
11873
11455
11419
11186
11240
11146
11111
11200
11335
11388
11403
11746
11836
11821
11749
11791
11791
11870
11719
11733
11739
11840
11986
12094
11958
11965
12391
12823
13087
13167
13118
13001
12819
12502
12566
12386
12389
12282
12192
12173
14354
18822
24640
23409
9725
7657
9695
11249
12255
12943
13098
13330
13458
13658
13820
14093
14161
14437
14694
15012
15186
15576
16001
16551
16790
17169
17417
17492
17324
17184
16887
16295
15370
14341
13328
12441
11824
11212
11215
11201
11271
11201
11302
11455
11589
11553
11692
11829
11893
11735
11709
11834
11871
11797
11872
11972
11844
12022
11962
11902
11928
12326
12723
13078
13149
13105
12895
12776
12606
12346
12275
12101
12441
12206
12457
15342
20417
25809
20664
7928
8520
9834
11463
12375
12888
13088
13400
13511
13605
13910
14197
14390
14579
14801
15045
15382
15758
16251
16641
16990
17322
17646
17462
17343
17040
16644
15893
15157
14009
12843
11909
11365
11193
11188
11064
11035
11070
11299
11402
11288
11493
11514
11593
11794
11832
11878
11882
11672
11667
11783
11903
11957
11816
11768
11984
12497
13029
13045
12895
12842
12561
12465
12511
12475
12199
12291
12302
12025
12993
16671
21771
25785
16397
7539
9287
10490
11829
12529
12965
13034
13330
13647
13797
13917
14084
14195
14490
14711
15031
15331
15954
16207
16744
17174
17540
17465
17297
17107
16832
16425
15349
14403
13373
12611
11785
11339
11148
11114
11033
11087
11155
11380
11360
11570
11702
11540
11600
11749
11817
11758
11710
11670
11791
11940
12094
11890
11946
12070
12429
12744
13061
13094
13067
12910
12676
12620
12394
12291
12300
12256
11804
12330
15428
20697
25903
19053
7675
8879
10228
11669
12373
12878
13156
13311
13464
13518
13859
14131
14299
14502
14669
14874
15294
15701
16110
16608
16880
17160
17369
17410
17408
16943
16344
15694
14783
13656
12610
11913
11384
11209
11099
11194
11279
11371
11240
11421
11456
11608
11487
11475
11719
11799
11832
11860
11799
11842
11873
11769
11838
11882
11916
11876
12363
12930
13229
13125
13080
13043
12886
12548
12370
12264
12365
12466
12094
12211
15018
20010
25664
21452
8265
8242
9993
11497
12383
13101
13192
13520
13356
13581
13809
13938
14023
14435
14800
14899
15121
15631
16073
16508
16843
17203
17411
17449
17318
16943
16557
15880
15046
13900
12885
12112
11656
11360
11229
11109
11113
11190
11368
11479
11414
11570
11690
11821
11769
11752
11815
11915
11863
11790
11727
11738
11717
11816
11773
11805
12032
12344
12835
13115
13096
13017
12894
12672
12530
12233
12210
12352
12397
12088
12949
16566
21974
25871
16364
7185
8973
10397
11683
12579
13064
13370
13555
13677
13765
13853
14021
14284
14494
14647
14976
15266
15713
16192
16511
16881
17265
17271
17384
17367
16968
16397
15537
14526
13484
12648
11817
11369
11242
11135
11149
11090
11148
11267
11427
11551
11538
11438
11600
11842
11809
11698
11715
11745
11751
11800
11886
11835
11755
11859
12264
12715
12929
12971
12911
12763
12552
12541
12339
12120
12084
12145
11921
12396
15333
20173
25441
19781
7500
8459
9966
11239
12219
12742
12971
13147
13346
13620
13781
13949
14248
14351
14701
14950
15253
15664
16078
16582
17003
17256
17417
17481
17291
17040
16579
15710
14624
13676
12739
11985
11412
11137
10955
11053
11189
11244
11350
11380
11477
11518
11640
11676
11710
11828
11810
11857
11781
11828
11942
11954
11843
11749
12094
12761
13042
13089
13032
12887
12743
12582
12429
12358
12281
12347
12143
11968
13408
17459
23504
25144
12590
7580
9556
10606
11775
12628
12993
13177
13423
13545
13856
14132
14132
14348
14613
14866
15115
15555
16018
16428
16877
17165
17363
17349
17382
17298
16814
16071
15223
14245
13094
12122
11683
11407
11180
11083
11181
11178
11309
11427
11573
11777
11846
11801
11925
11965
11863
11987
11849
11766
11926
11961
12060
11898
11901
12013
12375
12815
13119
12971
13008
13146
13046
12704
12423
12322
12384
12563
12163
11917
14591
19345
25151
22801
9148
8186
9784
11209
12247
12941
13117
13161
13313
13769
13899
14061
14198
14357
14587
14747
14891
15457
15955
16441
16902
17268
17353
17440
17294
17142
16759
15981
14901
13954
13124
12238
11736
11279
11151
11208
11166
11259
11270
11432
11682
11757
11674
11708
11722
11868
11839
11802
11814
11747
11715
11894
12083
12040
11866
11732
12063
12543
12886
13036
13087
12971
12824
12657
12456
12256
12351
12365
12141
12098
13528
17679
23452
25426
13129
7213
9280
10613
11946
12743
12997
13267
13343
14298
14507
14664
14839
15256
15697
16143
16507
16953
17375
17529
17415
17127
16875
16585
15886
14796
13599
12596
11961
11469
11243
11051
10940
11084
11239
11345
11368
11509
11569
11640
11660
11848
11723
11680
11884
11920
11823
11795
11790
11921
12034
11905
11786
12039
12502
12876
13072
13011
12926
12956
12709
12521
12350
12294
12351
12271
11938
13108
17097
22911
25719
14396
7123
9198
10578
11940
12633
13059
13406
13601
13599
13669
13840
14135
14193
14540
14877
15047
15371
15851
16302
16773
17139
17393
17427
17359
17111
16934
16468
15547
14426
13370
12549
11892
11461
11136
10991
10972
11090
11041
11249
11392
11488
11439
11535
11832
11935
11856
11757
11824
11835
11865
11859
11883
11977
11889
11714
12059
12474
12775
12993
12957
12894
12797
12589
12449
12371
12291
12332
12157
11968
13699
18044
23720
24826
11850
7435
9647
10658
11911
12647
13032
13252
13468
13686
13692
13885
14287
14511
14659
14868
15140
15382
15811
16323
16812
17130
17136
17454
17471
17178
16872
16086
15095
14149
13100
12296
11675
11227
11008
11138
11112
11198
11300
11370
11450
11545
11669
11689
11754
11776
11611
11849
11951
12058
12050
11995
11958
11940
11975
11824
12134
12614
13166
13068
12969
13075
12926
12715
12501
12315
12317
12340
12208
11963
14166
18833
24582
24155
10723
8122
9811
11299
12406
12935
13247
13503
13645
13847
13971
14108
14251
14355
14667
14991
15421
15782
16167
16497
16897
17294
17734
17703
17528
17304
16907
16206
15261
14343
13273
12212
11725
11456
11169
11238
11155
11148
11346
11503
11616
11586
11646
11727
11735
11764
11917
11875
11842
11861
11850
11988
12022
12055
12010
11833
11866
12107
12648
12942
12849
12763
12840
12581
12335
12191
12123
12076
12054
11874
12333
15429
20711
25882
18996
7306
8373
9897
11327
12267
12828
13052
13228
13393
13601
13780
13939
14092
14229
14424
14709
15038
15505
16023
16398
16827
17274
17425
17531
17330
17002
16526
15819
14859
13748
12818
12034
11548
11261
11056
11017
11079
11210
11365
11366
11356
11535
11766
11741
11729
11776
11810
11866
11924
11843
11834
11897
11946
11923
11901
11940
12033
12424
12831
12985
13146
13160
13052
12732
12539
12311
12234
12287
12329
12147
12563
15580
20676
25706
20044
7306
8182
10108
11517
12486
13109
13321
13537
13652
13836
14004
14138
14269
14382
14620
14934
15323
15621
16168
16649
17035
17303
17507
17606
17484
17237
16809
16066
15016
13999
13110
12383
11777
11360
11169
11077
11086
11246
11307
11367
11458
11495
11594
11694
11726
11785
11790
11783
11734
11873
11866
11820
11763
11996
12041
11970
11834
12300
12721
12976
13002
12976
12899
12815
12644
12412
12290
12516
12498
12311
12276
14426
18860
24192
23628
10173
7356
9413
10823
12022
12805
13261
13437
13543
13728
13903
14018
14140
14378
14645
14929
15114
15566
16080
16562
16946
17338
17570
17666
17561
17235
16957
16292
15360
14335
13149
12206
11726
11453
11274
11061
11042
11061
11149
11393
11498
11479
11630
11700
11633
11619
11661
11898
11891
11841
11828
11943
12013
11910
11876
11914
12015
12321
12678
12987
12930
12958
12858
12536
12469
12369
12293
12341
12297
12099
12768
16037
21304
25807
18030
7314
9044
10162
11350
12364
12986
13344
13480
13664
13821
14012
14150
14351
14513
14775
14911
15178
15709
16081
16706
17206
17410
17493
17539
17475
16928
16527
16014
14872
13629
12480
11766
11437
11237
11072
11146
11367
11320
11257
11382
11439
11540
11539
11749
11854
11823
11957
11850
11749
11772
11889
11862
11787
12009
12037
11924
11977
12389
12858
12918
12958
12981
13046
12858
12641
12412
12395
12413
12325
11990
12122
14878
19763
25570
21153
8101
8325
9954
11644
12473
13010
13218
13282
13517
13767
13876
13904
14185
14485
14715
14890
15205
15573
15985
16615
17100
17341
17584
17683
17555
17285
16779
16057
15156
14013
12870
12103
11617
11220
11183
11139
11038
11152
11281
11298
11403
11547
11713
11618
11568
11687
11918
11870
11768
11764
11799
11822
11842
11952
12129
12051
11903
11925
12279
12805
13005
13035
12969
13094
12886
12749
12585
12515
12510
12471
12187
12548
15573
20663
25826
19039
7229
9181
10643
11937
12762
13132
13226
13308
13501
13676
13932
14058
14192
14358
14633
15044
15476
15829
16173
16569
17056
17371
17498
17533
17465
17190
16640
15987
15042
13852
12757
12159
11646
11306
11193
11140
11062
11087
11280
11469
11513
11468
11586
11733
11756
11826
11777
11775
11866
11792
11883
11899
11903
11885
11993
12016
12039
11884
11894
12399
12900
13180
13057
13044
12937
12828
12732
12516
12374
12319
12329
12099
12362
16875
22240
25560
15149
6964
9013
10415
11788
12608
13081
13287
13335
13570
13778
13880
14103
14356
14586
14788
15031
15368
15811
16228
16592
17151
17483
17580
17755
17659
17436
17011
16263
15465
14299
13072
12214
11603
11265
11269
11117
11061
11025
11206
11498
11575
11524
11499
11497
11594
11671
11712
11720
11647
11657
11789
11893
11834
11887
11981
11911
11888
11907
12246
12642
12955
13016
12969
13008
12683
12494
12462
12396
12539
12409
11917
12942
16590
21819
25829
16475
7102
8938
10180
11651
12510
12972
13166
13401
13565
13723
14033
14119
14260
14443
14715
14901
15144
15739
16206
16461
16939
17309
17434
17579
17436
17248
16738
15996
15007
13826
12863
12139
11464
11067
11117
11111
11019
11109
11211
11328
11431
11544
11636
11605
11852
11878
11894
11883
11803
11851
11854
11912
11945
11883
11800
11815
12028
12483
12774
12953
12798
12768
12979
12801
12600
12323
12341
12304
12088
11804
13227
17263
22891
25316
13618
7443
9406
10531
11769
12562
12992
13284
13493
13642
13753
13965
14066
14278
14569
14661
15130
15578
15941
16275
16874
17197
17514
17691
17604
17416
17276
16868
15924
14826
13714
12731
11923
11362
11188
11118
11119
11005
11073
11385
11602
11618
11744
11674
11755
11844
11872
11848
11870
11889
12029
12085
12053
12037
12166
12094
11992
11828
11994
12401
13012
13263
13158
13161
12961
12791
12523
12226
12401
12470
12054
12036
14014
18284
24079
24513
11286
7580
9556
10842
11934
12665
13053
13356
13532
13656
13771
13938
14183
14285
14525
14784
14997
15400
15874
16346
16794
17079
17303
17528
17690
17567
17157
16560
15819
14943
13786
12757
11953
11435
11111
10944
11069
11261
11288
11232
11355
11540
11602
11593
11658
11707
11767
11716
11644
11665
11818
11823
11727
11892
12022
12012
11981
11926
11939
12363
12827
13149
13152
13078
13086
12835
12750
12638
12490
12444
12465
12292
12729
15939
21256
25960
18148
7407
8842
10262
11715
12747
13243
13394
13419
13654
13949
14129
14191
14217
14309
14614
15059
15358
15598
16129
16533
16966
17398
17601
17440
17457
17356
16987
16296
15162
14095
13244
12423
11737
11283
11085
11171
11220
11260
11173
11349
11651
11634
11637
11682
11589
11693
11747
11872
11859
11909
12002
11876
11985
12066
12046
12078
11918
11845
12047
12492
13079
13145
13156
13181
12911
12650
12592
12430
12376
12407
12268
12049
13925
18137
24007
24789
11705
7500
9424
10852
12024
12868
13124
13351
13562
13578
13769
13928
14086
14350
14505
14756
15036
15403
15773
16206
16720
17084
17411
17612
17524
17384
17258
16753
15800
14706
13851
12939
12075
11534
11340
11249
11134
11079
11240
11358
11484
11561
11582
11612
11671
11663
11649
11756
11869
11805
11784
11724
11777
11840
12013
12007
11848
11914
12608
13021
13142
13092
12968
12906
12541
12398
12406
12398
12447
12176
11982
13529
17560
23172
25170
13208
7606
9558
10616
11798
12536
13031
13291
13323
13526
13765
13954
14087
14141
14269
14744
15121
15437
15752
16172
16629
17074
17301
17413
17511
17321
17001
16458
15762
14728
13625
12592
11875
11401
11236
11126
11076
11114
11154
11267
11446
11471
11597
11684
11734
11842
11808
11870
11735
11908
11900
11862
11870
11939
11926
11859
12072
12514
12808
13085
13216
13119
12953
12793
12777
12519
12464
12446
12446
12109
12017
13990
18617
24603
23684
9973
7909
9676
11055
12171
12867
13254
13245
13452
13721
13773
13972
14245
14400
14501
14632
15056
15347
15840
16330
16763
17105
17369
17595
17531
17316
16874
16387
15518
14433
13356
12411
11588
11299
11088
11050
11006
11148
11295
11316
11481
11479
11418
11635
12071
12161
12067
11892
11864
11713
11745
11664
11791
11882
11883
11695
12012
12377
12865
13021
12983
12909
12910
12710
12576
12355
12184
12253
12239
11941
12257
15467
20364
25705
19921
7658
8311
10033
11470
12444
12868
13051
13322
13423
13648
13840
13972
14091
14312
14517
14816
15130
15520
15839
16334
16593
17037
17320
17301
17151
17121
16714
16133
15326
14311
13267
12285
11848
11422
11200
10998
11014
11132
11412
11407
11555
11480
11674
11738
11782
11789
11808
11657
11673
11743
11866
11878
11906
12030
11967
11957
12298
12592
12737
13178
13131
13137
12846
12685
12428
12351
12454
12554
12275
11956
13542
17603
23211
25101
12590
6972
9162
10726
12028
12734
13077
13148
13530
13668
13810
13794
13997
14176
14377
14619
15023
15328
15705
16189
16486
17088
17425
17512
17311
17260
16893
16528
15901
14837
13643
12768
12075
11570
11284
11184
11088
11098
11249
11330
11464
11453
11570
11530
11576
11573
11715
11607
11683
11858
11976
12031
12199
12040
11950
11921
12323
12646
12881
12817
12859
12821
12596
12535
12375
12399
12364
12333
11943
12623
15938
21218
25713
17818
7038
8906
10106
11557
12489
12938
13133
13431
13571
13627
13776
13940
14195
14282
14607
14857
15310
15581
15978
16504
16986
17178
17376
17193
17198
17204
16622
15829
15006
14150
12977
12139
11590
11272
10896
11055
11129
11163
11311
11526
11684
11606
11753
11823
11697
11665
11845
11757
11954
11934
11962
11839
11856
11803
12203
12516
12753
12713
13083
12949
12793
12595
12407
12293
12381
12304
12150
12023
14050
18402
24324
23579
10156
8150
9812
11085
12208
12879
13156
13449
13409
13711
13915
14102
14253
14486
14550
14722
15152
15479
15858
16234
16643
16931
17504
17515
17354
17233
17040
16278
15428
14343
13294
12433
11875
11382
11099
11116
11087
11368
11461
11441
11408
11663
11726
11812
11846
12002
11831
11861
11908
12072
11880
12016
