11802
12368
12189
12234
12398
11987
12336
15980
21523
26033
18224
7605
9105
10588
11955
12760
13107
13353
13510
13666
13816
14001
14129
14279
14422
14572
14996
15413
15762
16143
16491
16917
17374
17633
17745
17648
17488
16922
16275
15265
14110
13050
12235
11639
11307
11196
11163
11091
11257
11424
11527
11574
11654
11804
11737
11658
11798
11803
11791
11827
11831
11752
11715
11797
11924
11844
11735
11862
12227
12666
12910
13000
12941
12882
11670
12253
15940
21502
25998
18096
7668
9302
10390
11719
12481
12884
13119
13332
13512
13708
13715
13994
14215
14514
14639
14938
15232
15577
15985
16457
16857
17227
17371
17402
17355
17183
16773
16009
14999
13862
12833
11969
11374
11052
10939
11024
10993
11092
11031
11228
11435
11553
11697
11662
11683
11640
11724
11845
11804
11738
11753
11769
11754
11785
11901
11839
11698
12053
12611
13014
12985
12940
12861
12700
12585
12399
12291
25969
18422
7837
9322
10364
11601
12485
12983
13145
13326
13452
13626
13888
14021
14204
14509
14719
14840
15166
15678
16085
16476
16876
17249
17579
17757
17457
17204
16856
16010
14933
13883
12925
12044
11442
11184
11079
11066
11165
11137
11338
11475
11488
11547
11761
11699
11790
11871
11868
11840
11890
11994
11951
11924
11939
12017
11992
11905
11844
12072
12598
12859
12997
13069
13069
12991
12732
12444
12381
12296
12291
12037
11557
13207
11166
12080
12691
12952
13129
13294
13428
13817
14056
14122
14298
14500
14823
15111
15435
15848
16295
16642
17169
17521
17637
17611
17382
17119
16526
15656
14472
13381
12537
11802
11311
11121
11121
11077
11073
11154
11362
11502
11491
11553
11745
11721
11746
11701
11740
11901
11919
11809
11811
11758
11941
12132
12017
11808
11656
12042
12642
13052
13120
13067
12916
12671
12500
12479
12359
12300
12336
12057
11777
13854
18548
24525
24273
13007
13161
13306
13539
13727
14008
14227
14364
14459
14789
15127
15521
15959
16461
16894
17265
17552
17720
17703
17547
17146
16489
15560
14633
13485
12453
11809
11382
11195
11095
11076
11135
11222
11246
11224
11400
11637
11753
11796
11696
11683
11794
11784
11790
11754
11808
11811
11876
11901
11792
11832
11873
12144
12601
12881
13030
12997
13055
12964
12675
12515
12427
12350
12406
12239
11767
13092
17432
23217
25837
14303
7649
9498
13538
13662
13770
14007
14267
14548
14859
15052
15280
15838
16336
16800
17261
17506
17651
17618
17536
17248
16563
15702
14670
13508
12448
11759
11412
11198
11020
10871
10926
11081
11232
11253
11422
11571
11561
11602
11654
11629
11666
11746
11765
11693
11665
11789
11782
11864
11774
11780
12097
12495
12851
13031
12969
12847
12692
12578
12437
12295
12353
12371
11855
11849
14658
19609
25311
21703
8814
8848
9944
11137
12278
12838
13084
13299
14472
14768
15131
15518
15980
16508
16934
17282
17529
17521
17492
17363
16970
16136
15063
13969
12995
12135
11562
11152
11008
10938
11040
11169
11111
11264
11633
11590
11646
11744
11816
11848
11834
11855
11817
12039
12065
11896
11896
12102
11970
11902
11969
12267
12762
12992
13165
13232
13149
12911
12702
12621
12506
12471
12547
12148
11729
14050
18903
25002
24113
10475
8528
10057
11487
12270
12718
13036
13451
13580
13651
13767
13905
15820
16211
16844
17224
17463
17662
17642
17339
17066
16666
15553
14360
13135
12206
11599
11241
10994
11014
11154
11117
11149
11276
11388
11458
11588
11581
11675
11700
11685
11661
11850
11825
11763
11708
11887
11993
11895
11772
11703
12124
12509
12854
13063
13003
12912
12825
12620
12401
12259
12250
12311
12216
11836
13205
17549
23628
25365
12621
7544
9463
10992
12095
12488
12979
13184
13406
13466
13659
13828
14023
14180
14381
14669
14840
17329
17405
17460
17171
16460
15642
14670
13507
12545
11837
11338
11156
10977
10931
11056
11282
11331
11357
11518
11639
11628
11707
11685
11679
11637
11811
11852
11732
11922
11973
11857
11986
11936
11879
11874
12300
12757
13042
13036
13052
13161
13002
12723
12422
12300
12523
12663
12196
12035
14636
19605
25288
22851
9144
8310
10053
11394
12270
12967
13233
13326
13557
13635
13812
13878
14025
14383
14587
14848
14977
15439
16046
16406
16921
16220
15368
14177
12949
12162
11688
11248
11093
10930
10964
11131
11367
11418
11348
11394
11607
11616
11637
11695
11709
11623
11699
11886
11856
11799
11975
11832
11686
11907
12332
12502
12863
13004
12854
12838
12727
12417
12329
12247
12236
12218
11665
12130
15836
21096
25900
18379
7989
9317
10208
11457
12460
12928
13145
13265
13558
13727
13775
13854
14036
14324
14534
14744
15201
15650
16010
16515
16968
17268
17406
17532
17454
17156
11173
10858
10734
10812
11029
11031
11121
11311
11438
11525
11521
11772
11887
11819
11668
11865
11924
11883
11805
11882
11936
11876
11923
11931
12229
12552
12892
13145
13037
12900
12695
12612
12337
12196
12387
12399
11817
11874
14800
19910
25724
21210
8657
8894
10068
11408
12281
12884
13165
13308
13386
13699
13801
13816
14093
14334
14558
14839
15069
15280
15804
16391
16789
17107
17478
17618
17535
17377
17021
16316
15292
14098
12928
11081
11140
11254
11434
11498
11511
11690
11749
11709
11779
11940
11774
11924
11957
11850
11839
11815
11799
11795
12167
12499
12803
13136
13146
13107
12943
12755
12439
12294
12354
12382
12155
11829
13102
17345
23251
25655
13535
7834
9592
10949
12121
12781
13044
13214
13391
13493
13742
13886
14048
14291
14495
14759
15072
15382
15738
16088
16665
17183
17490
17716
17633
17522
17188
16746
16010
14852
13604
12541
11797
11399
11111
11049
11422
11419
11458
11621
11603
11649
11783
11804
11787
11771
11777
11811
11976
12005
11856
11949
12324
12744
13056
13135
13087
13009
12783
12626
12370
12350
12383
12405
12019
11899
14812
19998
25759
22185
8801
8483
10171
11619
12453
12998
13272
13437
13557
13644
13661
13851
14129
14381
14623
14861
15070
15425
15928
16432
16853
17361
17568
17636
17713
17546
17236
16406
15302
14310
13252
12395
11769
11196
10912
10894
11106
11351
11026
11051
11415
11444
11657
11700
11644
11663
11780
11778
11690
11782
11867
12111
12604
12974
12914
12763
12621
12494
12528
12347
12281
12390
12484
12028
11851
14816
19920
25355
21760
8842
8887
10061
11321
12389
12955
13146
13316
13543
13695
13770
13952
14200
14430
14642
14759
15078
15548
15874
16269
16664
17245
17592
17582
17549
17465
17087
16323
15302
14260
13139
12039
11376
11167
10997
10838
11125
11170
11160
11241
11437
11595
11609
11618
11806
11851
11824
11927
11947
11897
11811
12094
12519
13099
13123
12992
12945
12982
12757
12625
12392
12283
12327
12192
11678
12922
17327
23156
25784
14182
8083
9711
10989
12005
12752
13053
13240
13361
13596
13774
13979
14039
14234
14446
14704
14927
15323
15818
16194
16669
17077
17402
17648
17776
17501
17262
16684
15893
14735
13608
12531
11743
11317
11108
10979
10795
11022
11161
11210
11256
11351
11525
11538
11514
11549
11621
11786
11831
11943
11721
11720
12273
12783
13090
13154
13066
12891
12781
12620
12388
12440
12485
12370
11951
11880
14481
19620
25651
22431
9062
8520
10201
11610
12435
12969
13244
13334
13425
13672
13813
13942
14193
14334
14616
14980
15213
15523
15918
16305
16795
17228
17473
17688
17740
17495
17130
16496
15440
14291
13182
12169
11574
11247
10983
10828
10981
11130
11200
11221
11286
11413
11581
11601
11595
11586
11686
11727
11806
11898
11893
11885
12022
12558
13032
13091
13051
13032
12782
12563
12442
12379
12373
12344
12037
11828
14039
18964
24995
23768
10066
8088
9895
11446
12347
12895
13149
13303
13505
13714
13812
13917
14171
14468
14589
14843
15011
15431
15876
16263
16871
17412
17758
17898
17840
17687
17359
16652
15812
14640
13471
12437
11750
11396
11110
11007
10898
10919
11027
11307
11402
11481
11556
11624
11622
11651
11826
11776
11680
11657
11707
11901
11890
11895
11941
11818
12883
12815
12657
12664
12504
12192
12186
12469
12206
11764
14081
19153
24939
23479
9778
8309
9850
11019
12081
12781
13018
13219
13561
13656
13756
14023
14140
14319
14371
14678
15179
15454
15888
16286
16810
17190
17517
17806
17782
17568
17216
16654
15791
14484
13239
12313
11687
11278
11070
10860
10750
10997
11182
11302
11344
11493
11549
11609
11702
11707
11676
11791
11879
11913
11875
11847
11814
11889
11985
12073
11976
11784
11885
12570
12606
12406
12461
12544
12390
11844
12840
17053
22897
25890
14992
7866
9554
10906
12031
12634
13028
13272
13459
13661
13813
13917
14041
14190
14505
14777
14992
15309
15689
16119
16554
17098
17475
17654
17742
17692
17477
17033
16084
14926
13733
12718
11876
11271
11067
10966
10908
10996
11128
11212
11248
11390
11417
11459
11617
11642
11714
11770
11786
11880
11877
11926
11881
11903
11991
11944
11960
12084
11925
11842
12290
12732
13084
12140
12202
12328
12232
11959
13653
18093
24324
24957
11649
8017
9857
11262
12360
12919
13258
13422
13525
13582
13691
13920
14150
14379
14514
14731
14993
15386
15805
16232
16534
17072
17559
17705
17727
17701
17363
16822
16047
14831
13646
12508
11934
11467
11169
11078
11024
11063
11134
11167
11386
11447
11476
11542
11765
11798
11750
11795
11810
11861
11852
11769
11850
11868
11887
11798
11811
12032
12218
12119
11874
11931
12421
12897
12506
12340
12471
12360
11969
12451
15789
21523
26045
17975
7745
8968
10679
12108
12747
13163
13396
13543
13713
13733
13795
14119
14413
14541
14772
15040
15176
15683
16180
16712
17171
17417
17549
17887
17987
17647
17192
16605
15631
14363
13113
12279
11611
11239
11091
10944
11028
11102
11258
11381
11421
11476
11546
11586
11662
11728
11704
11790
11739
11751
11761
11900
11944
11885
11900
12006
11820
11622
11813
12265
12636
12935
13011
12196
12016
11632
12719
16750
22214
25873
15753
7550
9354
10451
11819
12581
13037
13185
13339
13576
13688
13750
14002
14284
14348
14448
14921
15312
15672
16022
16472
16921
17373
17752
17776
17728
17355
16899
16078
14942
13727
12632
11739
11110
11101
11130
10988
10809
10975
11178
11205
11211
11397
11598
11741
11808
11873
11814
11847
11940
11889
11909
11794
11852
11969
11983
11860
12159
12571
12745
12909
12914
13011
12909
12700
12494
12358
24441
24041
10565
8300
9731
11195
12198
12856
13159
13242
13402
13652
13730
13857
14129
14241
14408
14656
14989
15375
15743
16206
16799
17172
17549
17741
17542
17476
17153
16623
15652
14554
13413
12347
11621
11271
10962
10872
11006
10979
11179
11286
11406
11462
11476
11650
11749
11776
11739
11823
11860
11787
11754
11861
11815
11813
11865
11931
11870
12108
12568
12999
13122
13066
12921
12854
12733
12429
12391
12411
12411
12071
11753
9986
11497
12355
12723
13049
13333
13459
13538
13755
13936
14053
14408
14622
14795
15064
15423
15898
16252
16679
17239
17480
17721
17821
17633
17284
16593
15573
14509
13278
12278
11603
11187
10972
10968
11015
11048
11176
11185
11197
11261
11415
11540
11591
11644
11611
11730
11752
11826
11785
11693
11721
11687
11723
11740
12013
12340
12691
13104
12989
12930
12779
12601
12483
12281
12133
12263
12259
11863
12538
16399
22093
25882
15726
7379
13297
13418
13481
13671
13879
14170
14501
14703
14893
15307
15702
16094
16636
17134
17519
17689
17588
17530
17337
16841
15986
14781
13683
12582
11787
11438
11245
11084
10912
10886
11015
11160
11318
11440
11566
11552
11670
11831
11817
11754
11798
11798
11764
11846
11940
11868
11913
11815
11787
11699
12121
12606
12975
13103
12910
12951
12909
12810
12594
12440
12352
12387
12113
11962
14448
19487
25378
23249
9376
8236
9871
11226
12317
13848
13936
14179
14583
14805
15205
15564
15998
16474
16918
17300
17633
17754
17585
17366
17069
16447
15379
14215
12970
12094
11512
11238
10957
10879
11066
11080
11190
11319
11411
11379
11619
11705
11680
11913
11990
11935
11792
11771
11908
11894
11784
11930
11906
11737
11653
12069
12526
12899
13026
13064
13039
12912
12680
12531
12448
12358
12408
12393
11860
12320
16053
21681
26040
17591
7999
9213
10290
11681
12617
12966
13114
13329
13571
14733
15225
15623
16129
16626
17019
17409
17600
17691
17469
17376
16864
15797
14833
13738
12658
11885
11297
11079
11033
10985
10958
11089
11174
11321
11561
11639
11661
11660
11735
11775
11768
11822
11786
11807
11901
11896
11861
11889
12165
12099
11895
11899
12183
12679
13066
13128
13117
13094
12781
12547
12530
12374
12370
12422
12081
11861
14111
18988
25272
23504
9913
8534
10130
11508
12313
12790
13152
13343
13461
13641
13821
13898
15859
16244
16706
17182
17438
17571
17524
17419
17148
16447
15375
14439
13364
12303
11621
11259
10959
10878
11049
11050
11185
11368
11373
11310
11539
11577
11632
11647
11727
11850
11878
11677
11753
11864
11893
11806
11792
11941
12042
11765
11645
12115
12550
12820
13134
13119
13032
12978
12688
12517
12311
12286
12381
12158
11773
13134
17316
23442
25405
13037
7612
9534
11054
12064
12704
12944
13170
13365
13457
13637
13855
13991
14258
14591
17064
17339
17537
17700
17628
17146
16647
15967
15016
13706
12651
11995
11519
11286
11118
11040
11111
11171
11262
11327
11383
11592
11718
11813
11775
11802
11961
11843
11758
11770
11865
11894
11915
11987
12010
11914
11989
12000
11943
12111
12586
13017
13203
13177
13158
13140
12932
12713
12592
12479
12490
12420
11935
12634
16368
21993
26028
17595
7756
9163
10512
11882
12729
13105
13284
13444
13623
13769
13890
13972
14217
14401
14626
17280
17479
17630
17677
17432
16973
16079
15066
13877
12874
12039
11471
11226
11067
10952
11027
11068
11180
11278
11291
11399
11556
11522
11698
11883
11790
11733
11770
11837
11821
11786
11861
11896
12002
11961
11888
11844
12079
12325
12895
13170
13056
13002
12841
12677
12519
12373
12392
12322
12054
11795
13594
18197
24212
24411
11269
8102
9772
10892
12034
12792
13158
13215
13365
13514
13672
13747
14009
14217
14389
14606
14895
15075
17555
17410
16995
16510
15569
14415
13281
12343
11590
11256
11030
10924
10862
11002
11144
11250
11348
11456
11579
11644
11651
11711
11735
11726
11822
11897
11978
12031
11977
11893
11942
12042
12021
11963
11890
12168
12678
13064
13280
13156
13071
12994
12814
12590
12422
12476
12440
12193
11794
13034
17148
23004
25746
14470
7678
9512
10934
12123
12794
13084
13208
13351
13620
13877
13975
13983
14236
14421
14702
14978
15399
15703
16075
16540
16885
16096
15047
13852
12778
11978
11473
11242
11061
11004
11106
11278
11308
11417
11523
11571
11578
11699
11704
11637
11713
11878
11879
11730
11814
11864
11903
11818
11873
11713
11749
11938
12265
12627
12818
13098
13128
12974
12766
12689
12488
12332
12395
12442
12024
12084
14689
19494
25346
22015
8736
8181
10144
11665
12504
12967
13197
13386
13577
13677
13901
14053
14243
14360
14538
14874
15239
15516
15954
16368
16858
17270
17553
14346
13219
12525
11778
11305
11209
11173
11078
11158
11211
11305
11426
11509
11548
11627
11600
11608
11726
11746
11774
11867
11812
11721
11736
11842
11859
11735
11774
12039
12333
12695
13045
13157
13024
12868
12618
12494
12303
12218
12251
12142
11840
12651
16476
21813
25903
17138
7480
9257
10526
11767
12490
13004
13145
13161
13556
13829
13877
14107
14327
14493
14697
14905
15172
15575
16129
16637
17050
17451
17663
17705
17658
17359
16898
10978
10766
10818
10864
10982
11154
11263
11281
11504
11646
11756
11757
11826
11790
11848
11788
11759
11782
11773
11843
11828
11854
11815
12069
12514
12946
13136
13058
12962
12792
12665
12493
12371
12245
12270
12030
11787
13415
17726
23794
24967
12086
7849
9639
11124
12196
12882
13033
13150
13428
13563
13704
13876
14055
14241
14482
14687
14953
15274
15683
16128
16594
16946
17266
17456
17540
17412
17287
16808
15918
14828
13822
12692
11070
11303
11334
11414
11482
11559
11616
11736
11705
11779
11730
11772
11896
11901
11803
11915
11860
11741
11846
12194
12516
12949
13109
13019
13038
12840
12537
12510
12320
12259
12399
12186
11880
13540
17970
23855
24590
11563
7248
9591
11258
12292
12711
13113
13378
13467
13623
13873
13893
14016
14313
14547
14864
15089
15165
15488
16045
16593
17121
17520
17725
17704
17562
17269
16790
15938
14904
13737
12746
12023
11615
11364
11222
11126
11522
11510
11569
11678
11723
11774
11771
11861
11800
11808
11819
11784
11812
11781
12076
12548
12856
12983
13039
13029
12829
12565
12392
12365
12248
12124
11929
12197
15033
19980
25541
21813
8460
7911
9925
11469
12439
12892
13115
13350
13535
13723
13925
13977
14112
14274
14424
14802
15138
15496
15862
16289
16749
17223
17446
17626
17654
17402
17039
16466
15608
14412
13255
12387
11738
11438
11200
10903
10837
10841
11087
11192
11251
11618
11521
11546
11697
11866
11826
11707
11706
11941
12222
12558
12921
13038
12841
12744
12643
12547
12342
12209
12318
12174
11661
12144
15670
20943
25870
19046
7792
8935
10065
11466
12261
12693
13063
13341
13431
13616
13784
13890
14098
14250
14483
14933
15276
15549
15840
16224
16744
17214
17594
17751
17517
17247
16901
16218
15110
14070
13021
12114
11406
11178
11009
10968
10993
11152
11220
11143
11352
11527
11647
11687
11758
11867
11805
11845
11745
11792
12126
12540
12800
12985
13008
13036
12741
12704
12548
12435
12394
12325
11966
11746
14071
19003
25049
23532
10037
8147
9895
11452
12327
12840
13099
13275
13481
13650
13831
13948
14102
14328
14481
14733
15198
15569
15785
16229
16776
17206
17427
17628
17615
17449
17118
16569
15841
14701
13463
12505
11871
11483
11163
11016
11101
11191
11242
11183
11317
11605
11723
11633
11632
11681
11725
11712
11728
11813
11934
12018
12730
12983
12862
12835
12748
12509
12372
12325
12336
12160
11786
11804
13993
18607
24675
23937
10330
7645
9693
11287
12208
12747
13016
13174
13351
13516
13738
13896
14040
14146
14366
14701
15001
15247
15716
16133
16613
17169
17455
17578
17556
17434
17149
16538
15620
14595
13494
12568
11868
11486
11200
10951
11015
11122
11241
11283
11320
11384
11300
11434
11676
11754
11764
11677
11775
11866
11906
11847
11804
11814
11862
11787
11794
12857
12656
12472
12310
12218
12377
12363
11786
12406
16346
22147
25995
16456
7507
9097
10728
11985
12668
13063
13361
13440
13590
13762
13882
14150
14327
14456
14718
14968
15264
15737
16186
16539
16895
17411
17643
17666
17592
17365
17000
16288
15194
13926
12894
12127
11462
11128
10959
10904
11026
11149
11141
11277
11404
11500
11581
11603
11596
11612
11763
11887
11840
11677
11694
11840
11876
11871
11820
11854
11808
12098
12470
12788
13067
12183
12049
11803
11686
14614
19751
25558
21948
8853
8521
9896
11394
12201
12781
13073
13267
13422
13634
13735
13924
14046
14217
14353
14612
15084
15403
15731
16252
16818
17247
17514
17542
17448
17206
16963
16433
15333
14267
13152
12187
11688
11302
11037
10806
11008
11161
11258
11355
11348
11382
11577
11684
11710
11797
11818
11725
11865
11965
11896
11812
11838
11939
11910
11985
11971
11870
12033
12574
12886
12945
13027
13106
13123
11684
12198
15933
21713
26034
17294
7725
9160
10805
12059
12709
13093
13179
13327
13652
13806
13861
14049
14244
14420
14750
14981
15210
15414
15959
16488
16935
17223
17455
17609
17552
17304
17034
16249
15122
14187
13104
12190
11653
11293
11149
11072
11016
11168
11246
11301
11584
11637
11547
11486
11696
11861
11840
11678
11757
11895
11824
11655
11873
11985
11956
11989
11885
11734
12153
12612
12960
13036
12992
12868
13034
12813
12612
12432
22974
25584
13758
7465
9589
11170
12194
12840
13083
13197
13326
13652
13792
14048
14224
14359
14632
14754
14967
15265
15755
16092
16615
17112
17519
17657
17693
17654
17400
16891
16059
15128
13996
12886
12128
11547
11324
11143
11020
11190
11230
11316
11488
11541
11581
11679
11668
11688
11709
11695
11766
11827
11851
11853
11901
11852
11877
11870
11977
12009
11946
11784
12037
12554
13091
13248
13297
13202
13047
12793
12616
12444
12424
25349
12735
7658
9753
11309
12258
12793
13133
13446
13628
13730
13879
13990
14003
14258
14488
14738
15074
15480
15870
16229
16683
17157
17459
17632
17720
17596
17303
16756
15959
15036
14011
12880
11987
11472
11080
10893
10896
10899
10861
11170
11297
11350
11619
11749
11743
11829
11769
11683
11690
11776
11763
11661
11613
11747
11924
11944
11971
11896
11764
12029
12454
12764
13104
13034
12926
12801
12653
12697
12500
12472
12449
12196
11664
9746
10721
12116
12732
12926
13185
13441
13497
13588
13840
14222
14384
14608
14771
14990
15390
15758
16088
16453
16978
17475
17632
17748
17711
17448
16857
15858
14718
13626
12583
11728
11370
11188
10959
11083
11130
11321
11302
11404
11357
11489
11695
11713
11750
11727
11773
11980
11930
11804
11751
11735
11772
11975
11850
11840
11903
12085
12541
12941
13140
13005
12962
12830
12621
12533
12432
12299
12444
12247
11734
13105
17493
23324
12729
12977
13229
13493
13736
13925
13965
14136
14269
14462
14712
15174
15506
15833
16241
16701
17239
17518
17631
17640
17517
17181
16622
15821
14799
13659
12627
11838
11381
11245
11065
10970
11110
11151
11133
11149
11272
11550
11690
11714
11655
11727
11719
11759
11770
11672
11787
11814
11761
11861
12010
12061
11935
11826
12144
12619
12906
13091
13117
13022
12875
12803
12552
12216
12286
12512
12326
11853
13011
17189
23003
25521
14147
13239
13448
13647
13791
13991
14093
14176
14543
14927
15292
15609
15890
16277
16774
17175
17461
17694
17722
17474
17283
16886
16093
14920
13743
12816
12063
11527
11236
11023
11038
11108
11129
11166
11356
11577
11654
11745
11754
11717
11695
11762
11801
11845
11835
11842
11830
11875
12040
12038
12062
12022
11897
11867
12221
12661
12975
13154
13092
13074
12909
12649
12517
12333
12518
12551
12215
11932
13936
18627
24507
24682
11488
8156
13498
13627
13825
13977
14120
14309
14540
14785
15117
15373
15749
16269
16748
17170
17399
17482
17431
17264
17160
16501
15542
14464
13402
12461
11768
11357
11129
11000
10987
11054
11010
11127
11372
11487
11546
11571
11711
11770
11796
11798
11771
11707
11720
11759
11778
11834
11853
11810
11871
11970
12386
12646
12850
12892
12844
12833
12735
12554
12325
12359
12398
12267
11727
12085
15439
20678
25919
19611
8253
9090
10192
11506
12385
12900
16046
16452
16841
17192
17571
17655
17599
17263
16582
15632
14386
13330
12463
11726
11372
11228
11100
11022
11049
11218
11252
11318
11416
11562
11669
11787
11771
11797
11870
11952
12044
11935
11965
11906
11933
12120
11980
11873
11863
12241
12650
12999
13165
13089
12916
12819
12774
12609
12394
12453
12490
12219
11795
13347
17744
23633
25350
12975
8013
9637
10949
12121
12751
13127
13322
13466
13697
13897
13961
14111
14326
14564
14710
17270
17502
17593
17444
17232
16773
15970
14906
13715
12685
11897
11464
11120
10964
11012
11114
11204
11255
11285
11434
11523
11586
11652
11705
11772
11699
11710
11809
11922
11832
11874
12035
12022
11919
12076
12143
12036
11862
12165
12706
13043
13170
13015
13112
13207
12991
12719
12410
12329
12506
12257
11666
12922
17192
23046
25806
14520
7686
9488
11017
12065
12683
13063
13250
13462
13605
13710
13846
14044
14225
14446
14666
15028
15340
15840
16259
16665
17068
17496
17680
17739
17545
17169
16669
15802
14642
13460
12557
11839
11389
11075
11054
11037
11143
11218
11236
11442
11492
11520
11627
11749
11731
11662
11661
11753
11781
11768
11754
11721
11844
11956
11966
11919
11977
11965
11883
11854
12175
12743
13067
13133
13119
13120
12943
12730
12544
12362
12435
12471
12149
11697
13291
17866
24003
24963
12116
8019
9851
11313
12295
12738
12924
13186
13475
13678
13751
13939
14131
14389
14580
14798
15153
15442
15759
16292
16724
17287
17610
17743
17635
17463
17104
16535
15463
14458
13511
12424
11656
11246
11217
11168
11051
11069
11135
11274
11392
11470
11669
11623
11675
11752
11766
11743
11855
11869
11872
11808
11775
11886
11939
11871
11980
11998
12036
11939
12165
12719
13042
13048
13019
13062
13004
12798
12537
12360
12469
12443
12132
11835
14118
18850
24740
23767
10418
8281
9966
11235
12300
12894
13139
13351
13632
13691
13875
14053
14206
14386
14614
14903
15201
15553
15964
16212
16870
17333
17585
17642
17508
17360
16947
16324
15309
14106
13139
12231
11591
11223
10977
11044
11120
11087
11235
11353
11409
11511
11567
11492
11713
11833
11840
11808
11839
11907
11915
11912
11944
11869
11821
12025
12141
12098
11910
11988
12565
13000
13102
13080
13207
13192
12829
12608
12595
12643
12609
12431
11868
12155
15658
21085
26018
18824
8248
9157
10425
12184
12836
13091
13318
13413
13672
13867
13993
14130
14258
14409
14686
14920
15441
15692
15931
16601
17111
17453
17601
17580
17525
17319
16766
15949
14863
13708
12624
11962
11493
11284
11198
11118
11166
11127
11259
11417
11503
11568
11635
11754
11797
11865
11844
11849
11907
11957
11943
11861
11733
11926
11989
11966
12071
12042
11877
12011
12490
12874
13048
13035
13083
13042
12794
12700
12616
12504
12428
12387
11969
12241
15427
20710
25601
13824
7684
9571
11138
12164
12749
13058
13261
13490
13671
13793
13976
14168
14312
14433
14552
14961
15369
15721
16065
16536
16975
17289
17514
17459
17451
17278
16798
16060
14944
13942
12913
12045
11488
11262
11103
11031
11031
11183
11328
11405
11308
11428
11758
11827
11736
11670
11775
11806
11784
11775
11785
11823
11878
11839
11794
11927
12007
11989
12033
11975
12165
12647
13019
13194
13067
13097
13038
12842
12795
12573
12404
12461
12196
11790
13498
18001
24020
24739
11682
7797
9879
11495
12461
12917
13088
13347
13536
13672
13837
14006
14171
14396
14447
14718
15155
15469
15735
16245
16735
17161
17513
17631
17527
17516
17362
16897
16024
14872
13756
12895
12066
11521
11261
11101
11020
11118
11228
11262
11412
11484
11541
11648
11686
11722
11736
11737
11804
11885
11895
11800
11835
11906
11855
11962
12115
12088
11981
11966
12387
12863
13141
13102
13071
13118
12855
12608
12424
12390
12411
12353
11951
12375
15778
21215
25962
18326
7720
9060
10621
11986
12611
12934
13211
13495
13575
13737
13866
14047
14296
14474
14665
14966
15267
15636
16095
16490
16931
17295
17550
17598
17499
17330
16909
16125
15262
14150
13072
12159
11522
11180
10983
10879
10931
11037
11216
11352
11361
11390
11474
11617
11659
11680
11588
11821
11870
11897
11850
11857
11843
11759
11784
11886
11834
11910
12387
12694
12904
12974
12851
12735
12703
12483
12307
12296
12220
12226
11834
12474
16196
21709
25978
17069
7789
9221
10447
11664
12512
13011
13137
13400
13671
13735
13822
14056
14188
14426
14601
14981
15282
15603
15912
16390
16928
17330
17552
17614
17443
17140
16797
15978
14958
13858
12796
11961
11418
11082
10981
10936
10880
11099
11223
11348
11375
11605
11742
11745
11716
11685
11693
11844
11793
11784
11824
11768
11785
11867
11901
11766
11860
12189
12573
12716
12980
13056
13044
12978
12776
12495
12415
12379
12318
12131
11672
13067
17341
23265
25406
13011
7639
9498
11077
12148
12714
13003
13292
13491
13681
13861
14102
14190
14336
14647
14846
15047
15334
15665
16053
16674
17119
17407
17646
17661
17457
17084
16666
15838
14765
13686
12639
11908
11422
11110
10951
10883
11027
11011
11171
11416
11457
11426
11614
11694
11710
11706
11716
11646
11716
11772
11890
12000
11955
12013
11943
11738
11637
12142
12693
13052
13114
13134
13222
13042
12765
12543
12360
12389
12354
12194
11802
13489
17993
24033
24633
11487
7755
9747
11328
12190
12714
12892
13272
13365
13609
13748
13922
14110
14192
14295
14627
15015
15474
15772
16088
16565
17098
17409
17630
17697
17447
17056
16641
15826
14715
13532
12540
11739
11449
11258
11092
11006
10892
11044
11392
11530
11406
11370
11657
11791
11827
11774
11725
11816
11857
11851
11856
11972
12033
11969
11961
11946
11759
11950
12464
12829
13154
13154
12987
13036
12909
12721
12450
12403
12461
12451
12006
12323
15706
21186
25993
18681
7840
8961
10642
12002
12723
13011
13261
13505
13597
13812
13968
14068
14218
14417
14525
14816
15217
15621
16025
16389
16940
17266
17461
17603
17388
17205
16922
16236
15071
14151
13107
12204
11617
11225
11075
10934
10750
10853
11133
11286
11320
11463
11489
11763
11718
11697
11772
11813
11829
11883
11930
11795
11806
12055
12028
11824
12051
12373
12831
13077
13063
12975
12861
12525
12433
12467
12498
12461
12362
11942
12556
16162
21560
25948
17335
7572
9303
10468
11727
12559
12995
13186
13387
13530
13786
13914
14095
14357
14528
14694
14985
15254
15613
16084
16428
16926
17331
17671
17757
17519
17172
16805
15939
14872
13682
12728
11947
11365
11056
11074
11064
10958
11086
11283
11274
11505
11598
11571
11718
11903
11875
11873
11858
11933
11953
11892
11859
11943
11955
11895
11947
12182
12529
12871
12978
12999
13015
12850
12628
12612
12334
12256
12456
12256
11511
12643
16946
22915
25816
14589
8118
9585
10735
11937
12573
12949
13241
13391
13622
13847
13972
14033
14249
14516
14637
14768
15326
15747
15957
16586
17096
17393
17617
17579
17336
17063
16527
15712
14786
13478
12506
11922
11448
11111
11027
11066
10983
10961
11198
11393
11461
11637
11679
11653
11592
11780
11904
11782
11734
11869
11875
11906
11923
11976
11963
11899
12011
11940
12349
12748
13028
13083
13112
13054
12950
12769
12522
12201
12318
12529
12162
11820
14111
18919
25155
23281
9748
8425
10044
11623
12413
12782
13033
13410
13482
13589
13963
14138
14224
14281
14594
14770
15083
15395
15831
16302
16680
17126
17451
17737
17641
17345
17166
16521
15562
14348
13196
12242
11779
11502
11247
11027
11037
11136
11255
11364
11286
11454
11510
11541
11671
11734
11714
11791
11860
11840
11820
11785
11798
11820
12030
12029
11971
11973
11948
11844
12200
12692
13092
13261
13253
13209
13089
12844
12624
12503
12447
12607
12474
11877
12928
17161
23225
25794
14245
7732
9666
11271
12258
12711
12971
13254
13399
13557
13804
13838
14111
14352
14697
14862
15043
15297
15699
16091
16580
16965
17474
17712
17712
17564
17379
16919
16032
14947
13900
12889
12083
11547
11275
11091
10993
11145
11241
11271
11368
11349
11422
11642
11614
11691
11833
11913
11906
11911
11860
11762
11766
11990
11932
11886
11917
11940
11990
12153
12227
12210
12099
11994
12386
12824
13162
13254
13206
13277
13140
12973
12860
12638
12622
12743
12309
12082
14308
19171
25266
23719
10156
8403
10248
11788
12575
12977
13151
13456
13708
13886
13994
14125
14288
14367
14472
14687
15166
15596
15986
16370
16769
17184
17494
17729
17721
17539
17171
16721
15852
14733
13607
12603
11801
11271
11059
10967
11077
11127
11161
11275
11392
11440
11526
11585
11576
11589
11636
11629
11720
11711
11769
11755
11679
11641
11859
11844
11958
11976
11845
11791
12054
12584
12939
13034
13002
13115
13053
12851
12637
12589
12519
12429
12239
11843
12913
17043
22618
25867
15222
7594
9307
10458
11809
12728
13070
13203
13346
13548
13786
13927
14033
14185
14436
14666
14855
15098
15582
16033
16523
16944
17468
17708
17697
17583
17315
16766
15913
14452
13230
12283
11665
11305
10981
10961
10961
10926
10955
11204
11281
11329
11515
11593
11656
11845
11891
11840
11827
11832
11816
11925
11801
11856
12020
12037
12073
11934
11883
12149
12618
12906
13177
13186
13072
12920
12812
12745
12558
12457
12487
12333
11747
12838
17082
23080
25968
15251
7692
9348
10796
12132
12695
13026
13261
13400
13551
13718
13922
14128
14305
14436
14684
14925
15288
15627
16102
16660
17165
17427
17587
17791
17568
17203
16591
15633
14638
13460
12490
11709
11295
11170
11073
10972
10930
10965
11148
11302
11333
11479
11462
11543
11675
11688
11717
11720
11748
11779
11705
11844
11912
11893
11931
12035
12008
11833
12032
12567
12963
13100
13083
13104
13055
12809
12659
12477
12330
12393
12276
11887
12919
16846
22667
25897
15163
7332
9300
10892
12052
12742
12982
13261
13497
13657
13786
13960
14099
14240
14387
14622
14921
15187
15541
16127
16667
17185
17494
17604
17725
17658
17303
16706
15780
14566
13427
12522
11798
11342
11091
10944
10956
11000
11122
11195
11240
11359
11376
11463
11616
11718
11715
11823
11855
11838
11807
11770
11742
11739
11865
11969
11999
11909
11726
11931
12456
12886
13118
13097
13046
13030
12806
12568
12336
12362
12433
12279
11850
12655
16392
22094
25948
16241
7285
9108
10773
12061
12691
13012
13214
13431
13519
13661
13874
14069
14275
14434
14653
15052
15393
15883
16205
16698
17224
17570
17702
17704
17568
17286
16756
15839
14719
13644
12650
11940
11486
11161
11036
11044
11078
11133
11145
11207
11343
11431
11507
11533
11725
11794
11718
11753
11741
11803
11883
11922
11919
11923
11854
11817
11885
12276
12724
12979
12979
12911
12910
12781
12546
12345
12201
12185
12184
12022
12115
14505
19175
24682
23320
9820
8093
9791
11075
12142
12762
12997
13221
13428
13718
13925
14047
14183
14308
14590
14932
15155
15542
16061
16501
16984
17297
17615
17752
17720
17417
16931
16175
15214
14120
12960
12014
11526
11134
11048
11073
10961
11061
11211
11281
11270
11451
11583
11727
11736
11735
11762
11837
11877
11974
11789
11824
11992
12027
11997
11870
11901
12238
12600
12935
13059
12946
12990
12820
12699
12544
12441
12376
12400
12218
11877
13730
18268
24152
24979
11822
7911
9686
11085
12157
12772
13054
13186
13406
13559
13730
13795
14064
14378
14595
14786
15160
15548
15930
16345
16919
17364
17614
17772
17787
17563
17074
16302
15295
14155
13038
12195
11569
11165
11014
10976
11052
11155
11107
11213
11315
11480
11573
11589
11672
11676
11772
11850
11876
11794
11802
11815
11929
12026
12053
12098
12054
11926
11845
12172
12734
13033
13089
13018
12901
12853
12714
12448
12255
12336
12432
12094
11769
13971
18686
24736
23919
10446
7984
9924
11383
12294
12864
13083
13273
13499
13666
13800
13975
14133
14337
14423
14822
15279
15623
15953
16396
16891
17300
17480
17751
17755
17495
17099
16352
15323
14279
13203
12213
11606
11152
10983
10890
10837
10802
11029
11209
11369
11456
11507
11458
11513
11529
11632
11611
11592
11563
11572
11654
11673
11728
11581
11668
11842
11843
11843
12229
12628
12860
12795
12706
12550
12194
12439
12521
12319
12380
12525
12062
11883
14458
19462
25132
22610
9212
7924
9216
10878
12308
12770
13011
13410
13472
13542
13780
14079
14199
14377
14561
14837
15070
15418
15930
16424
16907
17319
17740
17602
17307
17442
17186
16267
15230
14057
12955
11983
11527
11202
11036
11018
11036
11100
11160
11369
11371
11380
11642
11771
11779
11728
11761
11773
11860
11821
11888
11887
11902
11852
12010
11987
11963
11869
12074
12503
12851
13084
13090
13048
12939
12834
12619
12508
12447
12524
12365
11979
12535
16070
21062
25608
18079
7811
9394
10432
11819
12709
13088
13342
13492
13704
13841
14018
14186
14348
14613
14801
15151
15421
15790
16188
16742
17196
17562
17649
17739
17586
17309
16785
15826
14672
13517
12583
11823
11481
11269
11222
11167
11226
11185
11310
11396
11561
11660
11751
11766
11866
11894
11958
11968
11945
11965
11974
12051
12000
12049
12086
12132
12049
12016
12321
12797
13005
13117
13072
13053
12868
12792
12659
12506
12483
12490
12207
11781
13775
18158
23981
24133
8438
9033
10165
11368
12408
13003
13277
13431
13649
13734
13973
14127
14310
14423
14677
14933
15210
15611
16013
16482
16975
17445
17568
17761
17718
17573
17179
16491
15412
14260
13140
12314
11659
11394
11212
11174
11135
11157
11285
11382
11518
11555
11669
11696
11833
11799
11903
11864
11909
11902
11910
11877
11811
11822
11842
11979
12048
11972
11838
12153
12520
12892
12974
12939
12796
12807
12629
12522
12265
12316
12370
12274
11808
12533
18045
24042
24131
11306
7906
9682
11143
12107
12756
13077
13358
13470
13673
13804
13973
14088
14292
14458
14739
15020
15393
15779
16202
16709
17219
17580
17710
17759
17633
17380
16797
15914
14774
13665
12544
11816
11347
11106
10945
10965
10962
11087
11211
11321
11393
11481
11607
11599
11682
11682
11742
11685
11696
11677
11753
11793
11840
11799
11906
11764
11612
11651
11749
12147
12623
12934
12825
12860
12894
12924
12734
12647
12451
12491
12486
12265
11969
13838
18162
23954
24246
11620
7734
9932
11414
12429
12932
13185
13356
13573
13767
13835
14096
14228
14352
14521
14794
15018
15433
15799
16293
16774
17219
17487
17758
17789
17670
17406
16881
16079
14944
13852
12813
12019
11499
11346
11147
11088
11086
11228
11302
11369
11431
11529
11589
11655
11662
11632
11671
11675
11678
11659
11618
11335
11159
11072
11355
11478
11521
11500
12031
12537
12920
13112
13055
13012
12898
12727
12591
12488
12515
12580
12340
12185
14266
18656
23856
23041
10824
8217
9982
10909
11978
12577
12787
13035
13241
13503
13540
13510
13774
14099
14461
14734
15070
15384
15818
16280
16838
17216
17610
17749
17774
17577
17379
16772
15810
14723
13584
12639
11941
11575
11323
11231
11174
11204
11235
11359
11431
11599
11642
11805
11808
11888
11891
11913
11933
11986
12055
12011
12058
12095
12068
11942
11914
12105
12525
12802
13012
12938
12868
12722
12638
12442
12380
12344
12489
12262
11917
13112
16965
21969
24717
15158
7941
9860
10566
11594
12427
12977
13183
13372
13465
13666
13771
14003
14134
14396
14560
14867
15134
15494
15951
16445
16956
17314
17589
17647
17611
17343
16793
15882
14857
13711
12770
11948
11509
11256
11162
11047
11062
11117
11208
11301
11355
11489
11558
11687
11743
11844
11835
11939
11913
11977
11971
12042
12078
11984
11947
12000
12275
12599
12862
12982
12961
12889
12762
12638
12473
12392
12434
12422
12111
11877
14408
19123
24751
22866
10437
8802
10255
11021
12116
12769
13083
13294
13453
13653
13792
13949
14083
14346
14483
14770
15025
15418
15765
16252
16687
17166
17449
17632
17628
17459
17109
16434
15497
14302
13220
12279
11706
11292
11239
11121
11133
11069
11188
11247
11381
11483
11626
11690
11783
11822
11856
11922
11926
12001
11937
11948
11957
12040
11903
11886
11960
12336
12687
13025
12955
12955
12850
12720
12510
12417
12355
12410
12353
11874
12048
15306
20493
25761
19815
8452
8989
10101
11446
12288
12857
13107
13314
13452
13583
13698
13919
14064
14267
14491
14735
15042
15409
15857
16298
16818
17193
17486
17581
17587
17394
17052
16283
15283
14106
13025
12111
11506
11225
11081
11070
11044
11157
11225
11324
11380
11522
11544
11672
11692
11805
11769
11814
11803
11892
11910
11902
11954
11929
11860
11822
12145
12667
12893
12945
12910
12862
12761
12572
12382
12219
12291
12299
12058
11495
13183
17490
23293
24555
12455
7990
9657
10754
11898
12628
12960
13225
13422
13598
13675
13862
14003
14245
14416
14624
14851
15205
15581
16037
16498
17028
17408
17620
17663
17522
17210
16632
15691
14531
13483
12473
11822
11360
11239
11107
11107
11118
11293
11349
11426
11493
11609
11691
11709
11782
11764
11803
11769
11842
11831
11877
11826
11928
11948
11927
11773
12032
12398
12810
12971
12940
12856
12847
12657
12539
12365
12320
12409
12340
11798
12144
15557
20690
25742
18796
8221
9107
10468
11729
12549
13029
13262
13436
13644
13817
13922
14078
14220
14417
14574
14860
15097
15509
15897
16415
16772
17199
17413
17562
17533
17374
16960
16265
15265
14132
13088
12198
11641
11314
11193
11155
11228
11266
11403
11393
11481
11511
11653
11702
11793
11761
11815
11859
11844
11876
11835
11842
11968
12011
11881
11829
12149
12613
12865
13024
12951
12964
12777
12652
12451
12385
12366
12418
12250
11777
12914
17015
22535
25410
14629
8197
9845
10794
12015
12664
13063
13203
13414
13506
13691
13831
14043
14215
14440
14625
14884
15225
15570
15924
16320
16766
17084
17286
17312
17282
17012
16565
15700
14739
13593
12643
11863
11410
11160
11110
11052
11115
11222
11291
11431
11480
11607
11673
11831
11804
11877
11827
11861
11824
11885
11813
11831
11868
11755
11583
11688
11929
12404
12775
12944
12939
12973
12895
12722
12542
12397
12423
12414
12257
11662
12933
16974
22728
25197
13751
8253
9829
10903
12025
12768
13099
13263
13344
13431
13454
13673
13835
13988
14208
14600
14874
15237
15497
15977
16506
17053
17370
17571
17574
17415
17158
16632
15822
14719
13679
12728
12060
11598
11423
11291
11266
11248
11277
11265
11391
11417
11399
11469
11445
11549
11605
11742
11794
11886
11897
12011
11946
11975
11917
11887
11898
12365
12755
13059
13096
13080
12998
12880
12658
12570
12516
12547
12477
12150
11685
13152
17289
23017
24631
12382
8167
9739
11085
12093
12727
12856
13074
13284
13579
13761
13983
14158
14338
14565
14789
15135
15453
15822
15977
16465
16936
17339
17436
17385
17265
17075
16619
15831
14701
13576
12697
11968
11487
11285
11228
11146
11270
11403
11548
11549
11697
11749
11841
11847
11795
11755
11833
11841
11908
11771
11814
11814
11981
11951
11878
11928
12324
12721
12800
12755
12686
12710
12589
12557
12405
12353
12369
12490
12160
11942
14021
18301
23769
22888
10429
8710
10294
11318
12191
12804
13131
13251
13514
13692
13876
13940
14174
14208
14379
14583
14944
15238
15635
16091
16595
16807
16854
17100
17104
17087
16834
16330
15382
14430
13413
12560
11904
11540
11294
11227
11181
11319
11404
11461
11521
11455
11538
11369
11456
11570
11780
11760
11810
11764
11842
11866
12069
12082
12023
11933
12305
12762
13150
13258
13252
13221
13086
12746
12505
12389
12344
12448
12238
11786
12845
16818
22293
25011
13525
8217
9719
10903
11979
12721
12984
13253
13452
13675
13851
14027
14241
14414
14714
14959
15231
15400
15775
16137
16609
16971
17294
17436
17483
17289
17100
16710
15950
14899
13745
12796
11959
11584
11369
11347
11340
11449
11500
11692
11720
11876
11903
12010
11983
12026
12063
12091
12068
12097
12088
12086
12198
12225
12168
12123
12457
12835
13249
13376
13325
13174
13112
12884
12752
12599
12661
12656
12501
12144
13712
17774
23383
24646
12330
8444
10238
11583
12535
13176
13407
13635
13713
13944
14090
14299
14395
14597
14755
15008
15254
15546
15889
16234
16679
17048
17464
17546
17568
17374
17174
16670
15954
14909
13885
12885
12224
11789
11546
11345
11340
11442
11560
11714
11719
11824
11880
11973
11937
12030
12027
12082
12042
12087
12064
12114
11970
11963
12105
12506
12818
13084
13046
12946
12809
12579
12473
12263
12273
12350
12405
11998
12450
15544
20617
25250
17922
7779
9161
10651
11953
12641
12972
13183
13331
13488
13621
13808
13941
14142
14277
14550
14694
14983
15322
15744
16154
16663
17007
17231
17237
17197
16955
16545
15885
14925
13969
12957
12210
11674
11425
11245
11270
11290
11460
11501
11589
11649
11755
11765
11843
11864
11855
11896
11918
11953
11987
12048
11991
11904
11900
12251
12635
12987
12967
12937
12871
12701
12494
12395
12305
12412
12402
12140
12088
14572
19235
24744
21436
8877
8625
10358
11808
12531
13037
13206
13410
13500
13632
13735
13899
13967
14110
14279
14358
14619
15110
15684
16175
16667
16987
17295
17300
17321
17096
16828
16250
15418
14313
13316
12444
11939
11617
11436
11365
11345
11451
11525
11537
11504
11574
11486
11417
11450
11639
11736
11812
11853
11972
11805
11948
11870
11754
11722
12209
12702
13070
13117
12966
12893
12701
12515
12228
12033
12032
12181
11871
11590
13621
18081
23523
21316
8532
7663
9472
10921
11710
12146
12374
12531
12744
12864
13090
13301
13571
13727
14127
14606
15122
15436
15948
16424
16880
17277
17596
17639
17557
17412
16975
16321
15534
14621
13627
12805
12217
11860
11629
11595
11635
11802
11890
12027
12122
12210
12179
11977
11830
11816
11996
12060
12182
12129
12192
12123
12088
12006
12091
12420
12874
13022
13223
13077
13077
12877
12844
12636
12567
12477
12536
12249
12008
14099
18572
24333
23399
10352
8270
9780
11183
12184
12696
13026
13111
13399
13595
13731
13814
14014
14162
14298
14565
14927
15250
15571
15924
16339
16725
16884
16972
16917
16826
16508
16026
15177
14228
13198
12346
11761
11387
11198
11134
11127
11214
11388
11433
11543
11508
11634
11643
11733
11700
11772
11738
11789
11753
11780
11790
11913
11755
11679
11833
12308
12695
12875
12815
12757
12697
12465
12357
12144
12170
12183
12015
11475
12969
17108
22916
24904
12572
8363
9920
11050
12038
12578
12834
13059
13174
13363
13446
13693
13833
14060
14243
14497
14756
15123
15420
15827
16217
16593
16835
16907
16868
16729
16484
15945
15192
14210
13248
12303
11721
11249
11118
10995
11017
11031
11193
11274
11405
11494
11561
11633
11601
11674
11667
11754
11719
11771
11763
11829
11836
11771
11617
11813
12210
12711
12885
12903
12802
12730
12516
12415
12206
12195
12227
12098
11669
12479
16201
21728
25532
15062
8152
9772
11068
12033
12646
12879
13074
13205
13436
13599
13771
13957
14136
14338
14547
14870
15132
15480
15812
16281
16630
16958
17049
17068
16860
16649
16208
15544
14560
13566
12678
11980
11537
11267
11186
11153
11278
11340
11464
11495
11622
11597
11707
11726
11781
11758
11795
11777
11804
11809
11900
11914
11953
11835
11767
12041
12570
12982
13082
13061
12977
12859
12617
12516
12309
12359
12337
12176
11832
13599
17796
23555
23837
11045
8223
10038
11451
12271
12805
13013
13257
13376
13628
13724
13976
14107
14353
14547
14802
15057
15378
15694
16090
16503
16876
17125
17179
17158
16950
16692
16193
15469
14441
13487
12555
11960
11500
11314
11194
11234
11310
11369
11478
11618
11728
11765
11844
11841
11902
11846
11851
11843
11940
11911
11927
11966
12020
11915
11863
12102
12655
13006
13178
13043
12984
12858
12644
12463
12316
12332
12347
12174
11916
13866
18181
23938
23312
10332
8274
10166
11475
12403
12897
13148
13260
13424
13613
13804
13979
14085
14133
14275
14573
14801
15206
15586
16117
16524
16948
17110
17207
17165
17060
16729
16204
15400
14399
13406
12518
11934
11558
11387
11264
11291
11326
11455
11533
11662
11684
11803
11862
11919
11912
11883
11842
11812
11805
11901
