14422
14879
15125
15453
15854
16267
16846
17282
17651
17862
17986
17857
17530
16904
16075
15049
13913
12855
12113
11603
11274
11235
11193
11171
11212
11364
11409
11454
11515
11710
11746
11771
11802
11839
11871
11827
11767
11751
11775
11816
11865
11915
12000
11919
11985
12042
12107
11986
11991
12214
12741
13147
13285
13259
13126
13059
12840
12766
12599
12527
12542
12457
12154
13124
16657
22172
25375
15697
7526
9168
10711
11887
12685
13008
13271
13472
13694
13815
13888
14186
14389
14514
14707
15012
15402
15782
16331
16829
17352
17716
17929
18001
17845
17509
16991
16154
15099
13950
12911
11999
11484
11147
10968
10959
10889
10999
11106
11294
11339
11402
11468
11599
11637
11663
11700
11736
11771
11774
11781
11904
11953
11835
11872
11857
12016
12029
11993
11920
12114
12534
12973
13122
13140
13095
13022
12843
12583
12366
12286
12394
12326
11972
12257
15304
20262
25500
19248
7839
9497
10608
11864
12744
13086
13264
13440
13677
13863
13952
14075
14285
14472
14631
14948
15312
15739
16161
16643
17167
17660
17893
18046
17944
17700
17197
16370
15252
14107
12984
12096
11568
11213
11092
10988
10977
10996
11128
11220
11313
11369
11461
11530
11626
11617
11633
11708
11773
11877
11790
11769
11833
11899
11927
11934
12010
12032
11957
11998
12469
12921
13124
13097
12958
12925
12798
12653
12461
12403
12496
12529
12242
12346
16572
22097
25518
15717
7870
9338
10693
11985
12802
13188
13311
13463
13665
13804
13980
14084
14306
14468
14669
14940
15301
15702
16116
16669
17151
17620
17795
17919
17879
17622
17217
16514
15468
14322
13182
12325
11624
11310
11156
11110
11034
11053
11154
11320
11436
11441
11575
11605
11675
11740
11746
11691
11711
11758
11824
11856
11880
11873
11910
12018
12148
12144
12015
11933
12392
12923
13132
13099
13065
13056
12875
12731
12508
12513
12491
12406
12080
12617
15765
20931
25357
17912
7484
8594
10506
11966
12771
13110
13297
13450
13692
13853
14022
14152
14388
14514
14736
14995
15304
15660
16101
16508
16998
17478
17802
17962
17848
17701
17316
16631
15681
14598
13504
12576
11852
11413
11254
11119
11054
11131
11267
11299
11395
11457
11480
11546
11676
11701
11678
11696
11783
11771
11796
11829
11898
11873
12042
12061
11954
11853
12050
12472
12852
13120
13135
13138
12406
12358
12324
12062
12387
15216
20149
25152
19665
7973
8263
10195
11683
12544
13042
13264
13449
13619
13756
13901
14059
14295
14511
14674
14947
15215
15507
15970
16392
16901
17419
17780
17888
17853
17653
17366
16712
15749
14656
13555
12436
11723
11358
11244
11074
10944
10945
11152
11301
11386
11485
11531
11617
11607
11724
11748
11787
11724
11763
11786
11817
11870
11882
11790
11844
11901
12201
12496
12720
13004
12886
12842
12729
12599
12302
12258
12234
12332
12023
12076
14555
19066
24776
21266
8972
8437
9858
11285
12322
12876
13078
13211
13440
13602
13802
13820
14009
14238
14501
14767
15087
15412
15798
16279
16723
17186
17671
17824
17845
17805
17240
16539
15599
14537
13341
12333
11621
11339
11246
11220
10959
11029
11240
11290
11375
11506
11629
11765
11876
11888
11821
11733
11762
11904
11673
11641
11794
11879
11835
11869
12065
12343
12673
12869
12976
12998
12979
12601
12448
12266
12165
12213
12326
12025
12071
14628
19255
24832
20845
8681
8313
10053
11474
12382
12920
13277
13403
13442
13527
13834
14068
14196
14285
14536
14947
15105
15435
15875
16384
16895
17446
17713
17821
17705
17558
17209
16565
15673
14578
13419
12452
11716
11304
11149
10968
10978
11035
11225
11316
11325
11344
11581
11751
11679
11660
11721
11699
11735
11782
11830
11818
11780
11906
11859
11800
11736
12176
12477
12835
12960
12922
12857
12740
12568
12483
12346
12422
12380
12261
12232
14361
18729
24210
22366
9604
7466
9711
11414
12278
12833
13131
13344
13511
13646
13726
13913
14108
14325
14502
14808
15111
15419
15736
16165
16692
17091
17456
17649
17668
17461
17242
16641
15902
14924
13852
12823
12055
11559
11275
11202
11184
11229
11336
11425
11497
11617
11687
11851
11806
11840
11864
11956
11930
11873
11800
11894
11962
11971
11824
11809
12015
12296
12663
12957
13062
12964
12849
12738
12568
12332
12371
12356
12311
12051
12512
15510
20567
24979
18460
7500
8453
10392
11768
12529
13045
13284
13401
13586
13679
13904
14056
14210
14452
14747
14977
15248
15512
15993
16429
16846
17301
17576
17665
17644
17426
17113
16499
15611
14576
13482
12495
11818
11412
11133
11029
11030
11102
11230
11347
11331
11374
11473
11566
11641
11703
11746
11785
11820
11822
11838
11861
11958
11775
11695
11859
12184
12587
12916
13030
12899
12772
12657
12527
12240
12102
12211
12198
11942
12482
15595
20462
25084
18429
7678
8706
10093
11491
12425
12863
12970
13229
13476
13700
13861
13952
14095
14322
14553
14833
15202
15537
15968
16386
16930
17321
17598
17719
17605
17402
17047
16363
15381
14260
13225
12307
11687
11333
11135
11023
11000
11079
11221
11335
11375
11452
11501
11630
11765
11878
11852
11866
11839
11924
11893
11932
11894
11818
11879
12101
12369
12633
12949
12887
12870
12698
12597
12449
12214
12231
12250
12041
11720
12894
16714
22102
24935
14600
7597
9346
10548
11826
12658
13049
13233
13428
13494
13652
13856
14151
14261
14510
14640
14920
15296
15787
16208
16586
17043
17497
17761
17774
17598
17392
16954
16159
15119
14009
12927
12069
11523
11230
11095
11064
11113
11172
11243
11286
11414
11525
11576
11677
11675
11725
11719
11757
11766
11837
11863
11841
11884
12045
11871
11728
11852
12259
12896
13117
13042
12957
12855
12641
12517
12349
12295
12330
12290
11995
12526
15716
20817
25315
18152
7538
8591
10231
11622
12500
12968
13207
13365
13502
13659
13776
13941
14172
14325
14587
14816
15168
15476
15927
16416
16911
17271
17579
17658
17621
17477
17118
16434
15497
14489
13343
12394
11703
11430
11175
11150
11069
11146
11260
11381
11352
11456
11552
11661
11619
11644
11700
11693
11766
11854
11913
11828
11934
11845
11787
11855
11901
11875
12170
12740
13105
13154
13040
12909
12951
12693
12621
12456
12378
12437
12391
12031
12648
15918
21193
25251
17035
7335
8684
10548
11963
12682
12940
13212
13360
13526
13743
13920
14064
14224
14450
14593
14843
15163
15510
15938
16441
16866
17327
17596
17648
17600
17502
17063
16437
15536
14489
13432
12490
11792
11397
11282
11162
11212
11227
11401
11390
11469
11556
11639
11727
11771
11653
11641
11751
11824
11777
11856
11908
11939
12011
11936
11911
12077
12079
11875
11920
12473
12949
13118
13114
13073
13157
12898
12766
12636
12594
12577
12643
12421
12205
14066
18202
23752
23415
11100
7714
9828
11299
12302
12890
13232
13405
13556
13741
13954
14064
14221
14385
14531
14811
15086
15456
15896
16371
16816
17294
17660
17916
17838
17660
17436
16992
16121
15168
14020
12930
12166
11630
11350
11124
11040
10998
11171
11216
11268
11309
11432
11555
11645
11595
11620
11681
11752
11692
11726
11761
11794
11824
11874
11853
11774
11746
11777
12155
12597
12920
13029
12924
12772
12700
12615
12490
12295
12270
12334
12202
11786
12889
16690
22366
25096
14174
7606
9313
10714
11971
12773
13143
13308
13463
13677
13797
13843
14027
14308
14456
14673
14942
15295
15702
16163
16660
17077
17355
17633
17766
17588
17347
16890
16185
15226
14168
12950
12127
11663
11381
11187
11146
11195
11287
11298
11310
11451
11579
11683
11765
11821
11862
11798
11813
11919
11894
11894
11798
11887
12028
12073
12031
12083
11971
11966
12335
12808
13106
13199
13241
13124
12943
12752
12610
12432
12370
12522
12420
12106
13641
17688
23572
23733
11484
7864
9740
11269
12423
13088
13317
13486
13650
13888
13981
14057
14190
14423
14633
14787
15059
15429
15809
16305
16780
17165
17607
17902
17859
17660
17496
17015
16226
15195
14073
12984
12290
11792
11506
11296
11274
11309
11364
11470
11487
11459
11528
11602
11653
11691
11755
11776
11850
11847
11804
11838
11852
11904
11906
11897
12022
12017
11931
11953
12282
12779
13075
13105
13061
13010
12848
12697
12563
12309
12366
12528
12259
11876
13566
17587
23354
23582
11516
7345
9476
11277
12324
12853
13151
13392
13511
13617
13768
14009
14154
14314
14480
14818
15107
15541
15881
16222
16556
17008
17397
17678
17755
17579
17297
16848
16191
15224
14174
13023
12215
11723
11356
11238
11185
11189
11282
11381
11519
11525
11663
11713
11777
11852
11873
11894
11827
11844
11916
11952
11985
12021
12028
12087
12092
12237
12293
12289
12128
12271
12674
13162
13300
13288
13228
13200
12985
12916
12754
12541
12575
12513
12218
12620
15758
20854
25205
17851
7697
8776
10630
11997
12822
13240
13395
13509
13701
13878
14066
14161
14271
14545
14777
15026
15279
15665
16030
16480
16905
17352
17600
17688
17658
17509
17219
16634
15774
14334
13159
12269
11657
11308
11190
11166
11250
11305
11439
11503
11549
11550
11637
11723
11726
11701
11779
11814
11870
11882
11853
11873
11871
11847
11914
11906
11902
12006
12298
12685
12994
13127
13031
12970
12805
12690
12447
12298
12354
12401
12233
12115
13946
17967
23502
23267
11014
7879
9646
10905
12178
12855
13068
13236
13412
13619
13895
13964
14107
14280
14481
14697
15000
15326
15732
16225
16639
17103
17396
17607
17639
17532
17076
16447
15441
14317
13197
12375
11650
11248
11084
10992
10929
11014
11191
11265
11404
11444
11544
11646
11727
11660
11683
11726
11838
11906
11893
11847
11900
11964
12022
11894
11882
11858
12175
12671
13023
13190
12980
12978
12881
12769
12501
12307
12288
12351
12288
11970
12809
16234
21648
25475
15999
7724
9126
10505
11903
12689
13081
13172
13346
13461
13650
13824
14021
14198
14294
14479
14817
15170
15520
16027
16507
16878
17260
17623
17618
17466
17141
16688
15891
14856
13696
12722
11943
11486
11169
11079
11027
11082
11185
11276
11290
11388
11468
11478
11522
11596
11646
11658
11728
11733
11785
11762
11795
11776
11763
11868
11878
11838
11847
12253
12736
13088
13018
12926
12861
12744
12541
12403
12273
12340
12370
12654
12755
14375
18351
23824
22947
10303
7537
9487
11144
12205
12810
13022
13198
13317
13552
13753
13918
14106
14385
14480
14715
15032
15365
15718
16137
16778
17178
17382
17475
17466
17261
16898
16302
15431
14385
13364
12412
11735
11231
11077
11008
10963
10998
11168
11260
11440
11435
11445
11499
11526
11576
11577
11649
11685
11690
11726
11755
11760
11817
11877
11942
11723
11711
11977
12520
12947
13122
13038
12957
12889
12668
12523
12385
12388
12333
12228
11944
12823
16170
21418
24956
16053
7134
8814
10701
12063
12856
13192
13300
13469
13632
13783
13986
14124
14308
14481
14793
14888
15420
15781
16145
16587
17113
17398
17594
17590
17414
17103
16702
15954
15062
14072
12996
12199
11714
11431
11236
11144
11159
11290
11402
11523
11496
11584
11673
11743
11727
11757
11765
11823
11864
11896
11892
11845
11964
12016
11920
11898
12006
12330
12778
13054
13069
12965
12951
12737
12597
12353
12314
12392
12362
12168
12538
15372
20173
24884
19017
7739
8440
10177
11634
12646
13071
13246
13356
13582
13794
13895
14068
14296
14538
14708
15050
15395
15794
16217
16639
16971
17339
17557
17648
17532
17214
16822
16088
15058
14029
13010
12228
11633
11374
11268
11124
11094
11168
11289
11408
11479
11542
11661
11714
11803
11811
11858
11865
11858
11883
11904
11840
11937
11875
11847
11834
12075
12497
12787
12992
12983
12919
12729
12500
12314
12283
12329
12409
12266
12175
13932
18022
23609
23470
11116
7850
9646
10986
12219
12832
13210
13440
13676
13751
13945
14109
14235
14343
14658
14956
15299
15588
15899
16347
16883
17267
17469
17543
17496
17299
16988
16370
15461
14429
13388
12598
11967
11589
11294
11202
11172
11270
11370
11518
11613
11772
11858
11901
11936
11964
11940
11947
11989
11952
12005
12049
12189
12070
12002
11880
12107
12473
12933
13274
13281
13049
12985
12789
12540
12305
12366
12400
12379
12284
13079
16354
21480
25357
16578
7394
8879
10627
12077
12748
12937
13144
13442
13582
13770
13895
14126
14280
14522
14729
15035
15357
15772
16177
16702
17130
17467
17602
17611
17453
17228
16769
16055
14979
13770
12770
12023
11656
11399
11425
11443
11392
11420
11460
11439
11557
11606
11690
11827
12019
12060
11995
11950
11965
11908
11866
11825
11730
11741
11854
12169
12483
12708
12760
12721
12659
12565
12400
12274
12158
12172
12208
11997
11915
14140
18852
24281
21800
9069
7584
9787
11433
12243
12779
12981
13237
13451
13689
13928
14084
14184
14421
14596
14908
15217
15595
15943
16435
16877
17253
17491
17425
17338
17155
16884
16201
15299
14176
13217
12385
11807
11406
11240
11137
11212
11260
11315
11414
11493
11522
11583
11620
11674
11807
11756
11736
11685
11767
11781
11956
11838
11790
11877
12197
12550
12906
12974
12781
12718
12622
12499
12334
12233
12261
12398
12160
12054
14071
18545
24038
22666
9998
7646
9698
11279
12307
12908
13149
13262
13407
13603
13787
14051
14210
14323
14675
14932
15279
15562
16009
16445
16958
17315
17590
17682
17520
17344
17034
16337
15448
14363
13210
12286
11672
11381
11205
11142
11089
11238
11246
11374
11473
11618
11674
11756
11791
11803
11878
11857
11846
11850
11845
11720
11749
11883
12251
12521
12785
12875
12743
12599
12455
12387
12159
12098
12102
12105
11807
12068
14769
19442
24617
19708
8255
8805
10102
11326
12224
12745
13065
13201
13412
13629
13726
13799
14007
14198
14424
14814
15218
15581
16032
16442
16861
17215
17535
17539
17439
17214
16684
15871
14887
13876
12824
11941
11527
11289
11101
11062
11114
11208
11245
11368
11491
11622
11620
11765
11773
11917
11928
11895
11909
12000
11881
11831
11878
12154
12542
12818
12956
12830
12790
12628
12472
12192
12119
12205
12234
11878
11653
13894
18515
24376
22334
9928
8612
9897
11195
12230
12799
13056
13172
13421
13581
13795
13845
14017
14190
14431
14689
14985
15273
15869
16308
16827
17224
17538
17568
17425
17219
16802
16029
15016
13954
12937
12192
11559
11313
11170
11125
11117
11212
11295
11418
11535
11637
11723
11834
11904
11889
11881
11917
12003
12070
12061
11974
11856
11963
12428
12829
13086
13006
12872
12740
12575
12506
12304
12248
12249
12270
11870
12276
15428
20664
25501
18430
7937
9001
10349
11801
12657
13123
13255
13411
13572
13701
13891
14014
14138
14305
14548
14747
15058
15480
15933
16564
16966
17217
17459
17491
17356
17082
16585
15734
14776
13721
12780
11930
11526
11308
11197
11154
11112
11255
11313
11357
11355
11509
11554
11632
11712
11814
11770
11799
11824
11794
11864
11905
11852
11726
11985
12505
12932
13069
12991
12783
12647
12434
12345
12208
12189
12131
12126
11781
12737
16435
22009
25219
15306
7315
9085
10741
11914
12618
13008
13291
13451
13613
13762
13975
14187
14321
14517
14714
14998
15308
15721
16150
16594
17220
17447
17532
17593
17418
17085
16536
15696
14692
13624
12676
11982
11478
11267
11118
11097
11098
11254
11309
11423
11545
11693
11755
11661
11725
11770
11675
11636
11738
11800
11874
11873
11965
11939
11944
11908
12353
12769
13052
13066
12988
12859
12773
12626
12370
12322
12282
12307
12070
12074
14367
19108
24735
21899
9045
7936
9850
11381
12326
12896
13099
13256
13534
13704
13883
13993
14161
14309
14627
14837
15132
15472
15950
16563
16967
17305
17551
17600
17531
17325
16997
16191
15264
14187
13176
12325
11753
11409
11217
11107
11099
11150
11273
11455
11495
11588
11626
11696
11739
11826
11785
11778
11859
11833
11826
11811
11833
11918
11975
11876
11779
11975
12465
12825
13039
12965
12963
12876
12636
12357
12236
12310
12435
12216
11906
12922
16556
21918
25018
15026
7517
9312
10479
11770
12573
13022
13164
13355
13452
13666
13852
14025
14132
14381
14612
14840
15217
15842
16319
16687
17137
17438
17604
17597
17488
17154
16628
15733
14702
13544
12608
11872
11449
11185
11088
11001
11029
11161
11230
11341
11420
11543
11609
11695
11714
11779
11729
11766
11808
11820
11830
11880
11951
11988
11900
11834
12129
12556
12908
12952
12906
12894
12781
12587
12425
12262
12322
12315
12160
11834
13094
16902
22603
24923
13745
7797
9391
10659
11934
12770
13087
13313
13463
13634
13767
13942
14079
14311
14496
14740
15075
15513
15918
16392
16759
17181
17505
17624
17631
17458
17062
16408
15564
14505
13458
12556
11912
11453
11184
11141
11152
11087
11203
11328
11503
11591
11679
11674
11715
11852
11886
11860
11840
11911
11932
11943
11846
11860
11954
12027
11897
11872
12267
12745
13139
13088
12932
12858
12701
12527
12351
12259
12379
12303
12016
12153
14888
19733
25367
20203
8329
8612
10071
11541
12539
12979
13148
13357
13601
13725
13824
14042
14179
14458
14746
15044
15351
15741
16154
16601
17073
17512
17652
17699
17576
17361
16943
16136
15112
14055
13093
12300
11674
11334
11189
11113
11139
11209
11320
11388
11557
11606
11766
11854
11814
11821
11855
11869
11887
11823
11845
11979
11933
11953
12065
12065
11974
12021
12410
12841
13079
13147
13055
12968
12768
12600
12427
12338
12409
12428
12167
12274
14927
19524
24953
20759
8329
8158
9980
11402
12366
13008
13221
13397
13560
13697
13833
14118
14316
14500
14747
14961
15278
15605
16024
16502
16937
17291
17475
17613
17552
17280
16880
16238
15329
14301
13236
12399
11794
11367
11203
11097
11171
11301
11365
11375
11436
11520
11646
11688
11724
11719
11759
11757
11769
11772
11792
11823
11945
11916
11899
11767
12062
12486
12804
13056
12977
12875
12765
12644
12430
12248
12213
12250
12031
11807
13279
17094
22590
23916
12459
7133
9183
10567
11880
12668
13015
13167
13357
13506
13753
13933
14171
14332
14549
14772
15076
15414
15827
16262
16678
17042
17327
17415
17326
17255
16978
16443
15620
14659
13581
12595
11863
11455
11199
11109
11092
11263
11318
11388
11473
11642
11713
11707
11744
11749
11801
11751
11826
11856
11865
11836
11793
11790
11838
12184
12606
12851
12983
12925
12787
12617
12443
12300
12178
12277
12278
12018
12119
14414
18589
23912
21417
9081
8007
9783
10978
12184
12918
13116
13289
13388
13594
13718
13845
13975
14269
14498
14711
15068
15499
15878
16329
16792
17160
17375
17489
17439
17217
16770
16062
15110
14088
13116
12324
11849
11415
11214
11141
11160
11196
11342
11438
11564
11578
11690
11734
11795
11843
11905
11932
11917
11975
11917
11844
11887
12131
12315
12650
12935
13024
12838
12603
12521
12421
12213
12209
12189
12132
12086
13543
17014
22128
23987
13172
7452
9548
10569
11783
12637
12965
13167
13326
13555
13677
13870
13995
14152
14421
14725
15047
15362
15655
16041
16501
16850
17153
17226
17197
17037
16645
16017
15153
14180
13254
12399
11879
11460
11281
11194
11297
11347
11402
11491
11563
11698
11828
11885
11921
11952
11936
11965
11972
12072
11986
11987
11954
12191
12495
12858
13046
13061
12925
12775
12574
12431
12251
12140
12231
12207
12099
13153
16528
21457
24222
14390
7180
9306
10695
11774
12685
13033
13226
13338
13450
13643
13738
13880
14039
14307
14493
14946
15209
15627
15934
16401
16783
17041
17138
17037
16868
16652
16153
15370
14358
13393
12609
12094
11705
11448
11407
11375
11389
11449
11517
11596
11707
11722
11836
11970
12015
11962
11954
12028
12094
11929
11902
11930
12173
12478
12676
12904
12803
12722
12465
12386
12201
12136
12102
12179
12006
12122
14206
18054
22876
20353
8989
8028
10031
11481
12484
13004
13271
13487
13652
13826
13968
14047
14262
14443
14634
14778
15019
15383
15835
16147
16507
16696
16823
16860
16717
16546
16179
15586
14747
13894
12960
12339
11980
11763
11590
11582
11595
11727
11893
12005
11978
12016
12114
12119
12192
12173
12146
12186
12274
12081
12052
12139
12453
12742
13034
13186
13166
12968
12716
12550
12377
12306
12210
12279
12020
12079
14363
18609
23547
19034
8305
8655
10432
11799
12521
12992
13196
13373
13538
13698
13897
14010
14163
14265
14518
14714
15029
15274
15757
16112
16472
16806
16954
16850
16755
16424
15965
15276
14479
13555
12707
12120
11745
11519
11378
11393
11439
11491
11570
11787
11846
11775
11822
11958
11921
11953
11951
12006
12086
12036
11948
11909
12120
12423
12805
13041
13065
12900
12685
12465
12426
12285
12244
12272
12232
11948
12938
16394
21450
23845
13858
7352
9528
10815
11880
12764
13100
13231
13352
13611
13723
13861
14013
14221
14353
14577
14815
15122
15402
15759
16167
16488
16726
16834
16844
16645
16358
15892
15243
14366
13434
12675
12109
11693
11563
11507
11540
11597
11719
11824
11938
11920
11917
11898
11985
12000
11966
11984
11989
12084
12000
11942
11939
12249
12532
12867
12967
12897
12762
12561
12443
12201
12066
12082
12216
12118
12247
13932
17686
22573
21694
10041
7256
9573
10884
12007
12804
13095
13278
13457
13674
13808
13885
14060
14277
14522
14721
15007
15345
15703
16017
16421
16677
16913
16992
16936
16748
16538
16081
15190
14268
13385
12567
12024
11728
11596
11522
11462
11495
11598
11749
11851
11946
11981
12027
12037
12065
11930
11999
11999
12040
11951
11838
11967
12360
12735
12971
13050
12978
12841
12579
12420
12248
12162
12247
12292
12133
12492
15008
19377
24021
18625
7466
8254
10039
11333
12489
13088
13270
13403
13625
13711
13803
13933
14126
14281
14506
14717
15041
15393
15735
16152
16566
16868
17105
17138
17027
16833
16392
15851
15064
14058
12836
12152
11643
11422
11304
11289
11383
11436
11475
11638
11689
11785
11812
11850
11894
11987
12006
11886
11903
12007
11936
11767
11908
12319
12701
12910
13064
12958
12756
12503
12418
12136
12130
12199
12187
11964
12358
15229
20049
24399
16927
7138
8782
10229
11516
12518
12949
13174
13387
13550
13662
13879
14095
14170
14402
14673
14923
15171
15529
15984
16452
16779
17092
17268
17297
17115
16873
16510
15850
14981
14006
13081
12331
11855
11521
11325
11273
11409
11520
11609
11676
11793
11798
11905
11886
11946
11944
11922
11897
12012
11963
11877
11859
12228
12681
12982
13044
12961
12861
12661
12522
12299
12214
12193
12211
12004
11977
13914
18124
23614
21142
8628
7927
9829
11133
12245
12978
13268
13326
13536
13702
13791
13954
14131
14255
14568
14730
15036
15396
15694
16078
16525
16896
17109
17141
17045
16899
16548
16005
15207
14302
13341
12539
11909
11487
11284
11216
11346
11493
11523
11584
11669
11842
11897
11844
11818
11912
11989
11991
11963
12032
11972
11854
12005
12386
12806
12993
13077
12965
12813
12473
12384
12204
12165
12213
12176
11792
12328
15608
20674
24476
15473
6948
9047
10358
11602
12560
12992
13261
13389
13599
13782
13942
14109
14246
14331
14576
14942
15291
15647
15869
16304
16767
17043
17145
17160
17038
16848
16428
15851
14904
13975
13064
12335
11881
11526
11326
11311
11426
11511
11587
11689
11729
11769
11858
11859
11955
12017
12051
11970
12087
11992
11904
11801
12046
12412
12831
13030
13117
13017
12792
12457
12239
12149
12077
12190
12072
11723
12664
16340
21738
24206
13207
6920
9317
10581
11764
12602
12945
13198
13385
13547
13773
13923
14066
14251
14473
14584
14951
15242
15582
15931
16394
16788
17076
17184
17196
17018
16703
16242
15453
14534
13663
12882
12116
11687
11442
11423
11415
11452
11498
11570
11629
11773
11824
11815
11831
11956
11909
11930
11950
11933
11939
11827
12027
12426
12841
13014
13048
12951
12838
12557
12388
12087
12070
12097
12142
11736
12247
15543
20726
24524
15385
7077
9130
10349
11612
12502
12940
13167
13299
13551
13729
13923
14083
14214
14345
14571
14876
15228
15590
15952
16387
16770
17080
17213
17275
17038
16742
16263
15634
14737
13825
12889
12159
11718
11457
11312
11307
11386
11537
11507
11505
11634
11645
11738
11798
11876
11887
11939
12006
11972
11839
11986
12287
12704
12981
13071
12946
12803
12534
12424
12149
12033
12062
12045
11745
11901
14941
19943
24596
17035
7283
9034
10395
11724
12668
13034
13187
13301
13512
13740
13935
14034
14153
14342
14502
14808
15172
15522
15947
16433
16781
16999
17184
17130
17018
16830
16365
15681
14881
13892
12834
12142
11675
11488
11419
11305
11494
11660
11648
11579
11585
11685
11873
11867
11933
12018
12042
12051
11974
11821
12030
12436
12777
13041
13038
12895
12725
12531
12382
12197
12108
12095
12008
11534
12139
15461
20717
24295
14660
7043
9150
10462
11754
12601
12957
13101
13296
13447
13589
13758
14008
14138
14329
14525
14938
15235
15481
15829
16337
16673
16928
17103
17063
16917
16652
16243
15541
14703
13785
12888
12184
11691
11308
11240
11295
11400
11454
11554
11689
11767
11808
11842
11937
11915
11909
11988
12169
12177
12117
12022
12169
12500
13019
13133
13095
12948
12764
12556
12382
12157
12168
12247
12083
11737
13404
17567
23226
22565
9891
7835
9804
11188
12215
12845
13074
13247
13413
13596
13699
13894
14064
14234
14446
14682
14997
15387
15767
16085
16473
16804
17075
17118
17058
16870
16642
16094
15305
14373
13407
12571
11965
11616
11366
11298
11330
11397
11477
11629
11687
11771
11743
11764
11851
11948
11988
11964
11969
12063
11998
11926
11901
12218
12695
12993
13128
13045
12859
12679
12462
12219
12176
12235
12110
11645
12669
16457
22033
24832
13722
7287
9376
10565
11847
12639
13053
13240
13382
13540
13725
13927
14086
14252
14464
14737
14981
15286
15600
16013
16470
16900
16998
17107
16993
16812
16549
16093
15420
14523
13567
12682
12044
11618
11353
11192
11241
11284
11334
11375
11544
11661
11804
11803
11790
11803
11807
11743
11837
11871
11785
11760
11902
12263
12628
12903
12900
12801
12533
12421
12295
12097
12112
12176
11802
11572
13601
17968
23627
21631
9053
8115
9657
10943
12097
12773
13050
13200
13364
13511
13743
13846
14029
14163
14456
14710
15037
15332
15694
16111
16548
16848
17005
17065
16989
16814
16381
15815
15027
14121
13077
12250
11661
11376
11212
11252
11299
11408
11461
11511
11623
11771
11905
11900
11925
11923
11954
11918
11999
11880
11875
11927
12271
12633
12922
12969
12876
12742
12572
12432
12189
12171
12167
12176
11746
12785
16572
22183
24220
12934
7850
9627
10697
11992
12744
13087
13258
13474
13614
13708
13869
14034
14170
14369
14709
14935
15289
15637
16065
16510
16871
17104
17160
17069
16907
16603
16130
15331
14342
13389
12537
11921
11526
11319
11241
11332
11368
11437
11544
11629
11694
11831
11870
11888
11857
11896
11873
11928
11955
11905
11826
12007
12450
12831
13053
13046
12972
12788
12631
12457
12274
12182
12262
12199
11773
12425
15923
21334
23073
10443
8161
9771
11060
12179
12800
13091
13235
13415
13605
13780
13958
14211
14314
14468
14730
15121
15408
15831
16230
16571
16877
17136
17156
17041
16842
16479
15980
15182
14269
13265
12446
11842
11526
11282
11251
11266
11359
11485
11599
11698
11757
11824
11872
11880
11896
11946
11935
11976
11989
11885
11812
11879
12234
12714
13015
13049
12933
12797
12612
12433
12214
12123
12213
12217
11855
11930
14704
19628
24901
19024
7742
8696
10708
11877
12693
13037
13228
13337
13557
13750
13900
14028
14201
14364
14631
14968
15210
15559
15987
16437
16795
17079
17129
17105
16908
16647
16203
15531
14545
13541
12670
12046
11621
11387
11341
11281
11392
11473
11560
11654
11755
11771
11781
11773
11898
11916
11990
11937
11949
11942
11883
11756
11946
12350
12765
12993
13008
12877
12741
12639
12450
12307
12238
12279
12139
11822
12721
16601
22186
24678
13668
7232
9319
10701
11976
12929
13180
13287
13421
13622
13810
13999
14188
14338
14562
14783
15132
15498
15832
16125
16521
16862
17132
17202
17079
16801
16524
16030
15278
14312
13279
12467
11832
11490
11308
11257
11247
11367
11447
11571
11638
11695
11754
11858
11960
11941
11844
11833
11860
11950
11904
11826
11772
12015
12458
12764
13048
13043
12850
12610
12475
12366
12247
12230
12242
11975
11635
13552
18096
23879
23261
10511
7714
9585
11010
12203
12837
13128
13318
13489
13659
13862
13997
14234
14425
14638
14886
15179
15499
15988
16377
16706
17036
17178
17240
17148
16867
16435
15842
14938
13981
13032
12283
11671
11326
11159
11164
11209
11285
11402
11546
11598
11635
11712
11738
11886
11782
11818
11802
11934
11822
11826
11822
12092
12456
12719
12868
12844
12763
12616
12424
12187
12108
12143
12230
11916
11629
13414
17844
23437
23042
10672
8186
9826
10943
12045
12810
12996
13075
13273
13486
13737
13973
14081
14280
14486
14771
15088
15438
15838
16207
16663
16954
17127
17074
16983
16733
16368
15610
14711
13689
12718
12055
11514
11200
11102
11080
11151
11310
11317
11515
11574
11671
11717
11813
11858
11835
11860
11949
11992
11972
11895
11844
12181
12548
12852
12998
12968
12849
12698
12481
12357
12257
12207
12268
11930
11672
13846
18393
24275
22409
9979
8695
9871
11200
12229
12780
12954
13191
13389
13614
13769
13963
14141
14370
14604
14991
15291
15629
16041
16455
16838
17207
17412
17424
17213
16872
16392
15630
14656
13525
12648
11971
11530
11232
11169
11141
11215
11279
11390
11472
11536
11657
11733
11816
11848
11938
11961
11977
11948
12056
11927
11880
11955
12316
12665
12935
13014
12910
12756
12573
12463
12225
12171
12219
12240
11752
12076
15299
20429
25350
18503
7929
8958
10151
11523
12434
12898
13157
13342
13502
13603
13833
13972
14126
14285
14550
14721
15101
15645
16077
16533
16996
17201
17363
17284
17165
16819
16253
15356
14384
13440
12598
11916
11412
11189
11063
11034
11135
11282
11355
11513
11589
11697
11691
11747
11772
11838
11799
11793
11848
11865
11885
11791
11875
12249
12651
12957
13045
12801
12701
12541
12405
12195
12186
12205
12049
11735
12858
16689
22287
24882
14109
7141
8963
10542
11875
12555
12899
13144
13327
13565
13725
13922
14092
14218
14426
14668
14960
15324
15713
16132
16591
17350
17374
17305
17102
16830
16182
15182
14126
13178
12325
11808
11404
11246
11201
11246
11308
11416
11375
11547
11695
11711
11751
11755
11779
11836
11889
11862
11891
11977
11914
11827
11854
12137
12615
12804
12936
12892
12852
12721
12535
12331
12241
12277
12259
11916
11889
14594
19603
25011
21018
8559
8076
9808
11286
12305
12816
13095
13319
13551
13747
13849
14069
14193
14379
14626
14972
15232
15580
15924
16400
16774
17137
17373
17417
17313
17117
16612
15758
14721
13708
12754
12007
11516
11230
11127
11071
11138
11187
11349
11435
11552
11567
11651
11655
11715
11720
11753
11742
11841
11868
11840
11759
11874
12128
12470
12740
12867
12865
12707
12576
12420
12242
12174
12200
12085
11688
12133
15476
20674
25401
18356
7919
8930
10102
11517
12461
12995
13127
13324
13492
13691
13846
14081
14170
14399
14653
14907
15261
15556
15974
16482
16934
17279
17386
17341
17183
16909
16174
15237
14167
13147
12302
11686
11288
11039
11050
11049
11134
11201
11305
11388
11532
11630
11728
11805
11849
11831
11892
11899
11896
11946
11835
11833
11913
12271
12607
12828
12922
12858
12727
12592
12457
12289
12182
12203
12206
11847
11939
14609
19292
24897
20927
8737
8638
9813
11176
12182
12786
13061
13284
13406
13559
13763
13984
14117
14251
14531
14846
15200
15440
15959
16385
16872
17249
17572
17567
17449
17253
16862
16120
14767
13541
12570
11894
11496
11200
11152
11065
11101
11202
11352
11399
11475
11624
11692
11774
11796
11855
11871
11858
11870
11935
11912
11937
11865
11765
12031
12452
12800
13026
13030
12942
12910
12590
12429
12256
12240
12231
12199
11865
12984
16798
22358
25195
14364
7539
9228
10588
11914
12699
13070
13274
13428
13687
13737
13932
14103
14285
14442
14742
15023
15401
15822
16254
16678
17139
17519
17729
17668
17541
17204
16595
15800
14747
13304
12368
11759
11386
11241
11114
11154
11233
11383
11480
11622
11633
11720
11740
11809
11874
11839
11859
11856
11860
11860
11811
11888
11964
11862
11781
12019
12478
12889
13138
13121
13045
12914
12726
12536
12333
12339
12400
12346
11915
12698
16222
21663
25335
15943
7325
8928
10416
11834
12611
13049
13291
13459
13641
13835
13958
14043
14252
14409
14680
14975
15295
15610
16047
16500
16955
17327
17513
17481
17371
17131
16721
15919
14558
13432
12447
11778
11417
11240
11127
11091
11139
11245
11306
11473
11564
11579
11653
11711
11674
11681
11727
11826
11760
11776
11825
11854
11889
11971
11955
11893
11896
12113
12547
12906
13151
12994
12981
12857
12712
12510
12444
12478
12570
12316
12021
13685
17819
23595
24205
11820
7620
9580
11057
12266
12911
13262
13418
13625
13714
13867
14037
14206
14381
14665
14835
15054
15451
15891
16300
16669
17206
17625
17709
17693
17674
17345
16452
15472
14444
13335
12450
11789
11440
11183
11123
11116
11176
11257
11372
11474
11518
11640
11655
11741
11715
11736
11752
11795
11801
11809
11762
11812
11850
11879
11789
11765
12050
12425
12834
13116
13120
12980
12832
12630
12485
12298
12325
12342
12197
11785
13102
16994
22429
24635
13596
7684
9402
10541
11872
12811
13156
13290
13367
13586
13764
13941
14017
14255
14476
14763
15035
15424
15785
16181
16656
17135
17444
17601
17644
17382
16961
16268
15362
14239
13100
12219
11676
11297
11095
10998
11092
11180
11334
11398
11547
11603
11695
11752
11769
11780
11863
11919
11846
11862
11889
11916
11924
12013
11915
11948
11937
12200
12531
12929
13137
13122
13053
13018
12783
12630
12426
12368
12364
12229
11905
12749
16345
21744
25335
15235
7883
9236
10491
11814
12664
13051
13326
13564
13683
13751
13907
14163
14293
14484
14764
15126
15357
15770
16236
16677
17119
17511
17668
17652
17428
17132
16542
15540
14408
13401
12494
11823
11448
11207
11204
11219
11226
11223
11347
11438
11552
11585
11628
11703
11789
11781
11784
11777
11806
11837
11894
11937
11844
11961
11895
11870
11887
12191
12491
12859
13087
13022
12942
12849
12614
12526
12368
12320
12377
12249
11972
13324
17213
22805
24610
12754
7654
9317
10816
12061
12820
13075
13296
13493
13701
13840
14021
14207
14317
14550
14797
15047
15352
15812
16242
16772
17380
17631
17651
17572
17343
17088
16442
15489
14383
13353
12474
11875
11448
11256
11209
11210
11238
11347
11366
11412
11572
11610
11712
11735
11766
11766
11784
11826
11887
11840
11869
11871
11933
11877
11846
11880
12266
12617
12926
13163
13158
13088
12878
12648
12489
12408
12370
12443
12261
12112
13799
17873
23478
23590
10913
7598
9551
11094
12262
12862
13144
13331
13572
13714
13837
13999
14159
14340
14593
14808
15112
15404
15804
16428
16925
17258
17536
17604
17552
17335
17000
16403
15461
14336
13200
12375
11789
11430
11201
11087
11107
11283
11357
11433
11378
11523
11655
11670
11700
11756
11795
11817
11853
11883
11882
11894
11963
11907
11876
11802
12066
12441
12838
13045
13111
13021
12874
12676
12512
12341
12309
12352
12237
11977
13094
16943
22424
24838
13767
7345
9247
10778
12033
12810
13116
13267
13429
13605
13780
13966
14169
14314
14552
14814
15127
15411
15840
17487
17506
17410
17092
16610
15829
14802
13708
12765
12026
11582
11206
11094
11109
11271
11306
11400
11408
11541
11558
11657
11751
11776
11832
11816
11845
11848
11827
11835
11884
11792
11822
11879
12225
12544
12832
13001
12948
12780
12585
12471
12272
12190
12210
12251
11856
12180
15178
20132
24994
18378
7720
8847
10061
11533
12493
12922
13098
13333
13478
13653
13866
13986
14207
14401
14579
14822
15200
15553
15972
16384
16854
17124
17390
17418
17236
16880
16446
15593
14586
13522
12570
11859
11455
11193
11095
11016
11111
11241
11278
11422
11504
11660
11704
11722
11730
11834
11817
11854
11849
11917
11932
11894
11851
11946
12250
12631
12890
13092
13092
12912
12700
12556
12327
12236
12320
12293
12021
12149
14903
19509
24903
19797
8413
8999
10189
11511
12399
12951
13063
13245
13392
13595
13760
13917
14121
14379
14544
14735
15011
15406
15806
16277
16776
17113
17285
17367
17169
16791
16375
15540
14588
13485
12582
11938
11499
11021
10934
10904
11005
11131
11307
11441
11547
11688
11816
11708
11723
11792
11844
11909
11863
11946
11980
11989
11948
12038
12297
12660
13045
13124
12978
12921
12675
12494
12298
12249
12245
12238
12022
12331
15186
20133
24939
18397
7591
8633
10584
11960
12781
13164
13401
13414
13543
13795
13971
14103
14225
14491
14715
15038
15182
15563
15957
16334
16701
17051
17228
17290
17129
16796
16337
15628
14676
13766
12880
12117
11589
11361
11273
11273
11321
11357
11514
11532
11660
11707
11802
11801
11858
11856
11921
11851
11843
11848
11960
11821
11745
11876
12194
12611
13035
13083
12901
12862
12684
12519
12340
12244
12242
12358
12012
12320
15118
19984
24439
18367
7301
8334
10648
12071
12735
13057
13301
13399
13595
13788
13987
14025
14167
14339
14610
14839
15191
15516
15898
16373
16783
17120
17309
17300
17098
16885
16438
15751
14802
13836
12875
12117
11573
11403
11248
11251
11309
11426
11481
11576
11708
11775
11773
11785
11799
11826
11875
11852
11936
11948
12015
11918
11942
11924
12251
12517
12840
13079
13124
12907
12760
12613
12523
12330
12356
12373
12180
11954
13418
17549
23055
23339
11260
7125
9700
11436
12301
12885
13059
13203
13399
13540
13726
13903
14039
14173
14393
14621
14903
15279
15704
16098
16524
16872
17198
17324
17222
16966
16674
16218
15213
14312
13357
12500
11958
11501
11176
11071
11072
11181
11283
11396
11507
11661
11723
11721
11695
11742
11696
11750
11764
11789
11888
11797
11719
11753
12075
12460
12809
12996
12844
12721
12613
12386
12286
12202
12284
12302
12192
12073
13898
18056
23597
22570
9819
7330
9639
11316
12265
12834
13044
13305
13435
13604
13757
13961
14063
14296
14527
14828
15109
15477
15763
16114
16609
17043
17306
17324
17208
17087
16750
16038
15386
13927
13123
12208
11701
11425
11354
11215
11206
11295
11377
11444
11541
11644
11637
11637
11673
11736
11736
11714
11686
11810
11823
11798
11713
11934
12334
12571
12915
12992
12829
12794
12594
12427
12217
12239
12259
12193
11932
12576
15907
21072
24905
15996
7464
9147
10534
11842
12722
13116
13323
13371
13559
13756
13981
14190
14384
14477
14643
14934
15196
15616
16103
16566
16950
17342
17405
17355
17202
16977
16480
15736
14753
13707
12738
11753
11381
11188
11072
11106
11242
11270
11309
11414
11550
11643
11748
11763
11838
11804
11839
11827
11845
11728
11804
11788
12107
12541
12642
12882
12911
12799
12609
12536
12296
12157
12193
12272
12096
11985
13565
17482
22911
22939
10991
7978
9703
10883
12098
12823
13102
13312
13597
13647
13787
13972
14183
14380
14609
14751
15089
15474
15872
16281
16776
17062
17343
17442
17426
17190
16763
16152
15272
14199
13203
12385
11710
11310
11145
11177
11230
11270
11240
11498
11738
11765
11826
11835
11786
11867
11932
11829
11817
11879
11814
11858
11903
12166
12706
12940
13002
12912
12901
12679
12497
12285
12223
12170
12221
12047
11938
14200
18777
24408
20917
8947
8358
9598
10879
12280
12811
13214
13372
13467
13634
13773
13957
14114
14385
14656
14981
15279
15544
15849
16282
16486
17052
17373
17378
17259
17057
16624
15943
14893
13809
12924
12056
11611
11462
11316
11273
11457
11399
11452
11438
11578
11600
11751
11828
11771
11819
11985
11989
11877
11841
11965
11860
11851
12042
12404
12856
13035
12983
12870
12809
12562
12365
12242
12306
12356
12336
11925
12240
15125
20044
24955
18743
7784
8806
10132
11472
12495
12869
13036
13396
13721
13718
13815
14016
14272
14453
14581
14782
15150
15567
16051
16381
16664
17029
17263
17390
17136
16951
16659
15938
14877
13900
12881
12060
11582
11298
11327
11207
11184
11266
11550
11808
11713
11649
11789
12014
11842
11797
11836
11955
12050
11940
11977
12038
11994
11894
11885
12318
12827
13047
13082
13111
12930
12643
12569
12424
12377
12426
12434
12126
12383
15257
20289
25197
18902
7602
8275
10107
11701
12621
13020
13219
13484
13607
13741
13953
14211
14283
14508
14723
14996
15165
15572
15997
16373
16795
17191
17386
17452
17299
17103
16733
16079
15117
14027
12967
12174
11662
11353
11221
11181
11276
11328
11380
11560
11692
11719
11874
11966
12047
12047
11862
11776
11892
11906
11975
11923
11966
12090
12073
12001
11946
12267
12835
13275
13285
13211
13093
12964
12741
12591
12589
12570
12530
12426
12216
14136
18441
24037
23583
10716
7571
9528
11141
12340
12886
13074
13295
13581
13776
13819
14016
14180
14432
14633
14901
15132
15498
16007
16393
16749
17158
17511
17518
17352
17252
16976
16344
15509
14545
13504
12568
12086
11494
11174
11105
11102
11137
11267
11416
11563
11659
11694
11514
11472
11531
11672
11791
11689
11782
11805
11722
11834
11968
11865
11835
11926
12214
12599
12824
12804
12771
12731
12596
12371
12166
12315
12463
12310
11892
12552
15859
21111
25310
16918
7804
9359
10313
11635
12499
12891
13099
13300
13475
13698
13843
14034
14189
14297
14453
14754
15160
15608
16241
16660
16861
17126
17415
17466
17320
17036
16480
15681
14784
13679
12696
11919
11319
11019
10884
10894
10995
11282
11391
11355
11259
11495
11505
11597
11684
11839
11866
11832
11843
11933
12023
11916
11903
11846
11918
12188
12496
12660
12921
12785
12846
12694
12454
12400
12338
12399
12453
12252
11881
12758
16453
21863
25101
14853
7828
9372
10479
11817
12656
13049
13227
13421
13580
13714
13808
13960
14207
14510
14799
15107
15363
15834
16350
16726
17171
17402
17615
17582
17403
17088
16594
15753
14691
13513
12604
11913
11517
11215
11052
10937
11029
11208
11419
11525
11588
11742
11858
11974
11946
11999
11949
11960
12031
12097
12042
12000
12022
11981
11893
11979
12392
12850
13068
13004
13031
13010
12874
12645
12457
12241
12307
12411
12214
11955
14098
18530
24378
22864
9940
8227
9813
11209
12247
12850
13097
13349
13477
13679
13846
14064
14178
14425
14607
14908
15141
15505
15913
16405
16875
17308
17519
17526
17615
17455
17180
16485
15491
14335
13255
12339
11787
11404
11237
11190
11185
11218
11345
11381
11446
11457
11615
11695
11759
11793
11871
11800
11847
11936
11891
11873
11785
11810
12020
12086
11893
11889
12240
12805
13142
13193
13072
12953
12864
12695
12454
12367
12385
12399
12139
12121
14268
18571
24291
22722
9791
7831
9796
11278
12410
13021
13194
13329
13541
13752
13875
13987
14172
14439
14580
14928
15178
15506
15911
16369
16800
17212
17527
17618
17535
17372
17009
16541
15683
14611
13516
12571
11726
11376
11256
11068
11084
11207
11251
11279
11419
11599
11707
11648
11766
11712
11632
11758
11832
11810
11929
11904
11941
11953
11955
12034
12086
12115
11955
12206
12708
13122
13157
13121
13147
13081
12765
12645
12485
12616
12535
12245
12065
13840
18115
23705
24092
11625
7659
9589
11074
12222
12898
13149
13344
13504
13662
13838
14000
14127
14379
14644
14775
15147
15447
15824
16347
16840
17213
17517
17635
17620
17433
17106
16549
15707
14209
13142
12235
11713
11365
11223
11100
11008
11050
11166
11270
11347
11470
11489
11512
11625
11792
11780
11741
11658
11692
11814
11899
11919
11957
12009
12061
11918
11801
11964
12458
12848
13015
12959
12914
12866
12711
12685
12546
12508
12523
12405
11976
13045
16620
21712
25291
15791
7748
9352
10379
11779
12649
13046
13284
13401
13653
13817
13866
14033
14348
14485
14665
14945
15297
15759
16174
16629
17103
17622
17684
17569
17403
17028
16416
15512
14408
13355
12347
11751
11314
11020
10920
11014
10969
11147
11290
11294
11348
11560
11735
11743
11780
11747
11750
11861
11858
11779
11793
11752
11816
11907
12105
12023
11921
11869
12462
12924
13087
13055
13145
12928
12752
12689
12553
12421
12367
12425
11989
12606
15939
21125
25727
17656
8004
9134
10303
11748
12651
13080
13298
13488
13799
13735
13862
14051
14282
14537
14779
15005
15369
15689
16154
16720
17196
17560
17784
17586
17472
17152
16552
15612
14583
13498
12488
11848
11481
11175
11038
10972
11036
11216
11319
11447
11545
11670
11575
11716
11720
11881
11946
11947
11943
11955
11928
11963
12022
11913
11954
11987
12085
12126
12213
12014
12418
12899
13304
13335
13245
13182
13034
12874
12769
12586
12536
12560
12458
12224
13597
17593
23341
24564
12434
7925
9572
11128
12318
13047
13248
13417
13580
13766
13911
14073
14337
14453
14631
14883
15183
15442
16047
16438
16915
17333
17661
17737
17614
17341
17149
16577
15583
14447
13365
12366
11775
11442
11160
11083
11131
11175
11235
11325
11376
11537
11607
11682
11702
11771
11697
11720
11769
11833
11832
11953
11980
11831
11867
11910
11971
11969
12089
12062
12201
12205
12078
12028
12592
12996
13212
13228
13242
13261
13089
12848
12693
12607
12581
12593
12280
12227
14458
18934
24663
22201
9448
8232
10031
11610
12445
13087
13362
13558
13743
13870
14026
14144
14311
14552
14752
14997
15351
15697
16029
16554
17050
17449
17692
17805
17697
17339
16961
16285
15484
14375
13242
12377
11806
11355
11136
11141
11175
11123
11163
11331
11385
11476
11496
11597
11648
11758
11741
11755
11673
11667
11725
11716
11723
11790
11821
11824
11929
11966
12045
12115
12201
12232
12227
12141
12178
12609
13059
13293
13311
13342
13337
13166
12963
12807
12705
12703
12639
12332
12234
14740
19290
25005
17106
7866
9131
10705
12084
12862
13251
13429
13638
13808
13930
14125
14311
14474
14695
14875
15154
15498
15894
16156
16584
17033
17429
17734
17862
17746
17563
17059
16342
15401
14333
13163
12270
11728
11432
11213
11106
11107
11062
11180
11229
11405
11488
11602
11626
11726
11710
11780
11806
11787
11777
11764
11786
11845
11874
11883
11918
12044
12162
12111
12036
12226
12667
13011
13200
13079
13067
12962
12719
12619
12519
12447
12425
12359
12096
14281
18644
24248
22840
10222
8379
9890
11125
12304
12912
13175
13383
13616
13798
13982
14090
14262
14433
14609
14850
15171
15523
15951
16459
16909
17340
17647
17748
17652
17467
17154
16472
15484
14406
13311
12406
11713
11302
11083
10974
10932
10973
11115
11227
11334
11558
11615
11581
11609
11621
11727
11724
11759
11766
11890
11951
11967
11978
12025
12182
12073
11960
11957
12464
12866
13147
13152
13156
13137
12952
12755
12543
12437
12532
12417
11992
12519
15878
21134
25699
17324
7895
9152
10429
11827
12746
13133
13295
13472
13662
13841
13949
14114
14244
14512
14695
14986
15321
15699
16047
16480
16955
17354
17626
17679
17604
17377
16947
16178
15177
13984
12913
12021
11496
11233
11087
11014
11055
11111
11215
11320
11381
11491
11605
11651
11679
11742
11728
11807
11832
11877
11846
11945
11989
11976
11994
11968
11952
12074
12397
12843
13178
13183
13125
13033
12846
12686
12466
12432
12442
12397
12086
12919
16412
21718
25574
16084
7459
9041
10594
11975
12782
13082
13270
13481
13637
13817
13971
14096
14266
14532
14756
14988
15243
15699
16120
16590
17096
17448
17610
17634
17477
17232
16802
16049
15045
13980
12953
12137
11641
11246
11062
11009
11117
11158
11262
11232
11387
11492
11664
11768
11733
11712
11731
11823
11827
11802
11804
11816
11786
11933
11935
11888
11761
12092
12530
13019
13181
13085
12956
12847
12603
12328
12235
12337
12333
12149
12121
14140
18448
24086
22928
9851
7593
9551
11221
12293
12895
13055
13238
13482
13724
13872
14038
14169
14370
14570
14799
15125
15468
15855
16245
16723
17145
17511
17628
17646
17491
17153
16579
15701
14714
13656
12643
11900
11497
11273
11143
11104
11212
11291
11361
11363
11507
11511
11674
11630
11660
11714
11806
11765
11827
11851
11803
11847
11933
11826
11826
11859
12230
12601
12735
12953
12953
12766
12586
12531
12341
12292
12303
12289
11990
12703
16088
21301
25402
17122
7351
8821
10262
11678
12554
13012
13239
13291
13559
13780
13987
13988
14190
14470
14694
14908
15253
15601
16087
16528
16898
17281
17507
17511
17445
17242
16718
16051
15042
13966
12914
12109
11437
11158
11033
11041
11059
11201
11283
11294
11366
11433
11611
11674
11731
11743
11803
11789
11836
11819
11918
11900
11946
11836
11784
11853
12187
12528
