13103
14401
7760
9854
10795
11827
12658
13102
13336
13477
13650
13793
13990
14126
14324
14504
14727
14974
15290
15652
16060
16517
16984
17401
17665
17802
17681
17504
17116
16464
15413
14285
13150
12302
11695
11388
11165
11087
11057
11146
11242
11347
11426
11490
11580
11648
11715
11739
11774
11773
11764
11724
11751
11769
11820
11850
11909
11899
11940
11998
12045
12004
11933
11913
12265
12744
13004
13139
13121
13126
12961
12813
12607
12509
25268
15716
7557
9713
10606
11622
12524
13050
13289
13438
13594
13763
13968
14087
14297
14485
14734
14960
15298
15610
16054
16484
16955
17399
17669
17792
17767
17570
17129
16443
15431
14327
13201
12277
11655
11357
11094
10972
10973
11073
11174
11281
11402
11467
11554
11594
11672
11712
11760
11783
11829
11809
11837
11823
11877
11877
11916
11930
11941
11938
11973
11979
11905
12059
12501
12837
13005
13022
12972
12947
12771
12664
12466
23969
22391
9687
8370
10321
11151
12055
12855
13167
13378
13513
13677
13834
14007
14172
14385
14555
14797
15039
15399
15801
16240
16691
17172
17540
17756
17815
17724
17461
16949
16085
14942
13815
12714
11954
11462
11193
11033
11067
11069
11113
11183
11288
11360
11444
11562
11654
11707
11710
11779
11785
11815
11828
11861
11853
11887
11906
11939
11932
11984
12002
12034
12098
12091
12036
11934
12259
12733
13042
13168
13138
13112
13056
12847
14821
19640
25120
20635
8501
9046
10455
11368
12226
12938
13199
13354
13508
13713
13863
14032
14173
14406
14575
14809
15066
15427
15791
16247
16691
17182
17561
17767
17837
17718
17455
16926
16062
14894
13755
12704
11966
11468
11198
10991
10987
11068
11195
11309
11386
11473
11546
11635
11685
11737
11734
11789
11805
11827
11809
11849
11828
11864
11840
11878
11906
11990
12008
12036
12084
12123
12206
12210
12250
12255
12362
12407
12386
13376
13279
13092
12926
12732
12766
12790
12464
12044
14116
18604
24359
23690
10900
8815
10457
11346
12234
13022
13320
13524
13630
13823
13962
14093
14207
14410
14595
14838
15120
15376
15740
16159
16624
17109
17556
17800
17966
17888
17714
17297
16607
15547
14437
13334
12439
11782
11397
11202
11061
11039
11151
11231
11308
11425
11460
11553
11600
11702
11690
11715
11713
11801
11800
11790
11802
11839
11855
11853
11850
11882
11960
11994
12056
12343
12395
12433
12519
12473
12391
12590
13002
13317
13481
13439
13467
13457
13286
13157
12944
12843
12869
12774
12267
12496
15748
20787
25834
19572
8561
9713
10716
11742
12560
13139
13357
13547
13740
13896
14002
14143
14323
14485
14723
14908
15191
15499
15895
16318
16819
17274
17688
17950
18030
17908
17687
17242
16391
15336
14189
13071
12195
11652
11292
11108
11032
11043
11125
11180
11241
11355
11454
11522
11578
11619
11680
11708
11754
11750
11818
11830
11869
11890
11957
12030
12084
12066
12128
12185
12236
12275
12342
12373
12354
12249
12371
12795
13156
13343
13268
13274
13252
13153
12957
12804
12691
12686
12660
12266
12283
15239
20024
25023
20675
8813
9155
10635
11386
12279
13018
13324
13538
13674
13828
13935
14108
14223
14390
14594
14813
15082
15436
15795
16171
16629
17109
17553
17816
17934
17842
17641
17176
16383
15354
14196
13091
12218
11630
11286
11111
11467
11568
11616
11687
11744
11811
11819
11852
11808
11843
11826
11862
11843
11872
11866
11938
11914
11935
11992
12077
12136
12182
12194
12243
12223
12086
12295
12695
13008
13153
13191
13145
13114
12963
12835
12677
12621
12660
12547
12075
12481
15872
20886
25415
17647
7810
9483
10635
11564
12457
13052
13319
13478
13674
13822
13932
14087
14248
14459
14627
14893
15134
15469
15846
16305
16761
17248
17684
18001
18043
17960
17661
17101
16168
10987
10935
10951
11056
11153
11245
11345
11473
11522
11582
11606
11680
11698
11742
11745
11805
11804
11801
11824
11859
11884
11902
11960
11955
11991
11988
12029
12090
12180
12210
12128
11989
12206
12635
13038
13236
13220
13200
13206
13052
12886
12690
12613
12668
12609
12133
12389
15710
20697
25700
18767
8137
9487
10571
11569
12468
13063
13316
13524
13702
13864
13992
14143
14271
14441
14628
14884
15146
15538
15869
16339
16843
17361
15893
14714
13488
12520
11834
11383
11149
11041
11025
11017
11122
11229
11337
11412
11497
11502
11563
11585
11643
11702
11735
11760
11768
11735
11728
11774
11799
11814
11834
11906
11932
12026
12056
12104
12122
12237
12245
12201
12086
12413
12853
13172
13325
13301
13313
13226
13043
12842
12696
12625
12673
12509
12081
12986
16888
22109
25620
15639
7729
9789
10637
11733
12618
13170
13423
13657
13782
13959
14076
14275
14393
14579
14730
15014
18044
18252
18233
18059
17655
16870
15818
14647
13517
12503
11795
11371
11204
11067
11013
11002
11110
11230
11335
11410
11518
11574
11623
11633
11698
11739
11749
11804
11797
11811
11803
11836
11815
11857
11890
11965
11967
12006
12034
12145
12094
11993
11967
12410
12836
13089
13150
13109
13070
12901
12792
12599
12496
12474
12521
12191
12031
14288
18774
23714
22294
9963
7972
10217
10838
11871
12695
13154
13357
13550
13700
13902
14037
15843
16287
16851
17345
17744
17956
18015
17936
17659
17117
16232
15130
13964
12929
12091
11573
11254
11128
11011
11072
11133
11228
11311
11427
11494
11603
11654
11707
11765
11776
11781
11778
11799
11769
11786
11761
11827
11841
11887
11879
11923
12005
12008
11931
11849
12169
12652
12948
13056
13059
13013
12943
12761
12602
12420
12408
12435
12297
11752
12838
16798
22111
25075
14263
7451
9679
10573
11647
12538
13063
13302
13429
13617
13789
15378
15733
16188
16657
17196
17589
17931
18038
17993
17748
17302
16523
15410
14213
13085
12131
11523
11164
10996
10988
10973
11068
11136
11272
11351
11463
11495
11565
11586
11623
11682
11740
11769
11759
11802
11793
11806
11836
11883
11865
11880
11874
11963
12055
12050
11905
11991
12444
12880
13139
13114
13109
13053
12912
12778
12630
12522
12563
12513
12163
12023
14724
19382
24913
21285
8741
8788
10240
11261
12213
12945
13238
13456
14703
15003
15298
15632
16007
16489
16987
17474
17819
18046
18047
17935
17585
17026
16080
14924
13749
12708
11927
11417
11198
11070
11066
11092
11182
11255
11378
11409
11460
11517
11544
11594
11626
11629
11646
11690
11697
11732
11741
11781
11736
11771
11811
11899
11904
11975
12052
12068
11968
11988
12395
12830
13073
13138
13147
13115
13015
12812
12652
12492
12502
12522
12258
11849
13807
18201
23614
23841
11280
8122
10033
10784
11886
14030
14189
14398
14549
14790
15083
15445
15819
16291
16763
17244
17610
17827
17905
17806
17465
16960
16207
15164
14015
12951
12135
11562
11279
11109
11119
11145
11211
11260
11358
11462
11563
11617
11622
11659
11670
11702
11740
11758
11728
11733
11725
11774
11755
11796
11788
11876
11841
11832
11713
12065
12538
12862
12999
12956
12924
12788
12640
12457
12331
12296
12391
12198
11821
13169
17174
22239
24234
12818
7412
9874
10676
11636
12505
14051
14221
14426
14656
14923
15246
15629
16045
16568
17017
17427
17611
17712
17623
17389
16884
16079
15025
13874
12857
12050
11562
11260
11093
11033
11058
11098
11203
11267
11403
11453
11560
11568
11685
11730
11754
11745
11802
11829
11829
11812
11839
11917
11911
11939
11978
11953
11828
11880
12316
12787
13009
13053
13016
12995
12826
12658
12479
12356
12402
12371
12003
11838
14482
19091
24634
21376
8740
8672
10211
11213
12152
12833
14119
14305
14580
14848
15150
15465
15839
16329
16789
17227
17532
17739
17708
17560
17229
16626
15641
14583
13474
12510
11804
11400
11182
11072
11067
11120
11236
11289
11408
11449
11495
11515
11606
11622
11678
11695
11718
11709
11776
11793
11834
11871
11836
11860
11874
11961
11909
11863
11846
12245
12656
12977
13026
13039
13009
12891
12727
12534
12412
12436
12451
12131
11773
13751
18119
23650
23591
10556
8146
10020
10949
11899
12739
14152
14365
14559
14834
15106
15444
15870
16312
16799
17215
17581
17774
17817
17670
17413
16865
16021
14904
13801
12757
12015
11524
11231
11094
11060
11119
11222
11321
11417
11533
11549
11607
11633
11690
11691
11746
11722
11724
11731
11791
11775
11798
11827
11832
11855
11899
11936
11987
12000
11941
11931
12315
12759
13010
13200
13179
13140
12979
12807
12622
12484
12493
12510
12299
11844
13294
17412
22885
24769
12842
7940
9992
10793
11900
14014
14216
14339
14546
14809
15134
15450
15828
16258
16740
17211
17538
17794
17802
17724
17494
17020
16215
15190
14055
13016
12177
11616
11321
11170
11127
11167
11248
11286
11373
11484
11583
11562
11619
11620
11636
11627
11707
11701
11727
11679
11728
11749
11785
11816
11820
11854
11912
11921
11779
11958
12391
12781
12952
12979
12953
12915
12746
12603
12404
12379
12430
12388
11994
12440
15755
20582
24816
17475
7389
9224
10543
11391
13912
14053
14263
14464
14742
14978
15269
15620
16001
16426
16863
17306
17553
17651
17581
17371
16993
16319
15285
14231
13151
12327
11722
11410
11187
11114
11125
11218
11296
11372
11468
11564
11637
11677
11723
11749
11785
11798
11845
11875
11915
11898
11932
11912
11937
11965
12035
11975
11867
11875
12319
12796
13014
13045
13015
13007
12826
12684
12458
12382
12348
12392
12055
11918
14398
18995
24532
21989
9150
8673
10333
11308
12213
12872
14186
14361
14605
14845
15167
15476
15901
16337
16818
17255
17596
17721
17676
17487
17143
16530
15578
14492
13375
12486
11782
11394
11155
11094
11048
11168
11279
11354
11411
11477
11559
11615
11646
11699
11746
11768
11784
11763
11779
11815
11877
11848
11862
11864
11920
11926
12021
11991
11876
12030
12501
12908
13066
13093
13055
13015
12835
12722
12513
12457
12466
12487
12053
12322
15491
20409
25517
19094
7889
9232
10404
11494
12409
14087
14306
14514
14717
14947
15288
15625
16038
16475
16985
17388
17671
17743
17690
17506
17151
16485
15495
14419
13335
12451
11735
11276
11064
11077
11053
11139
11205
11330
11426
11487
11503
11617
11659
11702
11748
11751
11782
11805
11831
11822
11851
11838
11854
11867
11952
11962
12101
12084
11997
11999
12411
12841
13105
13141
13110
13054
12849
12680
12485
12461
12470
12454
12100
12086
14642
19311
24532
21445
8832
8646
10308
11151
12129
14086
14253
14435
14668
14934
15259
15561
15982
16392
16847
17261
17600
17701
17681
17462
17166
16551
15697
14588
13482
12562
11868
11489
11206
11092
11033
11105
11136
11254
11335
11476
11540
11615
11655
11698
11721
11715
11754
11781
11776
11773
11836
11855
11868
11920
12029
11932
11872
11894
12311
12698
12972
12974
12906
12852
12742
12605
12408
12353
12355
12402
12045
12090
14848
19527
24516
20315
8242
8822
10411
11296
12161
12891
14196
14370
14595
14839
15198
15561
16029
16466
16956
17372
17702
17791
17755
17481
17092
16398
15487
14401
13310
12403
11818
11446
11281
11179
11144
11223
11304
11391
11452
11554
11628
11726
11751
11847
11851
11878
11881
11916
11918
11892
11905
11936
11951
11964
12038
12082
12078
11937
12033
12448
12848
13072
13145
13063
13007
12729
12622
12487
12417
12444
12469
12079
12040
14797
19470
25004
20664
8444
8967
10365
11435
12332
12957
14257
14419
14656
14898
15231
15557
15964
16422
16878
17314
17589
17743
17676
17494
17135
16503
15530
14439
13310
12437
11756
11398
11178
11081
11141
11214
11294
11385
11478
11523
11583
11632
11686
11695
11774
11772
11796
11793
11837
11805
11850
11847
11903
11919
11940
12005
12076
12099
12006
11895
12213
12662
12949
13124
13077
13085
12993
12829
12651
12519
12493
12525
12382
11908
12849
16627
21945
25510
15022
7657
9764
10637
11732
12541
14104
14254
14511
14749
15068
15387
15770
16164
16622
17072
17447
17647
17718
17635
17355
16962
16179
15174
14045
13015
12149
11639
11314
11158
11075
11100
11162
11240
11328
11441
11518
11550
11589
11653
11713
11716
11767
11736
11772
11733
11783
11798
11843
11834
11883
11898
11946
11988
12048
12100
12161
12140
11993
12078
12550
12990
13228
13290
13241
13215
13053
12925
12686
12579
12606
12590
12241
12176
14693
19198
24459
21610
9003
13453
13652
13790
13949
14089
14251
14457
14757
14949
15210
15539
15932
16409
16856
17274
17551
17689
17615
17489
17144
16632
15738
14700
13638
12734
11999
11551
11283
11179
11150
11208
11284
11380
11454
11508
11609
11629
11696
11704
11766
11796
11840
11792
11804
11814
11813
11821
11833
11855
11893
11951
11992
12089
12073
12035
11924
12298
12712
12996
13074
13080
13034
12918
12759
12607
12462
12477
12517
12330
11962
13490
17583
22844
12982
13187
13395
13573
13775
13893
14071
14229
14442
14610
14888
15132
15482
15859
16296
16751
17186
17499
17687
17719
17582
17334
16814
15988
14910
13821
12818
12089
11580
11352
11190
11071
11081
11181
11284
11364
11480
11580
11652
11690
11779
11811
11805
11813
11866
11845
11900
11903
11929
11896
11890
11970
11997
12030
12060
12096
12020
11997
12382
12889
13133
13212
13155
13151
12968
12811
12611
12494
12455
12509
12264
11852
13522
11480
12407
12993
13245
13419
13627
13739
13896
14067
14238
14415
14641
14881
15168
15503
15863
16293
16793
17256
17569
17751
17767
17672
17367
16873
15993
14945
13797
12818
12041
11555
11250
11136
11071
11074
11159
11233
11319
11404
11521
11566
11644
11659
11694
11751
11816
11804
11794
11793
11843
11835
11874
11871
11907
11928
11977
12049
11995
11895
11973
12437
12846
13129
13156
13175
13125
12940
12746
12597
12499
12545
12494
12148
12110
10578
11683
12575
13026
13195
13415
13612
13788
13945
14111
14248
14483
14683
14955
15231
15626
15972
16474
16937
17372
17653
17795
17799
17567
17211
16554
15641
14497
13410
12458
11839
11395
11226
11083
11056
11123
11249
11342
11423
11492
11572
11678
11728
11748
11734
11833
11851
11833
11800
11836
11853
11902
11883
11922
11948
12032
12102
12158
12060
11973
12268
12709
13046
13163
13161
13141
13056
12829
12677
12477
12473
12500
12414
12568
13044
13295
13450
13615
13753
13943
14145
14338
14470
14725
14967
15266
15570
15984
16484
16929
17357
17643
17794
17655
17484
17127
16492
15512
14435
13358
12496
11867
11476
11255
11155
11124
11153
11247
11305
11438
11514
11604
11631
11710
11744
11793
11757
11789
11778
11828
11793
11794
11812
11834
11860
11957
11917
11818
11872
12261
12692
12922
12986
12936
12930
12781
12638
12423
12344
12359
12408
12082
12026
14414
18798
23915
13002
13240
13399
13611
13773
13956
14111
14282
14442
14690
14922
15231
15545
15950
16374
16824
17253
17558
17688
17669
17480
17102
16452
15497
14439
13379
12448
11788
11461
11211
11145
11108
11152
11259
11362
11450
11525
11607
11649
11724
11785
11787
11790
11861
11843
11852
11865
11896
11885
11937
11942
11945
11980
11939
11832
12090
12544
12933
13115
13084
13085
12967
12803
12603
12471
12410
12483
12326
11941
12911
16691
21858
25372
13164
13343
13554
13683
13854
13986
14138
14248
14460
14708
15019
15341
15774
16183
16640
17097
17502
17657
17700
17533
17283
16813
16042
15006
13859
12856
12056
11575
11233
11091
11005
11027
11086
11211
11281
11364
11398
11534
11572
11614
11646
11681
11731
11721
11767
11775
11818
11792
11819
11811
11900
11926
11882
11750
11993
12459
12857
13004
12943
12915
12884
12729
12511
12339
12271
12307
12240
11848
12504
16089
21173
25449
16393
13199
13374
13566
13714
13853
14059
14250
14465
14698
14993
15327
15696
16090
16573
17013
17436
17642
17694
17584
17386
16916
16127
15105
13979
12929
12100
11573
11289
11155
11040
11080
11158
11284
11346
11441
11505
11608
11629
11718
11753
11743
11744
11793
11790
11787
11804
11812
11857
11845
11943
11933
11873
11735
12037
12544
12917
13059
13040
12934
12872
12658
12507
12402
12329
12350
12231
11846
12875
16753
21902
25305
14994
7453
13462
13672
13806
13947
14124
14334
14536
14840
15104
15420
15794
16234
16712
17126
17460
17678
17726
17561
17305
16790
16003
14968
13902
12868
12063
11539
11283
11120
11033
11067
11179
11293
11390
11482
11523
11592
11621
11672
11676
11747
11763
11825
11814
11841
11828
11810
11858
11958
11944
11853
11866
12206
12693
12949
13003
12969
12968
12765
12644
12442
12379
12349
12332
12037
12093
14731
19318
24345
21023
8543
8492
10339
11133
12090
13953
14173
14374
14697
14920
15210
15563
15983
16455
16904
17281
17541
17622
17575
17396
16996
16322
15328
14259
13146
12303
11713
11442
11199
11115
11037
11096
11196
11327
11468
11535
11643
11727
11781
11803
11803
11815
11906
11888
11937
11911
11976
11970
11994
12061
12095
12049
11976
12302
12768
13044
13163
13182
13083
12965
12768
12635
12439
12447
12483
12332
11922
13388
17522
22901
24873
12807
7838
9952
10865
11848
12687
13062
14420
14621
14866
15135
15482
15842
16325
16754
17210
17529
17726
17740
17611
17314
16741
15845
14733
13632
12677
11995
11515
11300
11160
11160
11138
11229
11283
11424
11535
11652
11681
11730
11714
11728
11766
11796
11848
11901
11925
11921
11969
11945
12016
11991
12042
12088
12091
11989
12104
12519
12966
13209
13219
13182
13092
12951
12753
12592
12516
12541
12515
12162
12364
15513
20346
25549
19470
7942
9253
10424
11516
12406
13010
13222
14423
14619
14925
15180
15593
16057
16596
17061
17426
17626
17750
17697
17508
17097
16380
15422
14324
13253
12358
11766
11419
11267
11146
11140
11184
11327
11388
11443
11490
11633
11712
11773
11803
11833
11829
11846
11836
11865
11887
11864
11901
11922
12001
12000
12016
12011
12079
12007
11918
12219
12711
13031
13227
13199
13195
13084
12878
12771
12571
12570
12562
12431
11971
12897
16704
21833
25372
15585
7450
9745
10582
11646
12544
14199
14370
14579
14834
15103
15456
15785
16217
16595
17109
17496
17748
17797
17693
17408
16953
16135
15113
14004
12963
12136
11599
11293
11159
11083
11078
11209
11255
11380
11473
11552
11577
11690
11728
11758
11748
11789
11778
11831
11811
11809
11822
11805
11891
11930
12006
12013
12017
11865
12033
12446
12851
13069
13064
13001
12954
12775
12635
12503
12460
12505
12403
12005
12337
15508
20332
25182
18474
7629
9148
10424
11396
12334
12944
14251
14454
14726
15014
15333
15707
16112
16586
17042
17458
17670
17779
17663
17475
17036
16285
15188
14122
13068
12259
11684
11371
11187
11123
11140
11162
11261
11315
11413
11496
11606
11645
11745
11768
11810
11779
11852
11848
11872
11842
11851
11881
11900
11964
11973
12015
12015
12160
12080
12006
11940
12380
12789
13080
13136
13082
13078
12978
12808
12630
12502
12514
12570
12225
11951
14009
18506
24195
23256
10091
8461
10157
11164
13904
14088
14221
14458
14656
14928
15208
15538
15928
16355
16873
17351
17677
17813
17837
17652
17316
16692
15781
14668
13593
12579
11868
11434
11261
11126
11074
11120
11194
11301
11372
11449
11488
11619
11680
11720
11743
11793
11765
11802
11767
11818
11784
11806
11847
11839
11889
11927
12001
12062
12022
11906
12018
12453
12890
13112
13117
13064
13061
12870
12711
12480
12415
12491
12491
12088
12158
15090
19845
25270
20486
8235
8974
13639
13767
13944
14090
14297
14449
14689
14929
15300
15622
16035
16528
17020
17472
17687
17798
17738
17602
17171
16514
15504
14397
13270
12338
11720
11362
11204
11109
11078
11133
11256
11320
11451
11538
11646
11659
11765
11782
11848
11828
11856
11863
11889
11842
11876
11905
11956
11987
12045
12090
12129
12166
12221
12229
12085
12044
12411
12862
13093
13244
13197
13203
13053
12881
12699
12593
12597
12634
12367
12029
13923
18233
23571
13023
13331
13473
13656
13810
13956
14105
14320
14448
14662
14973
15331
15602
15995
16439
16895
17328
17680
17850
17810
17703
17378
16866
15984
14923
13797
12780
12004
11518
11258
11126
11060
11092
11184
11295
11377
11444
11534
11588
11650
11685
11731
11777
11822
11779
11839
11846
11854
11847
11882
11876
11877
11963
11960
11920
11815
12134
12547
12833
12969
12995
12929
12838
12653
12508
12369
12379
12393
12182
11853
13381
17473
22618
24327
13117
13324
13466
13696
13833
14028
14163
14380
14584
14832
15086
15470
15868
16328
16782
17248
17634
17831
17815
17666
17360
16788
15899
14805
13709
12689
11984
11496
11255
11080
11062
11072
11145
11206
11333
11458
11490
11538
11607
11664
11714
11785
11789
11851
11856
11904
11901
11938
11940
11979
11936
11995
12032
11980
11866
12045
12536
12894
13119
13059
13063
12996
12845
12646
12522
12445
12463
12352
11971
12744
16343
21469
25532
13096
13313
13508
13648
13818
13955
14163
14279
14514
14756
15061
15374
15778
16190
16703
17143
17550
17773
17876
17796
17589
17130
16294
15196
14023
12983
12151
11620
11318
11217
11134
11119
11158
11290
11359
11420
11516
11606
11629
11673
11728
11743
11778
11804
11844
11782
11850
11836
11909
11919
11980
11948
11983
12060
12089
12000
11992
12406
12840
13137
13161
13134
13076
12989
12811
12633
12485
12513
12512
12256
11937
14172
18647
12479
12972
13265
13444
13628
13774
13924
14100
14240
14419
14622
14897
15170
15560
15951
16473
16908
17356
17665
17869
17897
17745
17394
16769
15815
14673
13519
12525
11859
11433
11213
11054
11080
11075
11202
11262
11365
11437
11497
11600
11685
11683
11691
11707
11726
11712
11682
11800
11791
11818
11854
11934
11941
11999
12050
12071
11935
12036
12487
12919
13175
13157
13131
13044
12895
12736
12542
12453
12456
12411
12110
12268
15218
11685
12598
13027
13205
13388
13599
13782
13950
14122
14311
14518
14728
15009
15317
15697
16056
16577
17022
17454
17771
17925
17871
17708
17292
16574
15528
14329
13192
12282
11679
11309
11115
10967
10951
10983
11077
11189
11295
11403
11499
11481
11563
11596
11649
11696
11747
11795
11799
11806
11758
11818
11828
11892
11887
11876
11773
11983
12386
12749
12930
12923
12869
12826
12644
12490
12345
12309
12415
12291
11962
12766
16301
21068
12692
13084
13317
13499
13698
13839
13984
14153
14356
14536
14768
15017
15352
15756
16206
16713
17184
17593
17723
17806
17688
17498
17017
16189
15084
13947
12890
12103
11600
11294
11171
11096
11098
11160
11294
11333
11437
11536
11642
11699
11783
11797
11857
11889
11967
11967
11967
11987
11982
12010
12003
12017
12097
12095
11993
12010
12340
12818
13041
13169
13107
13111
12956
12798
12609
12489
12511
12539
12293
11873
13626
17909
23459
12932
13210
13379
13583
13702
13878
14032
14225
14368
14619
14847
15127
15477
15889
16356
16836
17297
17659
17885
17901
17785
17469
16884
15890
14801
13664
12672
11932
11510
11270
11150
11071
11079
11191
11274
11370
11454
11553
11625
11687
11730
11777
11789
11838
11805
11794
11817
11849
11831
11919
11962
11997
12017
12023
12119
12036
11927
12042
12526
12884
13104
13076
13079
13065
12950
12788
12572
12516
12545
12540
12177
12136
14802
11724
12582
13074
13261
13457
13616
13793
13936
14143
14286
14505
14710
15010
15305
15681
16108
16538
17060
17533
17869
18019
18031
17832
17508
16783
15767
14578
13464
12491
11849
11422
11178
11077
11099
11163
11246
11311
11392
11471
11546
11642
11669
11729
11724
11763
11738
11775
11796
11794
11787
11834
11837
11874
11899
11924
11960
11982
12107
12077
12034
11942
12321
12763
13114
13179
13146
13099
12995
12862
12687
12513
12503
12540
12316
8850
10191
11199
12180
12896
13201
13387
13576
13782
13920
14079
14193
14408
14592
14838
15132
15487
15856
16284
16798
17263
17665
17840
17931
17791
17499
16962
16158
15045
13935
12858
12062
11541
11287
11076
10996
11045
11105
11163
11277
11372
11421
11477
11542
11617
11680
11697
11717
11732
11721
11779
11726
11724
11745
11813
11879
11878
11972
11973
11916
11836
12179
12593
12869
12909
12921
12843
12773
12633
12397
12264
12332
12398
8202
8959
10493
11209
12103
12863
13190
13409
13579
13759
13929
14097
14180
14319
14414
14730
15062
15415
15763
16260
16750
17270
17644
17847
17888
17793
17544
16962
16086
14888
13774
12750
12015
11511
11296
11174
11166
11166
11177
11256
11346
11436
11524
11632
11662
11762
11807
11875
11893
11974
11952
11970
11948
11971
11971
12004
11983
12064
12103
12058
11959
12147
12632
12965
13153
13098
13123
13032
12905
12717
12555
12478
12511
10292
8265
10092
11022
12017
12805
13148
13364
13514
13646
13846
13978
14175
14333
14569
14787
15046
15345
15682
16112
16612
17062
17510
17792
17882
17846
17604
17150
16339
15271
14044
12935
12080
11577
11263
11178
11089
11102
11143
11255
11344
11441
11526
11601
11673
11712
11764
11799
11870
11828
11839
11840
11879
11856
11889
11885
11922
11986
12019
11912
11815
12126
12580
12942
13081
13081
13027
12963
12749
12595
12409
12404
12372
12264
8617
10144
11192
12141
12807
13100
13309
13500
13687
13819
13997
14133
14315
14469
14761
15025
15346
15734
16205
16661
17181
17551
17806
17834
17756
17502
16996
16129
15061
13924
12828
12049
11513
11251
11092
11070
11061
11203
11244
11324
11398
11495
11554
11585
11613
11646
11697
11723
11781
11774
11812
11796
11847
11828
11881
11882
11947
12019
12072
11972
11870
12142
12627
12963
13131
13157
13157
13076
12843
12664
12488
12498
12499
9856
8319
10092
11058
12078
12812
13159
13352
13512
13662
13788
13928
14114
14351
14510
14797
15065
15416
15737
16161
16612
17096
17457
17708
17751
17738
17534
17113
16301
15258
14077
12977
12097
11577
11349
11152
11115
11123
11222
11275
11444
11458
11549
11613
11671
11702
11756
11803
11785
11811
11818
11840
11863
11917
11906
11928
11956
12022
12003
12141
12194
12140
11968
12141
12608
12965
13198
13157
13181
13126
12936
12778
12617
23519
23948
11197
8107
10039
10828
11897
12771
13120
13289
13463
13640
13818
13968
14131
14319
14544
14773
15053
15329
15689
16100
16583
17025
17439
17683
17797
17719
17542
17114
16373
15342
14173
13116
12254
11679
11317
11170
11036
11082
11165
11289
11363
11426
11442
11522
11570
11635
11655
11680
11688
11722
11766
11779
11817
11851
11888
11884
11922
11943
12047
11938
11824
11955
12454
12825
13061
13016
13028
12968
12799
12625
12441
12410
23485
10736
8100
10192
11004
11985
12738
13094
13273
13508
13649
13846
13983
14116
14289
14514
14736
15044
15361
15706
16154
16601
17022
17422
17694
17735
17657
17406
16996
16233
15202
14000
12923
12081
11558
11279
11141
11077
11075
11147
11209
11308
11380
11518
11577
11672
11719
11794
11785
11812
11832
11909
11934
11906
11929
11911
11939
11972
12077
12009
11889
11952
12481
12873
13107
13056
13032
12995
12853
12685
12494
12433
12459
12697
8005
9993
10881
11905
12691
13070
13219
13422
13536
13745
13865
14023
14176
14420
14672
14932
15258
15618
16021
16447
16922
17338
17625
17704
17692
17494
17100
16342
15315
14136
13098
12152
11558
11225
11089
11006
10989
11067
11138
11287
11375
11465
11483
11590
11611
11652
11691
11777
11759
11758
11755
11781
11809
11882
11944
11907
11996
11999
11953
11836
12178
12619
12966
13079
13068
12996
12957
12753
12594
12437
12422
12408
8557
8863
10179
11318
12252
12879
13118
13337
13472
13643
13763
13940
14063
14296
14489
14772
15049
15384
15809
16267
16749
17211
17580
17770
17811
17684
17426
16936
16085
14950
13821
12739
11988
11459
11194
11026
10996
11007
11122
11210
11278
11363
11411
11482
11555
11663
11682
11753
11739
11787
11802
11791
11787
11826
11818
11860
11887
11963
12000
11952
11872
12137
12616
12906
13112
13059
13078
12973
12811
12594
12492
12449
12513
12349
8654
10115
11115
12145
12868
13184
13346
13543
13709
13911
14040
14201
14378
14639
14857
15124
15432
15829
16254
16734
17166
17549
17765
17793
17681
17404
16895
16036
14950
13745
12733
11939
11512
11185
11075
10994
11014
11109
11225
11299
11380
11403
11517
11571
11616
11667
11673
11748
11728
11764
11711
11783
11821
11857
11867
11965
11892
11791
11836
12255
12661
12899
12958
12916
12895
12732
12610
12383
12346
12373
12346
11941
12207
10701
11749
12573
13036
13232
13415
13611
13755
13921
14098
14312
14525
14742
14938
15283
15632
16087
16532
16981
17375
17698
17816
17781
17529
17141
16391
15284
14143
13077
12209
11604
11316
11125
11061
11047
11092
11149
11279
11357
11472
11560
11654
11761
11812
11834
11827
11846
11873
11885
11878
11931
11916
11935
11983
12080
12026
11890
11996
12524
12913
13142
13107
13081
13017
12832
12692
12481
12415
12402
12399
11956
12479
15947
12010
12740
13144
13281
13507
13667
13846
14003
14148
14317
14498
14741
14993
15327
15713
16171
16629
17095
17433
17717
17790
17755
17530
17132
16358
15302
14084
13023
12174
11631
11329
11135
11082
11079
11196
11257
11374
11480
11581
11659
11748
11771
11794
11845
11884
11888
11898
11892
11883
11912
11926
11985
11980
12050
12054
11999
11835
12179
12693
13046
13149
13161
13090
13036
12770
12590
12465
12422
12445
12253
11866
13215
17358
12287
12897
13096
13351
13541
13695
13827
14032
14224
14418
14569
14760
15012
15320
15693
16183
16782
17283
17683
17848
17914
17790
17556
16990
16153
15048
13908
12851
12069
11548
11289
11161
11084
11111
11134
11267
11304
11399
11497
11603
11705
11753
11775
11821
11777
11815
11760
11836
11891
11935
11958
11936
11899
11927
12045
12021
11918
11928
12381
12780
13062
13061
13066
13010
12914
12775
12557
12389
12371
12387
12015
12379
15611
11809
12641
13080
13232
13406
13541
13697
13878
14120
14225
14468
14695
15008
15339
15663
16034
16495
17079
17505
17778
17741
17697
17610
17251
16423
15324
14159
13096
12194
11566
11204
11058
10959
10924
10998
11010
11137
11387
11474
11566
11661
11602
11649
11703
11728
11723
11727
11696
11770
11827
11810
11789
11810
11922
11936
11910
11770
12008
12568
12938
13004
13064
12984
12859
12603
12536
12388
12389
12403
12231
11817
13396
17619
22758
17486
17709
17818
17731
17523
16978
16134
15002
13865
12774
12002
11542
11319
11094
11054
11065
11140
11249
11354
11437
11514
11674
11701
11813
11813
11862
11795
11845
11847
11884
11840
11839
11873
11946
11999
12000
11999
11986
11904
11846
12283
12708
12994
13086
13120
13092
12892
12769
12615
12480
12455
12424
12093
11884
14308
18918
24610
22573
9396
8678
10151
11253
12203
12935
13194
13420
13576
13719
13809
13949
14136
14325
14526
17314
17685
17875
17903
17756
17453
16750
15815
14593
13470
12439
11814
11385
11179
10988
11000
11074
11179
11268
11337
11397
11514
11608
11628
11684
11685
11775
11790
11844
11803
11779
11785
11854
11867
11861
11882
11951
11986
12035
12135
12064
11927
12187
12708
13002
13182
13108
13114
13072
12944
12757
12526
12491
12557
12403
11889
12693
16425
21710
25817
16192
7763
9638
10492
11664
12514
13062
13248
13475
13599
13742
13942
14172
16164
16674
17153
17570
17831
17981
17940
17703
17229
16446
15449
14274
13159
12235
11664
11289
11130
11042
11093
11104
11191
11320
11386
11435
11510
11562
11563
11628
11639
11685
11654
11738
11750
11761
11742
11826
11830
11868
11833
11892
11902
11979
12147
12117
11978
12160
12648
13010
13212
13212
13244
13108
12984
12801
12614
12527
12571
12479
12072
12690
16184
21338
25803
17220
7685
9471
10403
11669
12538
13068
13259
13483
13640
13811
15372
15762
16173
16686
17219
17657
17908
18058
18002
17761
17383
16595
15574
14390
13261
12262
11629
11276
11094
10997
11039
11087
11213
11263
11329
11439
11486
11533
11611
11707
11695
11698
11709
11747
11730
11769
11731
11772
11760
11797
11825
11890
11943
11960
11901
11862
12284
12710
13009
13058
13047
12966
12831
12642
12472
12376
12408
12405
12121
11907
14243
18775
23954
22466
9574
8236
10131
10920
11967
12765
13057
13308
13486
14863
15126
15510
15913
16393
16897
17391
17743
17933
17962
17826
17466
16850
15964
14829
13635
12592
11880
11426
11195
11071
11032
11043
11117
11209
11367
11424
11483
11543
11621
11701
11762
11794
11797
11825
11813
11824
11810
11858
11874
11923
11932
12001
12022
11946
11829
11991
12458
12853
13105
13091
13073
13020
12864
12668
12512
12424
12471
12340
11936
12399
15814
20815
25664
17882
7680
9394
10437
11580
12451
12993
13241
13426
13551
14967
15283
15690
16092
16601
17078
17544
17814
17970
17926
17698
17301
16530
15451
14242
13138
12230
11667
11275
11106
10959
10970
11041
11136
11223
11330
11391
11498
11570
11650
11703
11719
11784
11804
11822
11787
11820
11810
11829
11823
11866
11907
11995
11983
11926
11912
12370
12833
13056
13107
13105
13085
12913
12760
12551
12445
12429
12504
12092
11946
14437
19123
24796
22503
9179
8546
10039
11211
12221
12864
13133
13303
13539
14860
15243
15635
16057
16474
17006
17447
17794
17964
17967
17825
17527
16894
15911
14752
13575
12594
11840
11394
11130
11054
11000
11058
11114
11206
11298
11412
11455
11562
11623
11689
11667
11697
11733
11720
11744
11752
11775
11803
11837
11848
11922
11942
12021
11912
11774
11954
12494
12883
13087
13099
13115
13047
12850
12676
12503
12456
12485
12408
11944
12559
16010
21009
25415
17172
7357
9313
10309
11485
12437
12974
13223
13408
13585
15023
15357
15748
16238
16704
17197
17570
17866
17906
17850
17682
17280
16499
15466
14317
13210
12282
11673
11338
11140
11026
11004
11095
11190
11318
11338
11429
11524
11628
11639
11706
11732
11750
11798
11824
11855
11856
11929
11878
11930
11987
11970
11862
11878
12190
12653
12938
13039
12968
12956
12815
12617
12454
12335
12358
12351
12014
11854
14420
18945
24266
21742
8892
8400
10130
11040
12064
12782
13116
13328
13521
13682
13807
15542
15967
16434
16906
17386
17702
17884
17835
17670
17291
16625
15650
14586
13407
12439
11756
11376
11169
11124
11100
11127
11190
11277
11394
11474
11582
11651
11751
11789
11833
11798
11807
11805
11848
11880
11903
11891
11920
11984
11932
11878
11805
12228
12693
13013
13052
13043
12998
12868
12652
12452
12341
12366
12371
12090
11768
13882
18358
24006
23521
10128
8301
9940
10984
11941
12707
13019
13272
13438
13572
13687
13899
14064
16372
16854
17333
17650
17836
17857
17675
17377
16763
15806
14644
13503
12485
11723
11278
11111
10985
10980
11036
11117
11213
11288
11368
11443
11553
11606
11660
11673
11726
11758
11764
11762
11757
11781
11830
11814
11887
11944
11890
11727
11907
12390
12708
12928
12937
12974
12923
12777
12612
12409
12339
12422
12343
11946
12529
16080
21092
25646
17171
7482
9396
10344
11518
12440
12999
13173
13352
13505
13735
13850
14029
14149
14340
14585
17555
17778
17914
17796
17568
17137
16353
15310
14123
13046
12136
11574
11215
11074
10974
11008
11080
11164
11260
11365
11430
11510
11595
11636
11657
11683
11724
11742
11766
11732
11757
11734
11778
11757
11906
11889
11890
11767
12030
12506
12837
12985
12984
12963
12872
12725
12527
12441
12409
12468
12310
11922
13203
17246
22320
24590
13192
7463
9835
10627
11693
12556
13041
13253
13458
13633
13786
13909
14099
14236
14412
14585
14918
17726
17766
17610
17378
16888
16041
14946
13810
12772
11982
11514
11277
11156
11095
11157
11185
11314
11434
11523
11575
11682
11737
11846
11832
11862
11863
11855
11897
11909
11938
11963
11977
11954
12076
12027
11914
11851
12285
12698
12997
13075
13070
13031
12910
12715
12517
12410
12397
12440
12114
11881
14133
18718
24409
23212
9813
8500
10042
11117
12079
12806
13095
13314
13484
13639
13809
13949
14109
14285
14495
14723
15049
15313
15732
17636
17308
16682
15754
14575
13434
12417
11768
11359
11183
11073
11042
11087
11136
11239
11345
11475
11482
11541
11572
11674
11696
11744
11693
11711
11719
11776
11783
11804
11850
11847
11947
11926
11854
11797
12224
12707
13034
13077
13090
13088
12907
12709
12533
12399
12420
12428
12076
11825
14162
18795
24450
23081
9562
8378
9912
11034
12072
12803
13054
13274
13423
13602
13794
13998
14140
14329
14535
14769
15056
15357
15802
16208
17321
16675
15725
14606
13513
12492
11822
11365
11138
11030
11068
11094
11206
11262
11348
11443
11484
11578
11594
11675
11676
11696
11685
11759
11718
11738
11746
11785
11845
11835
11762
11702
12058
12541
12851
12948
12907
12892
12819
12658
12506
12328
12357
12365
12145
11783
13643
18083
23498
24104
11049
7800
9773
10685
11781
12604
12993
13183
13346
13548
13699
13872
13996
14214
14419
14699
14979
15277
15641
16130
16639
17091
17513
17744
13440
12455
11782
11354
11104
10999
11033
11039
11087
11171
11276
11389
11507
11568
11578
11607
11696
11727
11740
11741
11734
11771
11763
11727
11684
11845
12152
12518
12760
12868
12755
12684
12535
12392
12163
12125
12188
12148
11787
12002
15116
19925
24889
19270
7768
8967
10329
11217
12135
12777
13015
13237
13434
13598
13754
13912
14079
14318
14498
14772
15049
15400
15766
16235
16684
17189
17507
17638
17605
17464
17151
16534
15592
11058
11067
11133
11271
11338
11442
11554
11676
11701
11764
11768
11799
11828
11893
11859
11872
11854
11799
11772
11947
12323
12628
12923
12951
12889
12795
12672
12507
12313
12235
12268
12163
11669
12026
15422
20505
25501
18038
7907
9578
10535
11569
12380
12887
13060
13236
13398
13635
13746
13973
14142
14342
14544
14798
15087
15426
15859
16305
16780
17165
17475
17602
17583
17370
17070
16377
15410
14234
13042
12158
11594
11257
11114
11030
11599
11652
11715
11756
11769
11842
11867
11909
11888
11899
11910
11939
11829
11788
12017
12550
12928
13063
13008
12994
12867
12698
12515
12351
12353
12327
12133
11696
13132
17345
22957
25220
13063
7994
9834
10776
11862
12645
12991
13189
13359
13546
13672
13813
13993
14196
14383
14657
14902
15266
15636
16066
16511
16982
17380
17643
17730
17673
17447
16995
16256
15196
14112
13006
12171
11573
11258
11076
11056
11033
11132
11232
11331
11768
11817
11830
11900
11940
11911
11941
11963
11939
11775
11991
12456
12861
13027
13019
12966
12927
12719
12593
12391
12358
12383
12261
11774
12433
16158
21430
25777
16544
7623
9493
10421
11567
12487
12961
13199
13346
13548
13699
13876
14016
14183
14379
14574
14820
15147
15524
15927
16384
16797
17285
17555
17714
17626
17471
17091
16411
15425
14309
13184
12263
11667
11350
11138
11093
11071
11099
11243
11329
11430
11471
11549
11570
11794
11788
11869
11880
11818
11733
11789
12212
12610
12912
12900
12844
12779
12649
12505
12363
12236
12269
12236
11875
12207
15473
20386
25021
18348
7432
9054
10278
11253
12170
12812
13059
13305
13430
13620
13767
13926
14066
14340
14560
14819
15138
15476
15846
16338
16802
17192
17515
17627
17613
17451
17118
16455
15536
14363
13259
12328
11714
11333
11117
11020
11035
11055
11151
11263
11400
11487
11516
11620
11666
11752
11730
11829
11847
11830
11791
12146
12615
12969
12964
12948
12894
12814
12640
12426
12311
12341
12363
11978
11887
14502
19193
24747
21758
8767
8807
10179
11250
12132
12807
13082
13266
13434
13584
13720
13842
14053
14268
14492
14706
15036
15340
15734
16165
16643
17048
17421
17622
17693
17523
17193
16656
15761
14645
13481
12548
11802
11431
11190
11101
11061
11125
11164
11301
11363
11469
11536
11650
11698
11719
11727
11755
11809
11789
11807
11781
11822
12149
12643
12966
13083
13049
13055
12952
12765
12554
12465
12435
12432
12148
11884
13998
18478
24147
23588
10118
8226
9957
10988
11999
12715
13062
13262
13457
13608
13797
13952
14123
14282
14494
14745
15035
15382
15720
16139
16578
17062
17422
17674
17706
17650
17364
16929
16110
15015
13834
12815
12050
11544
11219
11044
10998
11022
11168
11281
11356
11440
11567
11618
11669
11720
11776
11788
11819
11837
11852
11827
11809
11839
11811
11859
12243
12692
13010
13130
13098
13098
12953
12829
12614
12497
12464
12499
12184
12009
14411
19036
24690
22611
9304
8641
10194
11231
12218
12866
13148
13307
13530
13710
13909
14040
14221
14392
14636
14874
15154
15484
15822
16244
16670
17198
17554
17815
17845
17808
17523
17087
16280
15215
14052
13030
12176
11630
11289
11115
11108
11121
11196
11244
11366
11441
11504
11520
11600
11613
11644
11683
11713
11728
11772
11820
11804
11842
11861
12658
12911
13016
12959
12923
12753
12639
12460
12429
12412
12444
12101
12209
14955
19639
24586
20470
8134
8719
10337
11221
12195
12851
13158
13331
13537
13694
13910
14039
14250
14397
14658
14920
15218
15550
15926
16370
16855
17297
17626
17858
17839
17689
17399
16866
15917
14870
13730
12737
11999
11546
11254
11133
11116
11151
11242
11360
11447
11529
11616
11681
11761
11773
11850
11850
11883
11869
11940
11924
11964
11927
12008
12009
11938
12946
12808
12650
12448
12370
12394
12364
11882
12229
15467
20484
25637
18742
7797
9346
10372
11490
12399
12960
13199
13395
13579
13731
13896
14017
14217
14395
14657
14864
15156
15522
15950
16393
16855
17269
17637
17833
17814
17664
17289
16665
15679
14543
13372
12444
11731
11379
11180
11090
11019
11125
11191
11337
11438
11491
11576
11630
11676
11699
11759
11731
11750
11782
11839
11822
11845
11879
11900
11814
11759
12012
12518
12844
12317
12321
12334
11880
12083
15220
20182
25539
19546
7849
9040
10229
11382
12315
12886
13156
13320
13491
13627
13786
13934
14095
14272
14531
14779
15059
15437
15837
16328
16776
17227
17535
17717
17679
17565
17261
16683
15704
14567
13407
12418
11742
11345
11140
11036
11044
11075
11168
11264
11392
11463
11566
11594
11685
11687
11704
11726
11774
11827
11838
11830
11839
11957
11915
11858
11802
12119
12586
12962
13059
13043
13013
12928
12264
15537
20473
25555
18914
7743
9181
10207
11389
12345
12892
13133
13350
13497
13686
13821
13963
14050
14250
14475
14792
15058
15430
15826
16321
16790
17198
17539
17641
17622
17412
17116
16456
15589
14431
13355
12380
11763
11367
11117
10994
10995
11055
11213
11286
11336
11401
11478
11599
11660
11695
11676
11768
11745
11801
11746
11801
11809
11772
11716
11778
12077
12467
12784
12828
12785
12709
12599
12463
12282
12112
12187
12184
11887
9605
10522
11424
12321
12841
13119
13255
13434
13619
13799
13972
14167
14365
14556
14846
15195
15549
15897
16345
16821
17271
17500
17553
17439
17226
16816
16078
15072
13974
12926
12070
11569
11250
11110
11023
11075
11145
11295
11363
11498
11592
11707
11762
11841
11848
11869
11864
11852
11897
11940
11904
11833
11861
12113
12530
12792
12995
12943
12909
12773
12636
12443
12291
12269
12348
12065
11635
13303
17447
22901
24002
11495
8286
13426
13589
13778
13897
14092
14258
14505
14720
15019
15359
15782
16229
16684
17085
17376
17489
17447
17315
16969
16322
15339
14277
13160
12333
11723
11412
11191
11130
11150
11233
11327
11417
11508
11544
11663
11669
11688
11726
11770
11751
11783
11764
11821
11851
11931
11825
11711
11792
12292
12724
12955
12952
12926
12880
12685
12505
12287
12238
12232
12239
11753
12339
15870
21040
25593
16608
7805
9590
10542
11578
12422
12793
13001
13176
14601
14906
15234
15603
16078
16554
17004
17313
17552
17551
17439
17210
16746
15875
14798
13721
12691
11930
11452
11224
11083
11130
11172
11307
11375
11479
11541
11629
11666
11751
11767
11786
11824
11863
11889
11907
11920
11892
11903
11817
11726
11855
12369
12767
12978
12909
12910
12803
12631
12460
12286
12257
12275
12129
11694
12671
16564
21937
25461
14627
7677
9718
10566
11676
12480
12904
13092
13328
13510
13704
13834
13939
14142
16628
17092
17405
17592
17561
17465
17148
16606
15711
14677
13497
12515
11787
11437
11172
11066
11019
11087
11176
11300
11399
11474
11588
11604
11670
11699
11772
11742
11788
11792
11836
11802
11787
11741
11800
11875
11902
11822
11702
12091
12602
12955
13071
13065
13021
12911
12717
12547
12368
12411
12415
12157
11847
13899
18404
23891
23718
10306
8153
9969
10996
11997
12769
13056
13290
13452
13600
13739
13933
14102
14334
14520
14753
15044
17785
17739
17587
17292
16683
15725
14626
13491
12505
11837
11358
11172
11062
11081
11151
11231
11308
11465
11536
11641
11673
11726
11819
11809
11787
11792
11861
11848
11857
11837
11852
11796
11876
11944
12017
11942
11875
11928
12366
12775
12999
13039
12993
12974
12777
12631
12436
12416
12454
12439
11965
12492
15832
20865
25251
17647
7399
9309
10408
11421
12353
12935
13198
13340
13542
13685
13876
14031
14239
14418
14659
14862
15179
