12962
13127
13376
13652
13851
13949
14240
14357
14745
15068
15419
15759
16190
16571
17085
17527
17670
17711
17530
17264
16757
16020
14880
13867
12879
12005
11354
11096
11169
11124
11038
11195
11306
11346
11517
11621
11607
11628
11788
11800
11763
11811
11882
11817
11862
11752
11722
11813
12161
12615
12949
13034
12766
12769
12594
12417
12165
12011
12051
12250
11898
11929
14313
19006
24689
21797
8530
8134
9790
11252
12133
12755
13108
13271
13522
13529
13762
13929
14312
14408
14612
14866
15214
15643
16163
16468
16980
17274
17499
17569
17538
17182
16741
15984
14944
13832
12733
11964
11407
11176
11014
10927
11072
11205
11146
11356
11441
11430
11412
11675
11720
11773
11741
11700
11643
11809
11792
11779
11772
12017
12312
12628
12977
12985
12897
12718
12494
12322
12124
12133
12154
11945
11615
12605
16607
22294
25358
14256
7120
9077
10441
11774
12522
12960
13222
13316
13431
13693
13846
14190
14430
14550
14675
15086
15506
15877
16316
16753
17123
17447
17558
17450
17359
16898
16344
15473
14621
13364
12489
11858
11464
11164
11107
11065
11090
11223
11418
11405
11493
11671
11752
11785
11670
11714
11861
12005
11925
11935
11864
11815
11825
11950
12288
12730
12955
13065
12957
12903
12713
12592
12371
12167
12428
12320
12054
12146
15180
20238
25572
20035
7669
8627
10054
11357
12306
12815
13059
13425
13618
13678
13865
14134
14273
14596
14695
14940
15361
15825
16253
16701
17086
17462
17571
17621
17433
17070
16484
15714
14821
13772
12752
11944
11491
11151
11067
10991
11085
11115
11165
11188
11344
11461
11614
11655
11827
11769
11802
11783
11797
11887
11922
11767
11698
11890
12275
12610
12809
12983
12834
12580
12495
12496
12240
12315
12302
12218
11910
12221
15290
20056
24895
18833
7262
8697
10178
11304
12484
13111
13452
13585
13675
13679
13826
13971
14285
14425
14588
14907
15297
15686
15936
16436
17228
17699
17661
17505
17322
16925
16350
15552
14425
13609
12657
12052
11656
11474
11282
11232
11212
11369
11568
11601
11603
11732
11848
11792
11903
11902
12002
11933
11960
11890
11955
11876
11850
11970
12301
12725
13051
13089
13035
12852
12765
12664
12344
12383
12357
12287
11859
12305
15610
20915
25717
17870
7374
9076
10202
11486
12487
12952
13217
13362
13547
13586
13847
13906
14248
14515
14868
15135
15473
15765
16228
16741
17126
17275
17562
17564
17418
17008
16423
15641
14550
13448
12511
11858
11423
11247
11074
11237
11385
11467
11462
11553
11611
11761
11736
11712
11803
11911
11865
11880
11902
11940
11820
11907
11927
11803
11830
12073
12693
13082
13148
13024
12976
12775
12588
12360
12219
12248
12299
12112
11938
13982
18206
24035
23324
9690
7662
9581
10894
11928
12642
13028
13176
13309
13435
13605
13766
13987
14271
14529
14766
15126
15511
15896
16404
16729
17215
17423
17415
17373
17084
16648
16102
15193
14136
13091
12311
11754
11443
11217
11209
11225
11365
11377
11535
11695
11704
11752
11659
11795
11761
11802
11798
11852
11791
11830
11818
11978
11786
11628
11795
12211
12638
12940
13080
13090
12969
12681
12573
12290
12293
12361
12258
11951
12160
14758
19386
25079
21204
7787
7868
9889
11332
12294
12847
13075
13251
13551
13661
13817
14048
14232
14397
14743
15001
15329
15570
16153
16693
17051
17235
17426
17544
17413
17091
16613
15941
15060
14061
12882
12216
11640
11330
11065
11185
11179
11321
11343
11406
11525
11621
11594
11769
11852
11875
11800
11845
11867
11750
11915
11884
11919
11921
11881
11688
11716
12337
12958
13243
13237
13135
13095
12931
12628
12425
12383
12427
12367
11998
12390
15636
20647
25732
19168
7121
8415
10068
11528
12410
12932
13242
13447
13555
13840
14009
14157
14450
14721
14990
15239
15532
15959
16329
16877
17155
17464
17575
17596
17386
17104
16590
15944
14857
13822
12885
12046
11582
11289
11134
11069
11096
11122
11276
11525
11616
11621
11639
11681
11861
11740
11744
11807
11824
11758
11723
11793
11702
11575
11684
12083
12339
12736
13003
12999
12819
12664
12466
12268
12165
12149
12155
12098
11880
13936
18479
23914
22865
9560
7811
9858
10872
11875
12552
13010
13182
13360
13613
13822
14041
14138
14390
14624
14838
15224
15645
15991
16544
17025
17273
17604
17548
17414
17064
16550
15794
14985
13831
12872
12065
11578
11258
11200
11162
11186
11234
11399
11518
11714
11740
11690
11740
11758
11886
11836
11930
11947
11934
11909
12055
11944
11954
11902
12112
12620
13042
13074
12913
12820
12711
12602
12367
12330
12219
12179
11996
12095
14533
19144
24733
21498
8370
8337
9943
11182
12132
12641
12830
13222
13532
13682
13924
13883
14144
14234
14642
14939
15154
15626
16172
16595
17039
17221
17431
17487
17329
17031
16535
15742
14687
13633
12774
12006
11416
11164
11000
11012
10973
11092
11246
11312
11366
11531
11778
11824
11890
11854
11952
11916
11813
11758
11731
11792
11886
11802
11725
11705
12342
12809
13183
13089
12880
12680
12592
12411
12114
12112
12247
12170
11705
12264
15581
20704
25680
18313
7133
8636
10048
11503
12289
12811
13030
13288
13536
13701
13828
13993
14188
14385
14610
15005
15372
15717
16085
16631
17130
17385
17506
17514
17361
16955
16380
15589
14715
13609
12634
11831
11430
11117
10880
11062
11202
11284
11339
11440
11527
11705
11725
11678
11654
11787
11800
11773
11764
11775
11763
11901
12026
11856
11716
11872
12394
12882
13138
13053
12922
12846
12709
12388
12209
12206
12301
12232
11974
12064
14963
19819
25455
20344
7528
8143
9902
11501
12392
12956
13201
13351
13470
13549
13798
14128
14187
14595
14734
15078
15339
15830
16191
16703
17135
17414
17585
17554
17422
17005
16635
15913
14832
13672
12828
12046
11443
11148
11148
11000
11118
11282
11446
11458
11376
11490
11797
11847
11862
11798
11783
11830
11692
11792
11730
11907
11996
11987
11868
11928
11793
12124
12592
13038
13209
13156
13045
12990
12754
12383
12296
12375
12456
12212
12053
13412
17489
23048
25235
12895
7009
9253
10435
11761
12792
13260
13419
13597
13769
13915
14139
14306
14380
14588
14838
15196
15583
15931
16435
16981
17302
17583
17778
17751
17434
17070
16389
15472
14439
13359
12485
11718
11292
11156
11117
11075
11110
11261
11607
11526
11637
11755
11800
11757
11858
11919
11885
11818
11869
12005
12019
12033
11972
12060
12068
11995
12059
12495
12910
13217
13125
13062
12943
12765
12480
12270
12355
12458
12418
12021
12880
16500
21709
25485
15679
7020
9315
10436
11679
12594
13150
13337
13436
13734
14028
14079
14178
14361
14702
14900
15282
15654
15998
16380
16956
17341
17620
17673
17555
17457
17146
16510
15460
14547
13513
12537
11924
11522
11188
11024
11037
11159
11298
11419
11497
11588
11685
11665
11831
11869
11923
11790
11751
11827
11943
11862
11934
12010
12076
12017
11987
12033
12256
12719
13125
13254
13140
13225
13065
12839
12533
12493
12462
12498
12275
11916
13280
17285
22848
25270
13101
7257
9422
10607
11871
12767
13174
13249
13453
13681
13902
14124
14392
14517
14530
14840
15288
15554
15923
16329
17025
17272
17531
17734
17580
17356
16875
16254
15302
14389
13311
12444
11801
11389
11238
11229
11148
11186
11286
11428
11417
11476
11628
11752
11684
11728
11839
11793
11928
11909
11868
11794
11806
11811
11918
11946
12046
12017
11910
12051
12654
13133
13234
13211
13062
13015
12743
12519
12262
12313
12420
12389
11948
13220
17059
22551
25405
13721
6999
9239
11097
12225
12853
13037
13301
13582
13847
13957
14096
14228
14407
14640
14941
15244
15615
16004
16575
16876
17233
17616
17804
17627
17333
17002
16477
15614
14620
13516
12502
11894
11507
11246
11096
11204
11249
11313
11396
11456
11580
11763
11783
11785
11845
11871
11874
11820
11860
11886
11937
11925
11928
11848
11908
12061
12188
12158
11983
12071
12625
13018
13239
13207
13112
13025
12797
12557
12244
12306
12391
12460
12211
12846
16110
23481
24636
11667
7318
9570
10999
12226
12897
13247
13398
13524
13678
13881
14094
14328
14485
14699
15052
15340
15676
15984
16394
16734
17114
17348
17549
17586
17609
17292
16828
16146
15117
13860
12895
12187
11662
11287
11050
10993
10930
11272
11382
11436
11592
11854
11763
11729
11586
11676
11770
11817
11798
11713
11783
11913
11958
11970
12055
11890
11881
12016
12446
12807
13171
13192
13125
13036
12768
12585
12384
12348
12503
12420
12084
13471
17517
22956
25119
13090
7110
9423
10332
11774
12716
13332
13565
13596
13703
13919
13992
14106
14296
14658
14916
15126
15422
15848
16366
16776
17098
17378
17615
17573
17412
17028
16416
15560
14723
13538
12628
11910
11408
10996
10794
10810
10913
11066
11254
11380
11405
11474
11570
11593
11690
11751
11690
11674
11581
11766
11745
11826
11822
11788
11764
11709
12071
12626
13060
13079
12942
12708
12514
12376
12237
12184
12263
12191
12184
13348
17003
21815
24229
13926
6725
9283
10460
11553
12540
13122
13231
13335
13432
13695
13866
13998
14094
14254
14517
15218
15513
15765
16097
16534
16949
17288
17493
17361
17095
16852
16724
15972
14833
13668
12682
11844
11528
11245
11203
11093
11075
11053
11227
11462
11540
11515
11576
11702
11709
11843
11846
11875
11888
11819
11872
11889
11812
11894
12045
12363
12538
12800
12816
12784
12704
12503
12401
12285
12317
12343
12176
12048
14950
18894
23220
19381
7968
8174
10239
11214
12424
13076
13226
13260
13527
13791
13967
13999
14153
14348
14659
14936
15139
15417
15881
16344
16804
17163
17326
17428
17288
17151
16627
15900
14898
13787
12935
12226
11773
11515
11281
11125
11190
11308
11386
11491
11632
11740
11884
11858
12083
11990
12043
12040
12084
12163
12216
12079
12017
12062
12371
12622
12940
13224
13153
12888
12735
12658
12431
12290
12221
12377
12185
12206
14260
20279
24646
17979
7454
9030
10463
11418
12399
13069
13251
13417
13686
13776
13805
13953
14366
14482
14645
14851
15245
15581
16096
16463
16870
17197
17505
17565
17518
17110
16587
15716
14734
13778
12873
12001
11399
11388
11235
11149
11111
11153
11190
11459
11494
11575
11687
11762
11719
11854
11873
11825
11892
11826
11961
11931
11901
11784
11933
12295
12756
12934
12924
12766
12722
12715
12585
12248
12166
12349
12334
12104
12562
15709
20231
23986
12985
6974
9482
10723
11698
12584
12991
13231
13361
13575
13732
13920
14113
14288
14594
14806
15023
15328
15837
16304
16726
17094
17481
17667
17624
17429
17025
16363
15604
14457
13366
12461
11828
11454
11324
11242
11093
11224
11277
11327
11385
11484
11584
11660
11818
11984
11945
11822
11863
12009
11807
11880
12107
12104
11886
11745
12039
12539
13024
13131
13052
12898
12874
12581
12463
12263
12279
12359
12255
11948
13461
17471
24301
21588
8904
7932
10030
10999
11996
12722
13053
13396
13465
13649
13835
13935
14075
14322
14483
14868
15177
15490
15928
16490
16964
17350
17560
17746
17686
17247
16868
16228
15215
13943
13009
12223
11610
11234
11127
11060
11117
11189
11258
11280
11544
11518
11517
11776
11865
11908
11920
11886
11739
11813
11805
11723
11715
11956
12019
11913
12175
12621
12905
13057
13072
12964
12919
12641
12472
12340
12253
12175
12088
12045
13303
18910
24311
22233
9243
7900
10043
11056
11975
12686
13037
13280
13516
13679
13750
13978
14111
14242
14465
14668
14942
15368
15863
16461
16882
17200
17463
17824
17623
17266
16825
16180
15106
13978
12964
12078
11507
11230
11264
11117
11170
11205
11387
11365
11447
11585
11713
11743
11803
11787
11871
11851
11735
11806
11956
12048
12006
11908
11965
12447
12753
13057
13135
12920
12780
12677
12667
12558
12380
12393
12502
12250
12146
14479
19092
25682
17787
7489
9132
10341
11470
12460
13184
13349
13420
13569
13848
13933
14068
14282
14378
14586
15003
15316
15639
16293
16825
17113
17458
17705
17790
17665
17306
16745
15729
14701
13648
12729
11785
11344
11051
10983
11024
11036
11035
11135
11188
11424
11468
11554
11759
11833
11821
11763
11771
11807
11957
11945
12015
11805
11808
12206
12533
12816
13063
13040
12887
12795
12678
12399
12180
12219
12128
12208
11845
12421
15860
21278
24537
11929
7599
9729
10675
11789
12618
12883
13177
13355
13500
13680
13793
13926
14240
14465
14703
15017
15380
15781
16218
16815
17378
17658
17787
17775
17599
17052
16364
15471
14349
13198
12353
11717
11288
10993
11060
11149
11062
11130
11241
11434
11389
11630
11752
11783
11797
11804
11692
11781
11896
11956
11935
11908
11912
11953
11982
12010
12094
12070
11985
12180
12776
13099
13242
13072
13082
12905
12805
12729
12460
12444
12497
12432
11986
14103
18654
24478
23024
9617
8075
9823
10832
12025
12877
13206
13381
13605
13711
13803
13965
14209
14515
14638
14911
15283
15609
15983
16508
16912
17444
17733
17829
17776
17669
17224
16564
15672
14566
13370
12464
11806
11403
11267
11159
11056
11058
11311
11316
11415
11524
11591
11695
11770
11792
11857
11817
11821
11854
11873
11919
11931
11834
11888
12019
12027
12076
11971
12006
12124
12189
12161
12215
12308
12291
12059
12185
12745
13172
13317
13177
13433
13507
13258
13032
12800
12683
12713
12727
12416
12316
14801
19572
25508
21850
8903
8669
10271
11316
12417
13116
13355
13543
13735
13812
14096
14364
14486
14605
14862
15171
15365
15683
16054
16557
16985
17474
17741
17922
17684
17520
17366
16680
15671
14720
13612
12633
11875
11367
11264
11129
11064
11176
11380
11402
11559
11591
11698
11724
11803
11841
11875
11885
11789
11906
11967
11942
11897
11902
11919
12006
11943
11976
12126
12185
12163
12197
12170
12264
12363
12356
12477
12485
12413
12626
13111
13489
13511
13499
13432
13394
13234
12950
12918
12819
12700
12753
12700
12249
13965
18259
24039
25066
12432
7650
9779
10905
12210
13104
13421
13630
13818
14003
14065
14199
14224
14481
14683
14889
15174
15733
16048
16451
16943
17429
17735
17934
17963
17788
17566
17027
16293
15169
13971
12893
12161
11707
11510
11323
11203
11183
11170
11218
11449
11610
11523
11487
11642
11663
11862
11894
11791
11824
11846
11843
11748
11951
11940
11827
11827
12027
12099
12240
12223
12228
12063
12202
12111
11923
12435
13034
13291
13337
13358
13338
13196
12879
12786
12667
12613
12528
12448
12151
13080
16615
21837
25720
16438
7328
9402
10486
11627
12592
13038
13271
13514
13731
13737
13931
14262
14439
14607
14888
15117
15441
15768
16197
16690
17206
17607
17764
17957
17780
17661
17181
16387
15227
14015
12753
12048
11478
11172
10956
10907
11044
11121
11028
11335
11512
11512
11607
11718
11776
11828
11783
11759
11892
11808
11771
11815
11940
11960
11922
11989
12085
12071
12032
12045
12165
12238
12346
12176
12042
12220
12772
13231
13346
13361
13357
13368
13063
12821
12740
12632
12530
12620
12327
12449
15082
19741
25215
21084
8426
8559
10256
11343
12488
13057
13347
13576
13813
13915
14088
14151
14334
14547
14716
14985
15421
15806
16181
16809
17299
17767
18115
18098
18051
17802
17231
16475
15372
14233
13054
12267
11600
11320
11161
11015
11008
11141
11211
11306
11327
11479
11535
11563
11745
11838
11900
11957
11889
11737
11827
11879
11997
11923
11974
12017
12038
12132
12133
12172
12184
12281
12356
12253
12075
12210
12764
13273
13379
13441
13360
13252
13050
13040
12837
12544
12613
12637
12188
12496
15597
20350
25600
19848
7766
8751
10246
11425
12478
13121
13405
13468
13860
14023
14163
14144
14317
14549
14792
15030
15411
15714
16185
16785
17337
17724
18030
18155
18029
17669
17121
16419
15236
14122
13031
12154
11504
11284
11117
10985
11068
11147
11257
11262
11242
11459
11579
11520
11560
11683
11791
11714
11700
11801
11803
11747
11860
11835
11881
11960
12163
12128
12101
12113
12004
12109
12320
12184
11911
12198
12827
13289
13330
13225
13121
13122
12958
12762
12536
12589
12563
12458
12064
13179
16901
22308
23280
9954
7945
9938
11114
12291
13072
13238
13425
13571
13824
13977
14178
14287
14535
14820
15007
15324
15741
16164
16559
17039
17370
17802
18096
18034
17907
17731
17122
16237
15062
13888
12760
12115
11564
11286
11056
10940
11030
11204
11304
11369
11492
11572
11694
11739
11814
11741
11831
11832
11868
11796
11804
11760
11801
11750
11779
11917
11887
11983
12131
12200
12181
12185
12255
12297
12109
12271
12680
13111
13232
13227
13296
13228
12947
12807
12566
12522
12580
12531
12229
13631
17532
23106
25116
12927
7386
9588
10706
11984
12862
13204
13559
13681
13826
13945
14056
14258
14422
14604
14843
15138
15464
15883
16270
16761
17176
17635
18024
18146
17927
17716
17122
16297
15249
14114
13018
12213
11510
11201
11116
11046
11065
11116
11272
11314
11367
11421
11460
11625
11737
11711
11720
11708
11716
11825
11925
11893
11908
11865
11901
11969
12016
12016
12026
12140
12074
11938
12150
12707
13072
13282
13242
13221
13067
12948
12693
12488
12399
12562
12471
12134
12994
16657
22018
25731
16018
7015
9292
10390
11636
12607
13268
13445
13534
13590
13795
14007
14139
14308
14649
14881
15028
15406
15790
16305
16658
17206
17714
18013
18011
17784
17558
17174
16345
15243
14090
13049
12116
11467
11028
11039
11005
10893
10959
10971
11166
11359
11324
11508
11617
11637
11688
11651
11784
11718
11832
11821
11902
11721
11928
11961
11954
11887
11978
12108
12025
11826
12141
12680
12962
13131
13075
13241
13100
12821
12638
12467
12479
12500
12432
12085
12914
16493
21678
25600
16141
7038
9206
10402
11603
12558
13168
13438
13685
13815
13974
13993
14159
14483
14720
14858
15027
15344
15943
16330
16856
17291
17704
17967
17973
17825
17607
17221
16400
15289
14061
12978
12155
11596
11225
11040
10991
10968
10957
11047
11333
11453
11476
11433
11601
11726
11813
11761
11868
11841
11869
11825
11880
11869
11908
11933
11896
11911
12121
12010
11907
11944
12429
12935
13170
13179
13081
13054
12857
12684
12457
12457
12426
12332
12021
12233
14839
19445
25094
21698
8309
8242
9954
11137
12142
12850
13111
13259
13447
13616
13784
13910
14248
14439
14689
14869
15247
15539
15919
16410
16857
17266
17690
17768
17715
17648
17198
16543
15590
14552
13378
12373
11618
11197
10907
10856
10854
10895
11002
11040
11172
11299
11317
11457
11640
11713
11684
11729
11713
11644
11702
11797
11807
11864
11878
11796
11920
11786
11989
12150
12092
11817
12020
12575
13043
13204
13094
13012
12958
12806
12586
12418
12347
12397
12320
12122
12709
15951
20962
25861
18192
7156
8757
10109
11536
12641
13126
13348
13623
13640
13820
13999
14241
14345
14534
14708
15001
15257
15728
16220
16694
17090
17553
17808
17919
17915
17643
17213
16463
15568
14399
13296
12388
11740
11258
11129
11035
10996
10996
11210
11291
11369
11459
11645
11683
11792
11879
11865
11860
11839
11836
11788
11882
11873
11907
11883
11948
11997
12027
11935
12084
12031
12000
12363
12860
13189
13306
13222
13198
13071
12821
12672
12485
12531
12501
12350
12117
13687
17735
23421
24945
12180
7193
9585
10762
12037
12930
13265
13475
13675
13838
13925
14196
14338
14538
14595
14958
15264
15726
16094
16508
16896
17331
17695
17889
17942
17896
17587
16833
15927
14780
13571
12616
12022
11582
11321
11112
11104
11056
11212
11314
11433
11447
11626
11670
11735
11743
11919
11907
11842
11876
11878
11963
11933
11886
11868
11991
11974
12034
12078
12322
12120
12069
12062
12674
13215
13391
13348
13314
13190
12997
12862
12637
12544
12519
12577
12233
12251
14810
19683
25390
22244
8506
8155
9884
11223
12307
12932
13244
13588
13793
13846
14031
14137
14364
14513
14825
15068
15360
15642
16233
16765
17148
17577
18044
18119
18002
17621
17075
16470
15547
14326
13121
12269
11693
11335
11119
11108
11056
11156
11149
11293
11397
11500
11580
11697
11755
11755
11757
11811
11872
11859
11893
11873
11858
11812
11848
11897
11987
12109
12281
12217
12095
12221
12796
13141
13274
13142
13059
12978
12793
12733
12496
12503
12534
12533
12221
13557
17356
22528
25204
14275
6992
9573
10630
11737
12629
13179
13352
13440
13660
13820
14088
14351
14560
14793
15030
15237
15625
16052
16478
16883
17370
17720
18135
18041
17775
17327
16733
15814
14709
13585
12614
11862
11373
11251
11072
10964
11030
11041
11134
11486
11510
11447
11559
11816
11878
11856
11719
11866
11861
11978
12014
11934
11868
11887
12087
12238
12128
11944
12097
12556
13033
13232
13216
13149
13126
12917
12690
12558
12456
12454
12396
12145
12355
15092
19816
25372
21308
8230
8313
10047
11122
12338
12969
13326
13483
13606
13786
13979
14117
14328
14477
14748
15032
15342
15781
16219
16691
17109
17556
17758
17842
17760
17540
16987
16155
15060
13974
12837
12066
11519
11180
11139
11087
10997
11033
11184
11402
11453
11371
11609
11715
11773
11775
11754
11793
11928
11957
11969
11936
11872
11872
11886
12081
12151
12025
11930
12004
12449
13128
13334
13307
13171
13109
12858
12710
12485
12421
12335
12440
12219
12550
15737
20765
25905
19549
7553
8796
10148
11429
12458
12932
13249
13418
13666
13758
13871
14073
14276
14485
14807
15044
15398
15804
16283
16747
17190
17574
17759
17762
17698
17454
16817
16063
15020
13820
12597
11888
11406
11226
11082
11048
11042
11182
11260
11352
11362
11270
11634
11655
11691
11766
11730
11710
11885
11901
11945
11915
11797
11882
12102
11993
12005
11951
11899
12043
12449
12967
13175
13119
13010
13062
12896
12674
12437
12444
12410
12461
12158
12253
14978
19710
25384
21692
6944
9005
10378
11715
12548
13052
13217
13328
13645
13784
13912
13990
14216
14432
14692
14853
15278
15661
16148
16669
17152
17521
17778
17874
17655
17478
17109
16357
15338
14204
13042
12295
11721
11370
11106
11079
11031
11104
11252
11479
11449
11482
11477
11636
11778
11776
11897
11937
11949
11895
11938
11898
11969
11865
11971
12061
12209
12094
12010
11912
12252
12796
13073
13158
13143
13060
12958
12883
12582
12431
12342
12257
12213
12333
14513
19207
25051
23664
9643
7864
9683
10954
12055
12761
13166
13271
13541
13889
14014
14148
14338
14446
14734
14936
15218
15458
15972
16427
16913
17394
17774
17904
17917
17747
17410
16771
15823
14744
13601
12632
11776
11406
11072
11024
11048
11155
11185
11254
11181
11327
11486
11593
11604
11642
11653
11705
11669
11713
11829
11723
11867
11797
11832
11955
11913
11853
11823
12060
12628
12992
13207
13120
12965
12829
12689
12554
12456
12391
12306
12124
12583
15634
20193
25060
19917
7676
8461
10193
11168
12483
13515
13714
13679
13724
13793
14086
14175
14356
14606
14737
14979
15179
15636
15966
16360
16985
17452
17784
18008
17794
17456
17037
16346
15205
14088
13232
12362
11740
11357
11089
11088
11087
11033
11229
11295
11376
11500
11643
11528
11766
11870
11863
11844
11926
11936
11943
11917
11918
11995
11936
11962
11856
12174
12446
12838
13147
13218
13179
13063
12781
12533
12351
12435
12393
12120
11863
13793
17993
23701
24596
11872
7575
9642
10625
11750
12721
13047
13238
13368
13618
13706
14010
14271
14460
14616
14823
15086
15357
15764
16318
16769
17098
17285
17744
17851
17601
17319
16679
15749
14587
13544
12486
11736
11289
11071
10983
10915
10926
11039
11170
11217
11257
11403
11648
11705
11844
11768
11856
11927
12024
11974
11982
11865
11996
11957
11761
11726
12160
12737
12993
13033
12968
13026
12943
12624
12422
12244
12212
12365
12010
11960
13869
18328
23934
24457
11298
7592
9531
10695
11842
12599
12946
13227
13474
13697
13830
13989
14221
14319
14513
14675
15044
15415
15855
16254
16816
17293
17595
17675
17709
17650
17257
16661
15726
14616
13498
12546
11753
11391
11090
10985
10723
10897
11166
11164
11333
11682
11740
11741
11759
11725
11797
11812
11843
11803
11767
11799
11883
11897
11950
11948
12026
11950
12411
12868
13076
13067
12965
12816
12684
12485
12346
12270
12362
12303
12005
13069
17006
22566
25794
15092
6996
9067
10241
11613
12457
12885
13107
13334
13481
13680
13750
13873
13971
14271
14632
14926
15299
15684
16188
16600
17266
17634
17883
17811
17658
17233
16749
16081
15050
13924
12815
12064
11598
11268
11050
11113
11055
11111
11209
11334
11380
11477
11496
11627
11629
11698
11742
11688
11902
12054
11958
11958
11930
11981
12107
12009
11918
12219
12760
13045
13219
13059
13029
12839
12615
12346
12343
12467
12584
12198
11979
13947
18626
24275
24594
11022
7451
9440
10580
11888
12617
12935
13164
13475
13650
13860
13957
14154
14239
14505
14771
15038
15349
15928
16361
16833
17244
17564
17675
17624
17651
17178
16503
15578
14532
13421
12540
11771
11403
11180
11165
11202
11204
11228
11281
11321
11376
11502
11542
11740
11777
11788
11784
11883
11836
11856
11775
11850
11980
11945
11696
11684
12274
12849
12976
12944
12879
12687
12514
12487
12344
12278
12324
12119
11976
13132
17111
22257
25523
14959
7412
9411
10319
11522
12576
13035
13112
13283
13469
13637
13777
14023
14269
14456
14645
15026
15257
15703
16062
16445
17026
17463
17662
17633
17391
17196
16609
15751
14646
13473
12485
11778
11550
11283
11103
10990
11133
11143
11255
11247
11430
11361
11676
11855
11752
11692
11773
11805
11772
11876
11904
12038
11900
11853
11901
12344
12823
13045
12905
12961
12898
12728
12451
12305
12205
12240
12125
11826
12235
15554
20628
25633
18905
7581
9033
10192
11349
12264
12886
13046
13365
13487
13656
13830
14042
14139
14398
14603
14889
15165
15424
15895
16456
16987
17318
17600
17566
17630
17347
16939
15949
14938
13985
12996
11961
11570
11399
11280
11093
11091
11184
11190
11270
11416
11677
11647
11695
11660
11749
11761
11830
11901
11918
11955
11982
11960
11861
11779
12027
12623
12985
12977
12851
12766
12648
12539
12332
12248
12175
12220
11914
11913
14247
19014
24825
22981
9310
8016
9660
10906
12042
12868
13124
13183
13419
13648
13789
13863
14092
14230
14542
14707
15126
15430
15897
16332
16869
17192
17429
17599
17559
17305
16972
16358
15327
14249
13094
12264
11596
11305
11035
10986
10973
11192
11252
11342
11366
11460
11547
11565
11681
11699
11681
11645
11705
11704
11839
11877
12019
11820
11623
11785
12281
12820
13086
12934
12883
12885
12701
12458
12359
12324
12347
12242
11821
12701
16486
21880
25921
16489
7176
9085
10280
11666
12451
12899
13129
13361
13481
13648
13697
13908
14255
14407
14671
14940
15282
15604
16079
16461
16974
17280
17531
17602
17513
17110
16629
15937
14911
13778
12752
11868
11463
11293
11179
11162
11038
11117
11206
11342
11339
11508
11659
11716
11664
11735
11773
11719
11774
11812
11866
11894
11877
11733
11846
12316
12818
13075
13058
13007
12948
12660
12488
12269
12311
12324
12294
11872
12210
15486
20868
25972
19769
7608
8657
9928
11279
12332
12826
12984
13120
13486
13681
13814
13838
14158
14456
14688
14910
15290
15603
15966
16509
17065
17430
17509
17605
17515
17213
16763
16125
15021
13867
12853
12072
11513
11263
11128
11076
11106
11161
11209
11202
11352
11451
11522
11589
11738
11715
11726
11682
11761
11816
11889
11924
11813
11616
11680
12154
12638
13011
12893
12849
12792
12575
12527
12359
12195
12185
12116
11798
12687
16573
21935
25632
15743
7049
9118
10229
11454
12448
12894
13096
13354
13629
13784
13835
14066
14318
14592
14637
14877
15279
15773
16130
16621
17021
17419
17594
17598
17456
17161
16425
15810
14934
13801
12765
12069
11691
11267
11234
11213
11305
11219
11429
11485
11560
11721
11781
11741
11857
11919
11927
12002
11996
11989
12063
12124
11848
11809
12198
12711
12797
12955
12936
12877
12636
12586
12238
12231
12176
12255
11845
12222
15424
20628
25695
18893
7640
8924
10057
11147
12373
12962
13184
13244
13539
13716
13907
13979
14197
14329
14545
14758
15072
15482
15881
16238
16742
17222
17548
17606
17217
17039
16630
15862
14787
13754
12693
12025
11484
11295
11123
11100
11016
11093
11170
11337
11562
11545
11699
11753
11838
11831
11939
11947
11854
11824
11978
11948
11968
11758
11766
12249
12760
13011
13028
12841
12822
12639
12396
12102
12197
12360
12125
11805
12516
16172
21559
25931
16789
7283
9082
10188
11444
12356
12921
13097
13306
13488
13641
13788
13959
14097
14369
14566
14820
15068
15585
16002
16507
16857
17299
17435
17511
17399
17130
16689
15867
14884
13784
12781
11886
11553
11267
11107
10906
11079
11134
11246
11352
11476
11528
11654
11738
11665
11732
11761
11686
11768
11935
11919
11979
11767
11772
11708
12223
12742
12954
12891
12893
12770
12562
12423
12306
12061
12194
12123
11814
13112
17276
23034
25403
13257
7001
9239
10441
11757
12549
13004
13097
13338
13528
13742
13985
14300
14387
14529
14740
15122
15445
15814
16171
16588
17087
17374
17502
17597
17511
17153
16659
15744
14766
13637
12688
11983
11588
11177
11012
11120
11205
11294
11378
11562
11611
11649
11609
11799
11746
11885
11854
11775
11689
11918
11939
11839
11773
11817
12235
12606
12981
12963
12857
12703
12576
12351
12225
12196
12237
12156
11752
12679
16812
22472
25632
14504
6910
9020
10306
11600
12434
12884
13101
13241
13409
13649
13762
14016
14182
14451
14590
14987
15405
15812
16141
16656
17061
17396
17578
17535
17368
17056
16569
15761
14748
13643
12683
11798
11411
11097
11034
11079
11125
11115
11271
11344
11482
11588
11621
11589
11666
11805
11878
11812
11831
11915
11765
11852
11874
12281
12613
12976
12995
12925
12821
12576
12341
12157
12127
12152
12053
11783
12534
16160
21597
25693
16221
7112
9038
10301
11725
12548
12968
13189
13380
13522
13683
13763
14003
14201
14368
14630
14984
15312
15558
16147
16713
17041
17276
17433
17358
17304
16962
16456
15648
14724
13633
12628
11899
11511
11194
11085
11121
11078
11174
11213
11400
11545
11719
11667
11698
11753
11858
11825
11863
11824
11776
11690
11771
12216
12677
12905
12985
12940
12803
12548
12350
12202
12124
12122
11995
13185
17417
23131
24504
11560
7565
9476
10813
11889
12606
12885
13143
13354
13522
13618
13813
14046
14203
14400
14639
14961
15297
15774
16182
16710
17075
17345
17415
17450
17189
16840
16214
15422
14329
13130
12269
11724
11430
11135
10983
10978
11159
11195
11323
11411
11543
11617
11683
11731
11787
11791
11911
11791
11706
11674
11939
12377
12720
12987
12837
12760
12516
12408
12201
12101
11988
12044
11830
11495
13003
17402
23370
24226
7748
8504
9990
11302
12256
12758
12987
13238
13451
13588
13788
13871
14088
14219
14505
14731
15191
15577
16027
16420
16853
17262
17519
17508
17427
17201
16737
16006
14992
13930
12783
12128
11625
11391
11196
11075
11138
11270
11338
11434
11411
11529
11660
11724
11814
11762
11901
11819
11859
11791
12199
12450
12711
12914
12881
12692
12536
12412
12263
12085
12062
12080
11816
11535
13489
18145
23764
23138
9726
7977
9785
10901
11913
12656
13009
13274
13326
13502
13693
13922
14054
14311
14551
14868
15146
15518
15969
16393
16831
17196
17305
17196
17165
16868
16383
15489
14542
13479
12590
11842
11401
11137
11036
11035
11099
11219
11278
11387
11516
11758
11733
11748
11744
11853
11881
11873
11810
11789
11947
12441
12829
12995
12849
12712
12470
12229
12156
11987
12043
12113
11937
11896
14672
19523
24755
19439
7684
8758
10263
11274
12213
12844
13128
13286
13425
13602
13721
13927
14195
14472
14689
14980
15316
15769
16140
16679
16946
17287
17326
17295
17066
16823
16191
15299
14250
13219
12320
11771
11459
11189
11220
11248
11329
11391
11544
11596
11749
11801
11919
11907
11955
11956
12063
12029
11946
12082
12317
12703
12920
13029
12905
12826
12492
12295
12056
12114
12080
11972
11578
12153
15646
21047
25279
15811
7240
9299
10434
11577
12625
12921
13151
13258
13459
13676
13960
14089
14241
14369
14608
14894
15227
15750
16223
16649
17124
17326
17260
17190
16991
16631
15969
15084
14042
13126
12219
11766
11415
11197
11078
11261
11299
11413
11504
11624
11758
11841
11810
11818
11847
11944
12012
11994
11953
11718
11862
12140
12749
13109
13146
12862
12764
12647
12510
12188
12102
12151
12187
11766
11915
15102
20457
25707
18561
7442
8910
10140
11306
12245
12736
13125
13314
13535
13671
13800
14008
14126
14316
14538
14890
15114
15569
16007
16460
16781
17210
17304
17213
17117
16895
16247
15447
14368
13333
12354
11741
11394
11225
11087
11064
11136
11346
11518
11572
11698
11687
11848
11885
11858
11756
11801
11872
11949
11943
12079
11877
11932
12408
12950
13141
13103
13033
12764
12582
12373
12206
12170
12315
12113
11825
13033
17253
23048
25055
12225
7206
9377
10651
11888
12582
12963
13167
13337
13491
13811
13892
14073
14268
14568
14765
15073
15293
15721
16189
16590
16903
17163
17350
17322
17114
16676
16171
15301
14288
13154
12454
11800
11458
11261
11271
11289
11439
11457
11602
11622
11683
11594
11719
11819
11841
11884
11956
12006
11964
11975
11873
11809
11852
12381
12829
13130
13050
12987
12870
12736
12502
12308
12220
12241
12207
11709
12314
15951
21550
25988
17235
7200
9034
10128
11456
12429
12954
13031
13283
13517
13717
13863
14031
14155
14242
14587
14924
15271
15705
16135
16441
16989
17149
17347
17345
17200
16750
16358
15354
14373
13289
12435
11764
11377
11124
11055
11082
11211
11366
11412
11488
11516
11613
11552
11747
11810
11832
11709
11770
11793
11817
11748
11732
11981
12402
12694
12937
12961
12737
12640
12543
12365
12205
12220
12169
11965
11698
13702
18330
24001
23086
9574
7697
9710
10765
11898
12631
13026
13239
13344
13498
13607
13902
14154
14376
14416
14658
15125
15565
15854
16228
16587
17018
17247
17231
17150
16963
16679
16034
15193
14112
12606
11870
11518
11240
11188
11084
11166
11049
11258
11441
11637
11679
11756
11841
11840
11769
11822
11815
12076
11969
11778
11820
12190
12665
12942
13154
13011
12881
12709
12615
12302
12267
12163
12079
11689
11919
14915
19978
25261
18829
7410
8884
10230
11307
12305
12923
13252
13292
13526
13683
13892
14090
14226
14321
14602
14914
15119
15675
16147
16446
16691
16957
17132
17306
17159
16879
16399
15716
14665
13736
12695
11973
11495
11318
10985
11046
11238
11429
11482
11509
11649
11748
11759
11775
11884
11853
11860
11802
11890
11684
11604
11761
12146
12520
12953
13100
13003
12872
12712
12548
12346
12116
12166
12252
11841
11931
14838
19996
25419
19648
7672
8842
10015
11305
12251
12730
12915
13229
13545
13666
13744
13821
14070
14330
14562
14706
15252
15552
15951
16310
16763
17090
17280
17165
17144
16806
16526
15810
14989
13927
12736
12002
11438
11253
11012
11319
11271
11454
11413
11493
11474
11557
11642
11663
11675
11778
11752
11766
11751
11891
11778
11785
11793
12106
12700
12932
13023
12885
12981
12714
12542
12316
12185
12131
12263
11944
11985
14857
20085
25576
19979
7573
8567
9925
11228
12344
12867
13076
13254
13499
13548
13735
13970
14133
14272
14543
14884
15262
15591
15886
16310
16728
17158
17268
17457
17228
17058
16598
15998
15027
14080
13071
12208
11662
11300
11063
11173
11329
11400
11482
11586
11684
11699
11782
11746
11790
11823
11818
11781
11891
11780
11931
11847
11749
12031
12531
12799
13067
13103
13037
12783
12669
12434
12200
12213
12244
11976
11819
14078
18906
24895
23777
9655
7845
9648
10832
11998
12739
13015
13195
13437
13550
13759
13989
14160
14340
14548
14836
15151
15596
15846
16291
16748
17176
17361
17498
17322
17161
16825
16230
15363
14329
13322
12381
11786
11350
11175
11034
11104
11218
11373
11365
11522
11555
11632
11664
11681
11615
11680
11671
11731
11808
11706
11638
11717
12042
12359
12748
12826
12723
12598
12513
12352
12137
12044
12109
11991
11697
12716
16547
21873
25037
14475
6772
9206
10164
11394
12255
12791
12962
13142
13192
13612
13791
13946
14047
14421
14599
14734
15125
15520
15885
16281
16740
16990
17206
17073
16836
16527
16163
15303
14423
13467
12583
11794
11410
11213
11120
11083
10991
11281
11526
11461
11528
11928
11944
11956
11862
11892
11843
11959
11860
11954
11885
12058
12329
12737
13056
13084
12929
12611
12498
12700
12856
12760
12700
12535
12929
15495
19879
24110
18721
7298
8411
10310
11340
12255
12889
13175
13176
13349
13605
13772
13896
14079
14201
14411
14682
14996
15420
15766
16247
16574
16877
16974
17035
16870
16633
16205
15530
14566
13564
12651
11962
11583
11340
11249
11130
11175
11272
11447
11532
11725
11710
11818
11798
11889
11933
12003
12056
12013
11955
12093
12307
12620
12825
12975
12895
12784
12529
12379
12292
12177
12229
12110
12161
12892
15701
19577
22720
16188
7567
8795
10492
11752
12627
13065
13286
13441
13570
13754
13818
13964
14017
14223
14377
14641
14838
15233
15571
15910
16235
16522
16651
16652
16532
16361
15969
15261
14424
13471
12803
12327
11979
11744
11681
11680
11765
11796
11793
11900
12030
12139
12303
12441
12484
12675
13003
13009
12657
12539
12478
12620
12668
13030
13087
13079
12897
12787
12582
12522
12454
12506
12463
12473
12934
15152
17978
20382
15251
8652
9783
10601
11579
12704
13214
13352
13523
13624
13811
13885
13927
14044
14286
14392
14683
14826
15080
15370
15585
15879
16129
16322
16251
16157
15959
15603
15000
14302
13505
12964
12407
12143
11934
11840
11818
11837
11933
12001
12063
12203
12329
12200
12203
12199
12352
12270
12422
12423
12419
12323
12378
12563
12807
13111
13174
13080
12968
12744
12607
12451
12417
12457
12489
12867
14301
16564
19097
16758
9424
9584
10906
11591
12482
13043
13138
13265
13344
13469
13623
13745
13894
13956
14153
14304
14589
14850
15235
15617
15967
16261
16491
16460
16447
16279
15883
15263
14500
13714
13001
12443
12057
11923
11826
11830
11806
11877
11885
11991
12044
12183
12228
12293
12302
12394
12403
12369
12349
12365
12457
12400
12424
12426
12555
12480
12519
12480
12760
13023
13329
13443
13408
13266
13088
12922
12737
12633
12686
12695
12744
13543
16139
19610
22162
16258
8009
9045
10571
11764
12647
13208
13380
13628
13772
13938
14019
14204
14303
14453
14648
14887
15173
15422
15810
16219
16709
17014
17232
17236
17202
16941
16598
15918
15061
14076
13190
12463
12002
11719
11536
11523
11580
11689
11769
11877
11871
11983
12018
12098
12041
12093
12067
12065
12086
12087
12055
12034
12097
12078
12133
12125
12079
11971
12117
12451
12951
13126
13095
12956
12900
12706
12629
12493
12528
12477
12241
11912
13984
18310
23438
23339
11123
7481
9726
10554
11629
12590
13085
13408
13537
13713
13822
14020
14115
14319
14510
14810
15068
15419
15788
16206
16688
17142
17469
17575
17629
17441
17173
16530
15671
14593
13548
12535
11868
11418
11247
11125
11171
11212
11267
11374
11452
11524
11556
11654
11668
11694
11656
11711
11690
11752
11751
11781
11789
11899
11796
11683
11718
12245
12571
12798
12835
12776
12688
12564
12466
12279
12260
12314
12220
11686
12921
16951
22318
25060
14264
6977
9189
10103
11353
12390
13005
13234
13395
13604
13733
13919
14071
14256
14388
14663
14896
15255
15625
16158
16639
17199
17541
17763
17778
17669
17400
16838
15984
14854
13743
12734
12051
11496
11311
11146
11194
11209
11313
11354
11476
11523
11587
11663
11698
11702
11726
11816
11817
11836
11817
11891
11870
11915
11975
12056
11942
11898
12131
12598
12834
13079
13030
13021
12851
12752
12527
12444
12423
12410
12088
11711
13734
18231
23919
23611
10840
7567
9571
10461
11771
12693
13200
13378
13645
13769
13921
14069
14268
14458
14649
14891
15156
15507
15855
16347
16741
17262
17624
17884
17897
17769
17401
16807
15855
14747
13596
12632
11878
11442
11259
11173
11114
11112
11199
11236
11365
11418
11544
11601
11708
11633
11624
11599
11650
11692
11712
11786
11803
11835
11907
11886
11969
11938
11869
11880
12231
12719
12980
13154
12986
12982
12803
12691
12517
12487
12483
12508
12163
11815
14084
18642
24284
22848
9894
7802
9638
10593
11865
12753
13194
13364
13604
13725
13895
14028
14240
14429
14627
14856
15155
15544
15930
16445
16864
17363
17732
17995
17984
17879
17509
16939
15965
14867
13651
12685
11990
11561
11325
11236
11272
11282
11350
11408
11538
11582
11664
11655
11767
11748
11830
11825
11867
11863
11898
11879
11946
11936
11961
11970
12085
12110
12166
12167
12224
12271
12197
12097
12327
12807
13100
13310
13207
13264
13178
13053
12800
12622
12555
12656
12489
12040
13100
17074
22507
25437
14942
7427
9402
10285
11631
12669
13290
13514
13741
13847
14003
14128
14265
14364
14530
14803
15023
15351
15642
16135
16588
17113
17508
17867
17986
18001
17752
17331
16534
15535
14352
13303
12443
11817
11501
11270
11229
11226
11342
11377
11504
11530
11578
11573
11672
11681
11745
11751
11808
11788
11883
11850
11909
11934
11984
11973
11985
12029
12101
12167
12195
12271
12277
12335
12359
12451
12469
12581
12480
12420
12723
13119
13364
13480
13473
13427
13389
13242
13036
12808
12795
12767
12613
12182
13547
17592
23204
25294
14067
7698
9640
10515
11777
12749
13236
13465
13662
13820
13888
14094
14158
14351
14531
14809
15045
15434
15758
16244
16628
17129
17523
17821
17917
17886
17575
17094
16223
15142
13993
12961
12178
11667
11385
11241
11253
11230
11355
11347
11456
11501
11531
11528
11637
11610
11687
11709
11742
11805
11856
11920
11894
11918
11889
11915
11916
12011
12003
12088
12069
12165
12143
12215
12231
12303
12332
12389
12428
12526
12603
12588
12633
12639
12742
12726
12795
12667
12603
12890
13355
13574
13747
13664
13594
13506
13356
13198
12979
12951
12959
12734
12294
13980
18263
23922
24693
12705
8164
9933
11327
12491
13134
13536
13717
13934
13978
14127
14206
14394
14556
14793
15042
15288
15622
15990
16502
16914
17400
17747
17988
17974
17949
17688
17269
16436
15435
14270
13197
12340
11739
11429
11248
11179
11146
11237
11250
11382
11437
11588
11609
11718
11679
11749
11757
11796
11720
11733
11744
11789
11821
11841
11878
11873
11876
11877
11985
11969
12078
12066
12192
12197
12294
12313
12385
12393
12391
12443
12491
12546
12562
12606
12640
12712
12608
12605
12933
13320
13518
13573
13506
13519
13354
13232
13017
12906
12865
12880
12363
12509
15490
20334
25684
20922
8764
8903
10152
11272
12414
13097
13416
13518
13697
13786
13970
14080
14283
14436
14642
14846
15158
15468
15831
16361
16787
17264
17625
17929
17943
17900
17582
17087
16239
15203
13980
12972
12094
11584
11269
11134
11063
11034
11090
11156
11274
11344
11472
11509
11629
11613
11717
11714
11729
11730
11800
11801
11870
11824
11869
11846
11918
11890
11952
12011
12074
12158
12169
12264
12317
12356
12363
12453
12462
12563
12559
12672
12579
12643
12654
12788
12794
12736
12695
13075
13472
13723
13802
13702
13668
13514
13350
13107
13000
12934
12940
12547
12604
15318
19992
25496
22123
9507
8855
10284
11418
12570
13283
13606
13738
13944
14030
14244
14292
14401
14527
14748
14985
15308
15650
16066
16466
16926
17462
17899
18244
18307
18208
17930
17534
16645
15169
13961
12951
12135
11673
11297
11183
11104
11129
11160
11295
11339
11460
11530
11613
11679
11690
11667
11687
11821
11887
11935
11919
11969
11905
11961
11920
11976
11995
12074
12088
12134
12157
12231
12280
12352
12432
12455
12524
12497
12556
12582
12678
12538
12491
12782
13211
13497
13644
13604
13649
13566
13404
13232
12987
12941
12920
12773
12418
13948
17946
23471
25096
13494
7896
9888
10788
12143
13088
13523
13625
13768
13955
14108
14190
14413
14585
14824
15048
15288
15607
15931
16418
16931
17499
17928
18313
18396
18339
18003
17582
16689
15568
14290
13139
12236
11656
11310
11181
11154
11105
11172
11166
11283
11358
11482
11501
11619
11639
11692
11735
11800
11822
11864
11836
11874
11907
11879
11889
11886
11967
11984
12075
12112
12172
12139
12275
12280
12369
12367
12406
12446
12458
12364
12466
12936
13318
13586
13566
13585
13517
13401
13174
13038
12857
12866
12720
12419
13403
17251
22443
25688
15687
7640
9473
10481
11771
12828
13337
13561
13798
13904
14066
14181
14391
14530
14781
14926
15231
15513
15889
16185
16721
17258
17819
18210
18420
18437
18310
17944
17228
16215
14964
13807
12700
11955
11444
11249
11077
11059
11085
11193
11240
11391
11460
11545
11625
11694
11801
11876
11918
11695
11747
11872
11981
11917
11974
12009
12104
12013
12083
12137
12120
12138
12181
12268
12344
12376
12473
12533
12279
12457
12941
13316
13458
13546
13472
13481
13208
12966
12621
12541
12665
12741
12428
12829
16291
21272
25882
19037
7834
8904
10202
11598
12444
13091
13499
13771
13956
14049
14033
14084
14314
14482
14722
15004
15464
15790
16123
16454
16974
17505
18102
18450
18563
18337
18016
17433
16483
15280
13983
12842
12068
11582
11249
11179
11170
11161
11159
11290
11358
11469
11473
11617
11613
11621
11657
11821
11891
11936
11942
11926
11987
12023
11924
11961
11930
12123
12180
12167
12202
12186
12359
12317
12252
12030
12479
13003
13308
13351
13329
13280
13193
12978
12846
12571
12546
12558
12386
12150
13509
17440
22835
25029
13476
7308
9338
10644
11889
12738
13202
13421
13484
13610
13961
14121
14207
14299
14547
14870
15122
15477
15960
16280
16793
17294
17844
18161
18297
18239
18030
17613
16887
15900
14766
13569
12616
11889
11409
11218
11075
11023
11062
11302
11257
11396
11572
11723
11757
11594
11679
11928
11962
11958
11862
11861
11817
11670
11822
11868
11867
11884
11697
12057
12301
12287
12247
12089
12127
12468
12993
13231
13368
13207
13223
13176
12944
12690
12609
12539
12535
12405
11882
13452
17696
23288
24998
12845
7348
9285
10254
11776
12971
13505
13612
13658
13862
14004
14068
14176
14404
14658
14936
15153
15445
15814
16323
16875
17344
17708
18159
18334
18290
18015
17526
16793
15931
14642
13417
12425
11547
11271
11104
11066
11152
11121
11237
11367
11470
11502
11467
11618
11679
11640
11665
11658
11613
11721
11655
11749
11904
11828
11756
11858
11985
11939
12073
11926
11960
12205
12743
13089
13191
13009
12973
12825
12831
12602
12446
12425
12345
12203
12187
14689
19131
24597
22323
9220
7970
9881
10722
11969
12859
13253
13336
13408
13726
14004
14093
14153
14230
14394
14611
14851
15205
15626
16160
16590
17084
17469
17660
17705
17714
17300
16495
15572
14469
13361
12307
11614
11228
11003
10935
10950
11041
11104
11149
11327
11423
11465
11530
11684
11652
11816
11908
11930
11948
12001
11976
11996
11980
12018
12004
12101
12112
12016
11982
12097
12718
13097
13169
13144
13139
12924
12762
12632
12459
12468
12467
12319
11984
13403
17486
22813
24843
13009
7109
9459
10326
11631
12621
13092
13250
13494
13611
13848
13987
14090
14239
14535
14826
15053
15353
15690
16189
16672
17208
17750
17970
17960
17773
17558
17017
16017
14884
13669
12762
11946
11486
11160
11082
11015
11083
11111
11090
11213
11339
11499
11544
11636
11632
11749
11780
11842
11725
11856
11851
11811
11689
11747
11863
12047
12032
11875
11920
12345
12843
13047
13092
13028
13072
12824
12729
12505
12397
12347
12292
11909
11850
14693
19340
24729
20861
8270
8531
10075
11178
12318
12929
13204
13202
13604
14046
14169
14154
14337
14498
14672
14913
15303
15733
16281
16672
17207
17727
18005
18140
18091
18003
17502
16725
15743
14695
13457
12418
11652
11336
11125
11094
11101
11153
11242
11331
11346
11412
11432
11538
11623
11639
11598
11642
11672
11678
11759
11767
11772
11691
11817
11814
11759
11774
12081
12532
12911
13059
12934
12940
12835
12661
12472
12369
12246
12299
12190
11759
12334
15831
20673
25160
17045
7009
8815
10022
11327
12296
12954
13179
13368
13522
13874
13900
14004
14135
14405
14738
15019
15341
15714
16082
16679
17115
17559
17810
18041
17975
17682
17137
16302
15281
14080
12966
12095
11531
11187
11022
10802
10954
11223
11390
11372
11494
11568
11624
11496
11661
11879
11812
11714
11712
11782
11769
11816
11799
11842
11657
11884
11960
12246
12612
12943
13004
12981
12809
12681
12616
12372
12235
12201
12257
12060
11935
14045
18425
23836
22904
9507
7565
9480
10731
12004
12846
13099
13254
13440
13652
13801
13925
14151
14430
14621
14873
15194
15519
15990
