11177
15521
15882
16279
16804
17219
17629
17813
17879
17776
17534
16933
16029
14866
13686
12659
11900
11457
11219
11156
11112
11182
11259
11403
11455
11555
11581
11661
11694
11747
11751
11798
11823
11811
11857
11841
11877
11877
11942
11926
11996
12025
12029
11870
12018
12446
12909
13119
13147
13115
13079
12946
12740
12539
12440
12485
12442
11999
12180
15379
20267
25578
19049
7991
9385
10556
11556
12489
13078
13361
13543
13707
13870
13959
15837
16241
16705
17108
17566
17822
17991
17936
17793
17403
16699
15642
14537
13317
12411
11790
11449
11291
11182
11151
11174
11262
11334
11444
11468
11564
11589
11664
11691
11747
11723
11780
11787
11782
11760
11784
11812
11863
11908
11938
11991
11917
11820
12136
12626
12910
13072
13029
13021
12866
12713
12537
12389
12413
12450
12295
11804
13102
17164
22613
25158
13313
7748
9886
10734
11833
12673
13117
13301
13518
13715
13900
14021
15928
16360
16806
17293
17672
17906
17896
17814
17547
17124
16237
15142
13909
12869
12006
11505
11172
11084
11021
11061
11132
11206
11325
11389
11479
11510
11623
11646
11680
11640
11700
11712
11744
11734
11802
11821
11838
11840
11844
11963
11959
11857
11813
12269
12681
12983
13037
13041
12974
12871
12669
12506
12345
12367
12409
12129
11887
14116
18635
24215
23149
9818
8469
10185
11142
12102
12872
13120
13326
13440
13645
13789
13978
14080
16377
16835
17269
17583
17770
17799
17669
17399
16760
15834
14644
13484
12417
11699
11209
11006
10916
10912
10894
10982
11081
11201
11208
11310
11415
11458
11511
11505
11512
11513
11629
11641
11643
11618
11652
11625
11776
11839
11809
11725
11958
12391
12733
13007
12920
12906
12803
12676
12507
12385
12311
12375
12208
11883
12851
16616
21519
24855
15069
7332
9684
10578
11539
12418
13012
13248
13489
13581
13739
13867
14049
14198
14440
17168
17587
17791
17882
17758
17563
17072
16231
15149
13931
12879
12043
11547
11187
11062
10958
11005
11063
11240
11325
11424
11512
11635
11681
11755
11797
11806
11841
11825
11880
11841
11828
11797
11840
11854
11965
11887
11795
11962
12438
12777
12984
12971
12950
12852
12658
12545
12364
12356
12366
12318
11839
12736
16393
21627
25566
15824
7646
9737
10615
11648
12535
12997
13191
13357
13549
13720
13925
14106
14299
14447
14724
14951
15274
17915
17831
17573
17130
16273
15203
14035
12962
12114
11589
11322
11185
11091
11071
11192
11303
11408
11479
11562
11596
11658
11661
11709
11728
11776
11785
11841
11862
11890
11903
11865
11906
11966
12091
12011
11981
11896
12281
12668
12969
12984
13008
12988
12839
12699
12504
12372
12388
12461
12176
11904
14118
18652
24271
23259
9906
8620
10211
11270
12200
12909
13215
13432
13633
13773
13890
14057
14252
14409
14632
14814
15133
15422
17930
17776
17506
16837
15933
14751
13623
12576
11856
11420
11220
11090
11068
11095
11150
11243
11289
11413
11466
11569
11598
11698
11666
11766
11732
11764
11767
11818
11822
11812
11818
11884
11903
11959
12006
11846
11833
12238
12698
12977
13101
13037
12991
12836
12721
12519
12462
12436
12470
12150
11852
13994
18498
24111
23536
10178
8341
10131
11107
12084
12800
13158
13280
13517
13684
13895
14049
14214
14367
14570
14832
15104
15454
17974
17837
17534
16946
15945
14800
13591
12591
11810
11424
11144
11074
11020
11086
11141
11221
11339
11413
11528
11582
11620
11618
11694
11682
11735
11697
11746
11730
11782
11827
11919
11844
11873
11927
11987
11987
11866
12090
12564
12971
13153
13218
13076
13009
12769
12674
12501
12489
12461
12364
11905
12593
16140
21200
25426
16971
7528
9489
10499
11483
12464
12981
13254
13408
13629
13799
13971
14070
14270
14427
14636
14894
15216
15555
17842
17585
17128
16392
15251
14053
12908
12056
11475
11204
11021
11011
10960
11013
11085
11185
11290
11404
11476
11542
11637
11652
11729
11740
11782
11741
11721
11771
11829
11820
11844
11894
11893
11761
11755
12171
12631
12875
12926
12912
12880
12774
12578
12446
12326
12408
12389
12146
11899
14284
18856
24324
22424
9408
8664
10308
11227
12143
12846
13125
13367
13558
13749
13852
13972
14106
14350
14508
14788
15042
15357
15737
16168
17360
16710
15707
14444
13260
12285
11662
11300
11138
10969
10973
11013
11159
11240
11362
11416
11516
11550
11624
11651
11722
11745
11765
11789
11734
11786
11774
11830
11841
11938
11942
12010
12073
12057
11931
12035
12436
12856
13093
13162
13157
13134
13068
12886
12691
12519
12552
12600
12264
12061
14701
19353
25045
22165
9126
8992
10342
11387
12311
12943
13140
13400
13549
13741
13870
14059
14173
14385
14574
14857
15062
15388
15753
16257
17525
16845
15749
14563
13408
12475
11831
11395
11210
11028
11067
11071
11222
11295
11408
11439
11519
11549
11628
11649
11712
11712
11754
11779
11768
11783
11814
11845
11852
11936
11936
11952
11988
12039
11895
11901
12271
12766
13026
13146
13146
13140
13008
12815
12657
12482
12531
12523
12274
11874
13868
18301
23959
24011
10655
8201
9998
11013
12102
12848
13122
13338
13518
13703
13818
13970
14105
14344
14529
14831
15057
15391
15762
17894
17548
16977
16027
14901
13680
12609
11827
11360
11121
10988
10981
11001
11094
11171
11324
11356
11450
11448
11577
11597
11677
11665
11708
11733
11771
11778
11800
11813
11866
11924
11878
11949
11941
12047
11969
11917
12023
12486
12801
13050
13076
13084
13055
12872
12710
12517
12465
12463
12494
12127
12438
15519
20394
25290
19522
7952
9278
10471
11470
12401
13064
13312
13487
13668
13843
14011
14129
14312
14457
14682
14934
15270
15537
17840
17671
17310
16538
15544
14356
13269
12331
11697
11347
11183
11084
11053
11133
11156
11250
11323
11441
11501
11588
11631
11730
11722
11745
11683
11745
11734
11801
11841
11838
11856
11874
11917
11968
11957
11890
11871
12202
12694
12936
13069
13042
13042
12864
12700
12544
12437
12433
12444
12188
11961
14269
18653
24178
22780
9665
8440
10291
11135
12132
12850
13176
13339
13562
13742
13897
14056
14188
14371
14587
14889
15093
15428
17947
17771
17371
16821
15838
14668
13498
12558
11803
11351
11146
11091
11069
11109
11204
11259
11402
11475
11590
11652
11692
11677
11729
11753
11798
11756
11846
11871
11893
11928
11972
12011
12059
12084
12146
12146
12004
11994
12402
12851
13093
13172
13141
13170
13014
12856
12606
12518
12503
12524
12205
11926
14174
18650
24456
23021
9826
8846
10342
11326
12318
12934
13270
13412
13608
13757
13835
13901
13999
14165
14597
15074
15322
17225
16232
15134
13923
12843
11992
11496
11227
11075
11040
11005
11077
11193
11317
11382
11514
11519
11626
11608
11683
11664
11681
11736
11816
11782
11794
11840
11850
11853
11882
11951
11942
12049
12057
12010
11899
12296
12691
13021
13125
13119
13081
12961
12777
12571
12455
12430
12508
12230
11890
13704
18073
23619
24310
11071
8269
10109
11073
12096
12817
13109
13320
13502
13658
13833
13970
14163
14283
14522
14739
15044
15316
15728
16118
17675
17046
16160
14975
13814
12752
11959
11440
11175
11032
10994
11060
11117
11197
11260
11382
11425
11527
11554
11643
11655
11682
11695
11726
11707
11721
11745
11790
11822
11827
11908
11947
11973
12048
12074
11951
11970
12303
12761
13007
13131
13060
13041
12905
12721
12544
12444
12442
12439
12188
11952
14210
18662
24129
22770
9805
8333
10157
10988
12094
12846
13174
13343
13532
13664
13807
14013
14181
14366
14550
14845
15057
15339
17822
17681
17273
16723
15693
14614
13467
12506
11784
11382
11156
11083
10985
11007
11103
11209
11289
11394
11474
11507
11597
11672
11738
11741
11811
11726
11776
11761
11779
11805
11843
11843
11884
11941
11910
11861
11888
12343
12655
12929
12956
12934
12807
12729
12572
12407
12325
12436
12395
12125
12280
14930
19299
23851
19582
8181
8634
10387
11343
12181
12977
13314
13509
13642
13787
13877
14038
14193
14357
14554
14757
15015
15321
15695
17397
17062
16320
15287
14213
13238
12359
11847
11438
11308
11227
11270
11270
11331
11515
11552
11626
11669
11709
11790
11885
11907
12002
11959
11974
12000
12037
11975
12016
12058
12150
12059
11952
12047
12520
12905
13029
13097
12982
12901
12697
12605
12423
12448
12464
12414
11983
12494
15666
20405
24938
16815
7721
9536
10759
11726
12576
13063
13287
13446
13700
13823
13986
14094
14254
14388
14613
14836
15106
15431
15811
16269
16717
16076
15004
13921
12892
12181
11651
11374
11175
11194
11182
11275
11348
11491
11526
11618
11699
11772
11858
11917
11948
11956
11975
11971
11973
11943
12002
12026
12106
12128
12174
12043
11976
12225
12697
12995
13172
13137
13103
13006
12844
12700
12539
12551
12495
12364
11829
13097
17108
22498
25395
14174
8262
10224
11057
11961
12698
13095
13321
13450
13607
13752
13979
14102
14286
14436
14670
14884
15242
15553
16000
16470
16946
17372
15036
13842
12766
11954
11494
11219
11032
11051
11048
11138
11182
11302
11358
11487
11571
11680
11675
11720
11713
11757
11768
11816
11835
11851
11950
11933
11964
11910
11974
11890
11857
11982
12471
12817
13074
13038
13054
13004
12821
12600
12422
12386
12419
12395
11966
12279
15480
20653
25743
19845
8126
9303
10304
11463
12359
12952
13195
13352
13500
13714
13856
14009
14266
14379
14573
14769
15079
15451
15954
16265
16747
17183
17556
17710
13185
12207
11547
11150
11052
11017
11083
11085
11095
11222
11293
11422
11532
11611
11640
11708
11651
11679
11670
11800
11723
11694
11692
11735
11806
11807
11878
12064
12027
11829
11827
12222
12634
12823
12909
12899
12920
12704
12591
12344
12305
12357
12429
12038
12066
14873
19537
24843
21507
8714
8721
10192
11230
12267
12860
13173
13330
13519
13776
14022
14052
14216
14374
14578
14862
15116
15397
15789
16278
16738
17256
17650
17949
13387
12412
11672
11304
11024
10994
11025
11089
11185
11224
11284
11364
11423
11446
11542
11609
11646
11636
11731
11699
11702
11655
11783
11774
11801
11821
11789
11715
11757
12151
12539
12835
12827
12815
12761
12651
12482
12291
12199
12311
12357
12085
11945
14372
18986
23883
22158
9637
8207
10210
10854
11866
12613
12972
13211
13351
13613
13731
13894
14040
14279
14473
14764
15029
15412
15822
16276
16767
17237
17665
17848
17954
17847
17662
11369
11216
11054
11012
11134
11240
11229
11359
11406
11499
11581
11656
11707
11739
11792
11814
11861
11833
11914
11850
11882
11936
11918
11783
11812
12130
12627
12891
12982
12890
12854
12744
12564
12405
12267
12326
12326
12148
11668
13129
17414
22741
24975
13532
7781
9862
10565
11797
12562
13007
13266
13426
13600
13756
13943
14129
14315
14470
14781
15014
15314
15633
16147
16547
17053
17461
17781
17922
17927
17783
17337
16549
15442
10946
10923
10976
11066
11332
11430
11500
11490
11574
11658
11770
11754
11762
11769
11803
11809
11851
11926
12011
11943
11801
11864
12036
12502
12811
13007
12946
12928
12793
12672
12500
12353
12297
12305
12218
11729
12391
16081
21278
25616
17411
7554
9299
10278
11510
12425
12977
13201
13400
13570
13738
13891
14056
14150
14276
14540
14772
15156
15492
15938
16517
17100
17453
17799
17926
17972
17850
17558
16875
15828
14643
13422
12441
11157
11197
11300
11390
11458
11544
11519
11609
11644
11704
11662
11694
11716
11821
11798
11789
11831
11874
11813
11727
12006
12470
12866
13007
12992
12947
12877
12673
12535
12346
12394
12378
12299
11776
12473
16238
21510
25637
16727
7443
9199
10197
11433
12389
12899
13188
13374
13620
13734
13926
14048
14244
14421
14642
14914
15229
15592
15984
16495
16997
17492
17824
18037
18029
17943
17542
16911
15818
14637
13385
12378
11646
11255
11095
11498
11565
11618
11699
11803
11758
11702
11746
11744
11792
11742
11799
11790
11832
11872
11910
11822
11764
11964
12417
12723
12908
12921
12888
12837
12644
12540
12361
12365
12354
12312
11737
12152
15592
20758
25473
18731
8021
9219
10065
11129
12181
12809
13157
13355
13568
13654
13838
13944
14156
14311
14570
14803
15157
15468
15905
16409
16910
17495
17818
17959
17999
17890
17555
16926
15862
14666
13419
12441
11674
11288
11059
11031
11473
11562
11577
11634
11681
11675
11717
11723
11744
11772
11827
11847
11893
11879
11953
11872
11815
11913
12397
12730
12950
12939
12958
12884
12711
12597
12454
12427
12445
12466
11922
11815
14675
19638
24955
21076
8893
9067
10267
11112
12111
12842
13169
13375
13550
13693
13827
13998
14202
14361
14585
14844
15134
15419
15856
16264
16794
17275
17745
17923
17965
17842
17611
17053
16087
14871
13630
12635
11805
11404
11149
11072
11008
11067
11641
11755
11728
11783
11811
11889
11870
11919
11900
11924
12010
12000
12063
12072
12114
12142
12145
12021
12161
12583
13002
13173
13220
13146
13162
12936
12765
12572
12528
12549
12533
12079
11816
14597
19416
25154
21943
9462
8993
10196
11262
12277
12924
13247
13388
13583
13784
13940
14127
14277
14441
14565
14812
15100
15511
15854
16293
16741
17335
17775
18097
18162
18119
17862
17336
16406
15194
13956
12825
12008
11438
11200
11036
11475
11475
11560
11590
11642
11661
11738
11722
11814
11786
11824
11865
11908
11957
11961
12052
12046
12067
12102
12230
12262
12316
12350
12345
12179
12386
12794
13157
13293
13318
13331
13276
13133
12949
12776
12676
12699
12590
12172
11900
14591
19294
25072
22679
10037
9084
10320
11377
12402
12996
13274
13496
13652
13824
13952
14100
14210
14398
14556
14846
15105
15474
15845
16328
16771
17307
17751
18015
18153
18111
17905
17430
16671
11054
11024
11011
11116
11202
11314
11350
11465
11495
11559
11600
11636
11652
11691
11701
11726
11759
11780
11808
11812
11829
11822
11874
11892
11977
12005
12068
12053
12169
12216
12254
12277
12244
12124
12295
12713
13094
13240
13242
13314
13281
13191
13000
12848
12683
12738
12717
12332
11907
14143
18777
24507
23873
11289
9090
10281
11145
12257
12952
13236
13483
13630
13806
13931
14111
14186
14349
14531
14766
15037
15378
15727
16156
16655
17283
16354
15134
13864
12731
11903
11363
11139
10931
10918
10900
11021
11157
11263
11319
11421
11458
11492
11518
11574
11648
11642
11666
11651
11699
11720
11748
11728
11789
11822
11901
11883
11947
11985
12059
12095
12059
12005
12115
12589
12890
13117
13116
13107
13077
12951
12806
12682
12558
12591
12507
12002
11882
14783
19703
25139
21439
9225
9288
10374
11257
12239
12963
13267
13487
13639
13841
13977
14176
14309
14439
14600
14842
17981
18163
18182
18025
17663
16953
15893
14609
13407
12376
11720
11332
11169
11007
11015
11005
11078
11164
11292
11355
11457
11621
11670
11668
11678
11710
11709
11726
11718
11788
11778
11856
11848
11916
11926
12013
11988
12006
12040
12104
12200
12150
12062
12256
12803
13112
13204
13129
13167
13119
13046
12902
12763
12573
12583
12515
12025
11962
14902
19746
25300
21030
8980
9290
10380
11511
12439
13083
13320
13527
13671
13880
14043
14126
16029
16519
17029
17515
17881
18078
18129
17977
17694
17013
15949
14674
13504
12447
11734
11279
11151
11013
11000
10984
11064
11151
11250
11321
11400
11486
11550
11618
11587
11655
11668
11731
11717
11776
11803
11858
11865
11916
11916
11950
11986
12055
12135
12107
12037
11945
12303
12717
12997
13073
13121
13094
13049
12857
12729
12512
12519
12528
12440
11910
12533
16190
21394
25755
16973
8081
9623
10605
11809
12673
13157
13312
13481
14861
15030
15363
15751
16201
16661
17206
17670
18020
18195
18171
17995
17543
16729
15542
14363
13102
12149
11496
11228
11027
10973
10931
10979
11060
11168
11266
11391
11509
11521
11561
11561
11644
11652
11747
11700
11737
11717
11769
11805
11871
11858
11907
11916
11942
12001
11958
11890
11831
12287
12717
13015
13100
13126
13073
13004
12785
12646
12524
12512
12536
12316
11722
12998
17141
22624
25220
13973
8222
9895
10801
11938
12729
14230
14355
14502
14810
15058
15431
15767
16261
16758
17327
17765
18083
18236
18187
17938
17419
16535
15319
14093
12854
11958
11356
11099
10924
10882
10970
10984
11062
11154
11239
11313
11451
11518
11617
11605
11688
11645
11714
11694
11764
11755
11786
11793
11830
11803
11894
11887
11846
11760
12002
12506
12794
12941
12892
12879
12825
12717
12532
12426
12349
12416
12250
11764
12413
16142
21195
25264
16713
7896
9736
10392
11491
12360
12958
14288
14481
14660
14962
15239
15632
16034
16592
17102
17572
17889
18062
17991
17774
17307
16412
15280
13998
12853
11983
11440
11074
10964
10847
10878
10891
11040
11126
11267
11346
11449
11486
11544
11600
11623
11702
11723
11795
11769
11802
11783
11855
11901
12003
12006
12065
11953
11825
11968
12445
12838
13026
13059
13025
12995
12837
12677
12444
12451
12425
12412
11894
11997
15063
19927
25362
19881
8546
9531
10502
11626
12523
13023
14324
14449
14696
14940
15294
15594
16047
16503
17046
17517
17869
18018
18065
17898
17566
16792
15768
14534
13292
12315
11626
11290
11086
11023
10981
11075
11159
11245
11255
11378
11417
11519
11608
11637
11716
11686
11704
11738
11814
11794
11838
11808
11866
11847
11941
12024
12025
11865
11812
12217
12742
13032
13116
13114
13099
12991
12776
12570
12385
12405
12412
12194
11633
13164
17366
22973
24973
13015
8230
9903
10874
12032
12787
13150
14366
14556
14844
15112
15482
15814
16286
16749
17344
17766
18064
18151
18133
17877
17347
16362
15177
13935
12788
11931
11382
11174
11032
11012
10990
11086
11192
11331
11357
11458
11472
11597
11607
11696
11724
11734
11748
11726
11814
11814
11835
11847
11903
11921
11970
12038
12081
11954
11941
12304
12772
13002
13088
13072
13031
12935
12778
12644
12485
12477
12495
12292
11707
13081
17204
22777
25137
13493
8131
9930
10843
12066
12837
14171
14338
14499
14731
15043
15444
15827
16296
16753
17318
17745
18129
18251
18158
17876
17366
16442
15261
13968
12825
11931
11374
11061
10941
10933
10890
11006
11084
11236
11286
11401
11436
11535
11613
11715
11687
11712
11721
11735
11707
11677
11771
11820
11801
11761
11831
11893
11934
11845
11854
12210
12692
12961
13035
12963
12970
12851
12728
12526
12427
12433
12419
12167
11787
13797
18185
23502
23637
11316
8335
10265
10868
11969
14025
14231
14372
14623
14884
15186
15544
15940
16387
16844
17366
17718
18016
18096
18003
17744
17145
16121
14934
13732
12651
11852
11402
11167
11048
10991
11004
11127
11203
11322
11369
11491
11565
11692
11692
11740
11756
11832
11819
11832
11832
11895
11902
11908
11935
11901
11994
12028
12014
11854
12110
12578
12951
13049
13083
13024
13004
12793
12644
12485
12485
12564
12472
11903
12301
15831
20921
25759
17839
8140
9638
10570
11662
12542
14156
14341
14495
14699
14934
15244
15617
16088
16608
17121
17589
17890
18086
18030
17865
17418
16658
15491
14260
13028
12134
11514
11194
11021
10955
10986
11067
11169
11203
11301
11342
11466
11502
11613
11584
11671
11674
11766
11781
11796
11805
11853
11864
11875
11890
11930
11965
12039
12123
12019
11974
12156
12603
12920
13157
13106
13146
13086
12939
12719
12560
12521
12553
12543
12018
12215
15270
20228
25550
19632
8303
9377
10403
13944
14047
14239
14386
14615
14808
15080
15328
15704
16122
16600
17181
17653
18008
18151
18213
18017
17707
16980
15929
14655
13491
12478
11815
11357
11144
11024
11041
11048
11093
11206
11267
11411
11432
11567
11623
11673
11620
11746
11747
11751
11747
11811
11790
11822
11819
11866
11858
11864
11964
11992
12094
12147
12061
11907
12294
12682
13032
13144
13199
13183
13103
12874
12768
12583
12514
12547
12428
11902
12507
16171
21406
25790
13207
13403
13506
13717
13824
13994
14092
14337
14514
14774
15044
15355
15706
16110
16632
17153
17658
17979
18142
18066
17944
17493
16790
15689
14480
13190
12277
11617
11219
11003
10989
10999
11038
11112
11135
11268
11324
11461
11513
11622
11666
11726
11700
11781
11723
11719
11724
11765
11788
11809
11801
11820
11911
11942
12054
12086
12189
12171
12076
11981
12448
12837
13116
13154
13167
13132
13052
12888
12689
12551
12508
12591
12314
11951
10470
11480
12381
12979
13192
13423
13525
13699
13800
14007
14160
14390
14588
14884
15114
15423
15831
16264
16813
17303
17719
17922
18015
17895
17738
17211
16354
15134
13934
12767
11890
11371
11080
10954
10922
10943
10975
11109
11223
11340
11391
11475
11502
11603
11572
11651
11661
11675
11679
11707
11715
11760
11787
11819
11846
11870
11966
12004
12057
11999
11907
12131
12644
12948
13153
13091
13139
13073
12864
12680
12497
12454
12471
10436
8580
10217
11109
12177
12897
13232
13409
13632
13766
13966
14054
14247
14349
14574
14774
15019
15344
15716
16175
16665
17204
17654
18031
18187
18195
17952
17526
16701
15614
14301
13158
12146
11518
11193
11022
10969
10985
11092
11130
11188
11248
11382
11459
11562
11542
11639
11661
11725
11712
11732
11699
11729
11757
11797
11839
11896
11934
11967
12053
12038
12159
12113
12094
12032
12430
12822
13130
13190
13210
13164
13074
12905
15198
20010
25474
20286
8486
9235
10345
11573
12437
13039
13251
13449
13598
13809
13929
14055
14203
14429
14605
14899
15163
15482
15900
16327
16821
17293
17818
18088
18215
18125
17939
17411
16564
15309
14094
12878
12008
11423
11134
10994
10941
10941
10999
11147
11241
11390
11431
11512
11554
11754
11667
11650
11640
11709
11727
11782
11783
11804
11818
11825
11876
11877
11942
11938
12029
12055
12121
12031
11996
12285
12780
13024
13206
12622
12648
12243
11941
14166
18744
24364
23401
10515
8695
10193
11154
12290
12898
13260
13421
13595
13687
13889
14023
14220
14380
14596
14837
15095
15417
15797
16289
16745
17295
17702
18103
18231
18238
18021
17618
16783
15659
14370
13183
12214
11565
11175
10978
10904
10910
11016
11082
11150
11208
11388
11466
11536
11520
11635
11630
11700
11687
11725
11719
11699
11721
11786
11827
11796
11851
11892
11956
12008
12039
11922
11958
12351
12847
12497
12555
12522
12419
11875
12347
15717
20641
25324
18137
7921
9496
10531
11503
12433
12988
13277
13399
13605
13732
13918
14022
14209
14392
14598
14828
15141
15488
15873
16394
16907
17471
17855
18119
18140
18063
17736
17224
16273
15137
13854
12791
11940
11422
11125
10999
10985
11009
11139
11147
11259
11419
11549
11553
11651
11682
11729
11713
11786
11785
11837
11802
11838
11903
11873
11890
11874
11944
11957
11990
12024
12093
11968
13132
12926
12800
12567
12528
12539
12576
12085
12114
15146
19981
25434
20188
8527
9301
10428
11526
12458
12986
13307
13430
13630
13773
13947
14059
14209
14360
14560
14787
15102
15484
15849
16333
16829
17343
17735
18052
18142
18130
17862
17401
16511
15341
14077
12930
12011
11473
11154
11013
10986
10959
10993
11058
11231
11320
11448
11472
11544
11560
11680
11672
11715
11707
11742
11776
11773
11802
11801
11823
11918
12004
11981
11972
12027
13175
13094
13098
12954
12830
12624
12552
12563
12608
12202
11932
14430
19120
24829
22489
9443
8702
10232
11378
12376
12958
13272
13410
13626
13781
13973
14053
14221
14367
14601
14824
15107
15464
15844
16292
16739
17279
17661
18018
18198
18193
17977
17553
16814
15656
14343
13126
12121
11458
11122
10958
10925
10931
11029
11065
11156
11217
11346
11412
11526
11543
11654
11639
11683
11674
11711
11732
11782
11827
11879
11890
11855
11876
13218
13153
13022
12866
12754
12581
12536
12543
12511
11964
12307
15641
20741
25658
18589
7979
9399
10434
11656
12465
13003
13177
13432
13580
13737
13898
14034
14236
14383
14607
14807
15167
15494
15922
16359
16862
17366
17852
18098
18234
18139
17858
17345
16420
15232
13951
12814
11921
11449
11093
11012
10929
10938
10998
11132
11242
11317
11360
11422
11452
11516
11574
11592
11617
11621
11667
11627
11664
11688
11690
11687
11773
11807
12892
12980
12990
12985
12913
12706
12586
12421
12414
12426
12244
11737
12745
16616
21717
25079
15157
7755
9873
10580
11630
12543
13054
13296
13416
13600
13801
13926
14057
14263
14444
14673
15005
15247
15551
15927
16462
16931
17463
17778
18024
18044
17906
17608
17022
15986
14793
13619
12558
11803
11336
11156
11044
11060
11041
11174
11262
11344
11391
11552
11611
11669
11731
11809
11834
11830
11860
11855
11900
11990
12061
11997
11985
11955
12985
13100
13118
13071
13059
12892
12738
12532
12514
12559
12455
11902
12241
15763
20921
25799
18035
8074
9600
10621
11730
12552
13001
13262
13483
13769
13806
13895
14037
14232
14420
14615
14856
15140
15502
15888
16359
16850
17399
17768
18027
18095
18038
17763
17226
16216
14978
13731
12629
11840
11345
11122
10974
10959
10925
11018
11095
11203
11288
11409
11434
11534
11565
11707
11731
11745
11750
11743
11782
11772
11833
11807
11845
12521
12893
13080
13099
13033
13057
12883
12771
12504
12435
12460
12500
12084
11847
14522
19278
24993
21929
9072
8808
10154
11288
12309
12909
13203
13411
13602
13714
13899
14012
14188
14367
14550
14785
15076
15437
15796
16282
16793
17354
17759
18056
18147
18120
17895
17475
16594
15428
14152
13014
12052
11476
11158
11003
10968
10941
11011
11084
11186
11243
11389
11484
11588
11552
11596
11581
11686
11681
11695
11688
11722
11737
11793
11847
12122
12035
12181
12603
12934
13180
13201
13224
13113
12965
12770
12638
12518
12563
12526
12065
12114
15120
19999
25496
21021
8808
9276
10366
11549
12409
13028
13231
13419
13544
13738
13880
14050
14149
14294
14509
14761
15078
15402
15810
16211
16722
17241
17747
17983
18130
18032
17863
17309
16448
15299
14119
12993
12072
11464
11131
10986
10890
10937
10980
11119
11189
11319
11335
11444
11492
11588
11604
11637
11655
11690
11665
11717
11885
11846
11804
11916
12343
12705
12937
12950
12908
12888
12798
12611
12472
12349
12437
12423
12068
11812
14294
18924
24226
22445
9771
8591
10267
11058
12056
12834
13220
13463
13520
13667
13821
13982
14135
14319
14468
14733
15011
15302
15685
16127
16662
17146
17627
17898
18057
18003
17789
17286
16472
15370
14194
13002
12175
11577
11248
11054
10978
11015
11076
11149
11235
11322
11397
11551
11610
11711
11711
11834
11827
11873
11856
11904
12071
12158
12139
12035
12008
12388
12846
13072
13191
13192
13179
12989
12857
12652
12532
12499
12552
12178
11709
13502
17940
23730
24430
11711
8539
10145
11097
12167
12805
13120
13281
13481
13643
13789
13909
14084
14218
14478
14685
14961
15301
15674
16089
16542
17059
17505
17875
18034
18088
17861
17470
16723
15692
14425
13248
12240
11611
11230
11043
10954
10919
10966
11030
11163
11349
11430
11421
11503
11570
11649
11648
11696
11702
11911
11906
11971
11984
12119
12132
12046
11981
12307
12759
13065
13180
13175
13147
13025
12915
12668
12524
12450
12544
12334
11809
12975
17059
22584
25620
14619
8026
9794
10771
11992
12728
13128
13317
13535
13610
13810
13964
14124
14274
14443
14625
14917
15191
15561
15970
16455
16991
17470
17837
18171
18162
17931
17645
16977
16008
14763
13580
12483
11748
11289
11051
10907
10885
10913
11025
11169
11246
11359
11389
11488
11536
11599
11781
11832
11820
11885
11897
11993
12016
12063
12082
12146
12178
12132
12069
12330
12769
13060
13238
13242
13210
13148
13036
12835
12697
12627
12695
12572
12036
12586
16126
21341
25835
17814
8101
9670
10549
11821
12655
13167
13293
13500
13631
13766
13877
14071
14221
14429
14597
14838
15133
15482
15887
16343
16929
17396
17821
18021
18126
18006
17763
17196
16334
15122
13932
12785
11952
11404
11131
11034
10986
11038
11075
11180
11213
11413
11794
11792
11708
11770
11709
11785
11785
11897
11870
11880
11938
12016
11973
11881
11891
12284
12724
12980
13108
13049
13077
12956
12811
12614
12571
12561
12567
12196
11842
13783
18303
23734
23851
11218
8370
10187
10865
12015
12771
13202
13378
13570
13695
13884
13984
14158
14310
14512
14773
15048
15341
15700
16141
16592
17123
17541
17912
18035
18049
17790
17411
16581
15689
14373
13137
12172
11611
11249
11078
11028
10997
10999
11091
11720
11696
11735
11741
11797
11766
11851
11859
11896
11900
11971
11967
12022
12057
12080
11992
11907
12237
12669
12989
13083
13133
13089
13043
12843
12746
12541
12537
12554
12412
11816
12724
16588
22089
25770
15632
8112
9811
10759
11935
12761
13165
13379
13547
13717
13822
14067
14249
14403
14514
14793
15048
15354
15654
16035
16576
17063
17579
17974
18231
18267
18145
17762
17132
16047
14851
13616
12568
11788
11338
11104
11041
10948
11699
11644
11611
11651
11654
11650
11652
11733
11726
11761
11716
11806
11837
11927
11956
12012
12077
12074
11948
12050
12473
12877
13112
13105
13114
13068
12961
12782
12624
12515
12586
12568
12220
11904
14343
19012
24708
22808
9673
8724
10222
11331
12285
12916
13164
13449
13571
13726
13859
14039
14165
14366
14562
14811
15063
15394
15801
16267
16764
17268
17746
18065
18223
18152
17986
17508
16738
15539
14331
13128
12212
11502
11176
11041
11343
11422
11505
11536
11629
11678
11644
11685
11731
11758
11750
11814
11793
11869
11865
11884
11930
11930
11855
11872
12242
12684
12948
13013
12990
12946
12851
12700
12568
12439
12447
12405
12162
11714
13697
18180
23634
24087
11493
8207
10074
10762
11893
12690
13090
13323
13420
13614
13746
13920
14019
14207
14366
14621
14898
15208
15565
16052
16545
17051
17519
17828
17990
18008
17806
17404
16637
15492
14235
13030
12120
11480
11153
11318
11400
11442
11543
11559
11630
11670
11723
11786
11819
11879
11876
11892
11874
11910
11964
12040
11928
11841
11881
12377
12787
13025
13090
13079
13016
12839
12661
12432
12389
12389
12428
12024
11730
14076
18785
24399
22717
9701
8734
10165
11207
12159
12828
13146
13369
13594
13728
13852
14003
14210
14446
14681
14809
15053
15374
15799
16231
16743
17345
17714
17956
18147
18049
17801
17317
16420
15271
14026
12927
12027
11489
11139
11023
11972
11995
12029
12055
11944
11843
12116
12669
13002
13157
13087
13104
12998
12894
12705
12548
12504
12575
12498
11911
12325
15885
21057
25794
17751
8021
9528
10472
11775
12559
13057
13255
13492
13621
13815
13984
14109
14269
14423
14640
14906
15223
15572
16034
16512
17026
17474
17897
18115
18206
18075
17833
17205
16218
14981
13741
12632
11861
11406
11094
10971
10916
10934
10968
11146
11186
11344
11428
11536
11549
11599
11615
11676
11901
11934
11933
12022
11932
11825
11918
12332
12793
12987
13052
13009
13017
12795
12652
12475
12404
12427
12501
12064
11830
14197
18797
24530
23218
9926
8516
10122
11219
12248
12822
13141
13301
13539
13604
13805
13936
14118
14243
14437
14711
15023
15341
15751
16167
16598
17200
17653
18011
18082
18096
17867
17410
16582
15486
14189
13003
12043
11438
11124
10972
10892
10912
10983
11035
11167
11239
11345
11430
11562
11598
11680
11675
11879
11813
11842
11940
11940
11858
11829
12205
12639
12932
13001
12996
12943
12869
12680
12563
12408
12418
12401
12173
11662
13346
17773
23220
24776
12684
8221
10069
10725
11799
12596
12990
13224
13397
13606
13707
13890
14056
14245
14396
14687
14939
15309
15664
16026
16527
16976
17454
17785
17961
17914
17768
17279
16538
15431
14280
13084
12137
11468
11152
11005
10905
10844
10950
11068
11141
11251
11351
11468
11537
11612
11670
11754
11754
11950
11937
12053
11936
11852
11863
12264
12718
12932
12953
13045
12972
12817
12660
12483
12387
12364
12403
11994
11714
14050
18718
24414
22907
9901
8762
10224
11190
12171
12846
13189
13326
13521
13658
13850
13950
14143
14292
14512
14714
15026
15290
15697
16118
16632
17144
17628
17883
18002
17966
17697
17219
16365
15255
14014
12919
12053
11521
11214
11159
11057
11072
11105
11212
11291
11437
11493
11612
11693
11728
11756
11795
11909
12055
12092
12082
12178
12073
12020
12072
12555
12896
13135
13154
13171
13153
13020
12843
12614
12574
12554
12569
12093
11861
14460
19327
25120
22217
9429
9195
10335
11524
12410
13020
13240
13527
13624
13720
13826
13936
14113
14273
14522
14738
15053
15372
15770
16182
16715
17180
17674
17937
18041
17989
17780
17301
16403
15314
14084
12980
12099
11542
11207
11063
10951
11014
11047
11150
11213
11313
11421
11560
11615
11695
11708
11740
11806
11944
11961
12071
12064
12080
12080
11949
12004
12373
12897
13117
13221
13160
13146
13046
12862
12683
12571
12556
12540
12293
11826
13642
17986
23757
24545
11666
8371
10090
11118
12232
12837
13176
13364
13510
13693
13815
14060
14212
14385
14498
14732
14998
15383
15718
16130
16574
17112
17522
17871
18060
18069
17877
17517
16820
15716
14528
13320
12336
11657
11284
11027
10939
10917
11052
11108
11240
11288
11370
11437
11538
11565
11569
11817
11825
11882
11902
11898
11959
11995
11949
11898
12111
12616
12880
13044
12988
13006
12894
12768
12574
12440
12414
12466
12352
11776
12543
16274
21467
25594
16791
7931
9815
10462
11611
12486
13031
13238
13427
13592
13760
13873
14026
14204
14377
14628
14877
15177
15533
15961
16373
16865
17328
17718
17881
17944
17808
17534
16925
15920
14716
13565
12545
11778
11393
11139
11041
11000
11071
11109
11212
11274
11422
11455
11539
11561
11833
11816
11798
11817
11940
11923
11801
11730
12002
12529
12826
12969
12885
12871
12774
12643
12430
12325
12292
12350
12170
11617
12681
16685
22112
25552
14825
7970
9861
10651
11843
12610
13048
13213
13416
13539
13699
13831
13984
14135
14346
14593
14862
15170
15519
15942
16447
16968
17380
17758
17883
17933
17730
17413
16695
15649
14427
13247
12288
11619
11261
11116
11033
10977
11059
11115
11246
11280
11437
11466
11580
11629
11749
11765
11937
11908
12011
11992
11967
11856
12180
12648
12958
13052
13029
13035
12905
12761
12536
12415
12358
12415
12266
11743
12777
16799
22303
25658
14609
8046
9805
10811
11961
12679
13080
13242
13455
13631
13826
13960
14138
14313
14466
14639
14903
15206
15602
15973
16526
17012
17440
17816
17987
18063
17976
17579
16805
15763
14568
13429
12333
11680
11218
11033
10928
10885
10967
11094
11182
11251
11388
11429
11517
11540
11619
11576
11734
11817
11880
11848
11831
11674
11927
12368
12766
12930
12943
12964
12887
12716
12546
12367
12277
12319
12254
11820
12155
15561
20717
25799
18471
7916
9294
10435
11683
12490
12991
13171
13380
13558
13734
13844
14031
14162
14392
14642
14936
15153
15507
15871
16347
16851
17385
17777
17987
18031
17917
17643
17019
16100
14906
13679
12531
11756
11224
11034
10912
10893
10921
11052
11123
11214
11326
11453
11509
11590
11728
11706
11710
11680
11706
11814
11724
11784
12274
12667
12905
12915
12865
12790
12617
12447
12323
12278
12269
12296
11899
11985
14896
19747
24898
20526
8458
9158
10335
11231
12153
12822
13092
13293
13456
13610
13805
13968
14169
14356
14594
14811
15141
15480
15916
16352
16874
17310
17722
17940
17987
17884
17639
17095
16242
14987
13709
12610
11810
11405
11154
11016
10918
11020
11055
11136
11262
11410
11464
11608
11675
11740
11742
11786
11841
11834
11859
11854
12288
12730
13022
12985
12912
12851
12764
12593
12434
12306
12372
12366
12033
11641
13808
18428
24216
23577
10464
8791
10129
11181
12089
12749
12963
13234
13376
13588
13777
13960
14033
14238
14440
14695
14985
15298
15673
16118
16610
17084
17557
17832
18014
17900
17697
17197
16335
15146
13948
12774
11968
11441
11157
11026
10960
11002
11054
11171
11243
11389
11467
11550
11562
11668
11714
11784
11799
11863
11864
11917
11893
11955
11953
12876
13023
12978
12974
12975
12967
12780
12485
12365
12429
12423
12022
11819
14542
19392
25272
22081
9197
8948
10254
11535
12343
12868
13087
13305
13468
13639
13774
13939
14080
14303
14484
14761
15003
15384
15760
16250
16719
17223
17619
17887
18014
17941
17755
17185
16285
15133
13977
12808
11988
11458
11208
11042
10982
10934
10989
11140
11236
11349
11403
11515
11566
11660
11690
11749
11722
11799
11782
11824
11798
11854
11842
11850
11849
12962
13061
13054
13014
12916
12754
12602
12479
12396
12448
12274
11751
12587
16507
22009
25829
15593
7883
9623
10707
11906
12617
13035
13257
13484
13612
13796
13938
14162
14301
14502
14690
15005
15263
15658
16070
16607
17188
17573
17814
17994
18053
17876
17524
16857
15905
14690
13490
12369
11644
11227
11041
10955
10966
10940
11034
11115
11227
11354
11427
11495
11599
11655
11647
11683
11658
11700
11691
11752
11754
11825
11892
11858
12845
12990
12929
12904
12812
12634
12520
12370
12391
12392
12205
11734
13030
17170
22508
25175
13965
7955
9963
10689
11825
12553
12970
13165
13352
13515
13684
13867
14012
14181
14387
14609
14865
15219
15563
16010
16447
16981
17378
17742
17892
17871
17694
17331
16643
15567
14382
13166
12221
11512
11160
10980
10942
10929
11017
11080
11242
11338
11398
11460
11548
11607
11751
11809
11780
11828
11797
11803
11799
11817
11812
11883
11891
11952
13004
12986
12834
12687
12504
12405
12391
12433
12284
11705
12687
16647
22096
25658
15216
8133
9869
10684
11927
12613
13064
13240
13458
13593
13773
13888
14057
14207
14371
14594
14849
15133
15488
15935
16422
17017
17418
17778
17919
18006
17756
17420
16667
15604
14389
13246
12269
11592
11220
11034
11034
10958
11023
11075
11207
11287
11417
11487
11560
11565
11675
11702
11750
11805
11834
11873
11935
11900
11880
11918
11930
11982
11953
13187
13131
13118
13054
12886
12686
12557
12462
12520
12544
12073
12033
14995
19923
25599
20713
8621
9260
10324
11624
12450
13022
13319
13482
13592
13721
13832
14053
14210
14396
14634
14887
15149
15451
15873
16309
16816
17299
17737
17957
18072
17959
17776
17240
16366
15188
13995
12833
11968
11459
11178
11038
10985
11037
11084
11249
11341
11415
11469
11565
11573
11659
11701
11711
11750
11800
11774
11796
11812
11821
11835
11859
11880
11951
12389
12789
13101
13104
13103
13033
12971
12885
12712
12502
12507
12535
12279
11822
13520
17875
23537
24770
12076
8293
10083
11217
12304
12942
13221
13412
13541
13715
13878
14084
14190
14379
14570
14763
15015
15313
15745
16153
16608
17132
17569
17825
17981
17958
17817
17407
16766
15718
14542
13321
12313
11618
11241
11104
11002
11004
11021
11167
11220
11309
11379
11499
11527
11636
11642
11685
11671
11703
11793
11811
11787
11780
11836
12129
12180
12074
12024
12283
12761
13094
13256
13169
13169
13101
12993
12775
12604
12605
12639
12583
12053
12445
15855
21007
25872
18759
8338
9632
10695
12016
12718
13178
13376
13598
13773
13898
13985
14148
14343
14562
14760
14930
15219
15489
15908
16360
16874
17346
17766
17920
18011
17898
17675
17154
16262
15110
13925
12819
11934
11431
11168
11079
11030
11096
11004
11128
11136
11292
11366
11474
11480
11530
11565
11635
11648
11644
11869
11915
11918
11880
11815
11949
12433
12772
12981
12944
12915
12821
12719
12545
12385
12319
12383
12314
11829
12204
15599
20559
25287
18540
8001
9557
10442
11440
12348
12971
13187
13449
13592
13817
13931
14108
14228
14416
14596
14870
15164
15523
15911
16264
16820
17293
17699
17895
17961
17848
17625
17057
16130
14929
13720
12629
11836
11415
11177
11082
11020
11048
11071
11161
11205
11331
11415
11555
11570
11645
11664
11767
11779
11769
12277
12654
12957
13025
12976
12890
12842
12668
12505
12376
12380
12408
12197
11643
12978
17209
22707
25261
13566
8223
10013
10809
11890
12704
13074
13276
13455
13647
13771
13940
14080
14254
14462
14663
14932
15199
15597
16020
16527
16983
17488
17787
17924
17862
17742
17364
16680
15599
14374
13200
12249
11580
11258
11122
10995
11039
11034
11160
11227
11335
11409
11563
11607
11699
11703
11763
11783
11859
11957
11977
11908
11840
11879
12959
13055
12979
13009
12930
12775
12580
12454
12344
12435
12375
11921
12138
15382
20320
25583
19843
8269
9310
10353
11532
12358
12927
13128
13319
13471
13677
13816
13994
14092
14241
14429
14690
14999
15359
15734
16294
16726
17184
17603
17809
17921
17803
17527
16953
16059
14856
13664
12554
11763
11323
11086
10962
10909
10969
11024
11103
11216
11326
11403
11507
11553
11617
11590
11712
11684
11740
11695
11699
11708
11769
11819
11766
12930
12880
12680
12530
12328
12253
12305
12261
11824
12180
15577
20555
25566
18547
7856
9241
10321
11559
12399
12902
13109
13295
13495
13675
13843
14040
14173
14391
14554
14826
15090
15447
15870
16365
16836
17341
17716
17889
17952
17843
17530
16903
15914
14725
13554
12489
11806
11308
11221
11023
11027
11033
11102
11177
11278
11388
11475
11553
11598
11668
11658
11700
11700
11729
11742
11829
11740
11721
11700
12014
12415
12695
12882
12878
12249
11933
11611
13791
18409
24038
23575
10405
8405
9970
11108
12111
12780
13053
13282
13415
13632
13746
13910
14080
14235
14430
14650
14943
15244
15626
16089
16631
17104
17545
17785
17898
17783
17609
17120
16251
15117
13925
12786
11930
11409
11123
11016
10985
11021
11027
11173
11264
11391
11435
11538
11525
11639
11668
11741
11762
11757
11809
11848
11771
11748
11764
12045
12426
12680
12864
12777
12793
12643
12520
12301
12157
12132
22100
9119
8721
10094
11312
12223
12756
13016
13322
13490
13570
13760
13876
14135
14312
14506
14682
15020
15353
15733
16134
16704
17139
17519
17758
17843
17739
17437
17027
16193
14951
13656
12585
11739
11275
11024
10993
10972
11039
11101
11184
11293
11336
11448
11512
11601
11641
11671
11623
11666
11665
11700
11738
11696
11583
11608
11922
12375
12659
12749
12669
12631
12547
12390
12221
12129
12173
12145
11935
11546
13277
17613
22868
23930
12987
13089
13324
13460
13643
13823
13973
14159
14363
14623
14930
15259
15616
16107
16514
16985
17290
17474
17466
17421
17082
16511
15557
14466
13324
12354
11685
11314
11152
11040
11067
11126
11250
11293
11398
11418
11572
11648
11774
11746
11773
11796
11840
11883
11988
11929
11792
11769
12036
12501
12772
12868
12787
12798
12646
12537
12308
12211
12200
12273
11981
11626
13377
17661
22938
24014
11932
8375
10436
11112
12022
12695
13127
14355
14574
14737
15046
15332
15785
16181
16647
17020
17316
17459
17462
17317
16989
16376
15399
14334
13199
12351
11674
11379
11117
11124
11153
11234
11296
11362
11445
11649
11754
11687
11737
11797
11853
11875
11937
11899
11998
11991
11941
11731
11829
12232
12726
12961
12907
12818
12761
12646
12493
12356
12350
12528
12352
11802
12169
15632
20618
25620
18226
8213
9835
10715
11586
12385
12840
13017
13214
13399
13579
13714
13882
14014
16368
16757
17196
17324
17402
17226
17050
16611
15834
14718
13661
12687
11970
11507
11241
11119
11042
11118
11189
11274
11342
11527
11561
11693
11765
11813
11813
11909
11915
11928
11904
11942
11848
11742
11760
12065
12562
12785
12872
12815
12797
12631
12508
12271
12227
12221
12224
11721
11798
14838
19814
25356
20181
8766
9721
10691
11464
12267
12772
13071
13186
13366
13508
13729
13820
13982
14145
14370
14622
14930
15286
15647
16081
16491
15894
14805
13742
12756
12003
11459
11226
11078
11110
11122
11271
11344
11475
11576
11631
11680
11726
11799
11799
11790
11782
11830
11876
11855
11680
11686
11935
12494
12722
12805
12758
12700
12588
12451
12276
12124
12149
12161
11898
11483
13634
17979
23548
22494
10049
8866
10419
11244
12033
12677
12968
13154
13341
13557
13686
13924
13992
14192
14392
14624
14826
15184
15614
16157
16381
16739
16938
17086
17150
17124
16824
16292
15515
11213
11151
11235
11349
11392
11509
11575
11668
11708
11926
11921
11862
11825
11876
11784
11730
11725
11906
12269
12615
12816
12783
12745
12630
12525
12345
12197
12127
12204
12007
11466
12287
16085
21401
25184
14871
8440
10164
10984
11840
12562
13057
13172
13282
13388
13583
13721
13854
13959
14205
14409
14713
14960
15342
15710
16173
16623
16967
17214
17282
17250
17065
16743
15964
14992
13823
12863
12039
11547
11251
11203
11142
11160
11728
11765
11784
11805
11877
11794
11734
11679
12046
12448
12776
12821
12781
12687
12596
12443
12313
12176
12243
12227
11835
11403
13554
18164
24084
22291
9613
9241
10417
11446
12193
12779
12969
13166
13329
13520
13658
13815
13958
14188
14399
14642
14920
15230
15659
16048
16491
16835
17125
17204
17234
17072
16816
16278
15472
14417
13361
12435
11791
11426
11195
11108
11122
11276
11325
11459
11491
11595
