17300
11804
12172
12575
13369
13416
13594
13580
13585
13581
13444
13663
13366
13711
13375
13830
13505
14035
13723
14205
14017
14522
14427
14911
14932
15224
15316
15287
15394
15169
15183
14598
14496
13638
13537
12782
12894
12272
12490
12008
12328
12097
12326
12200
12282
12389
12310
12411
12319
12559
12192
12514
12257
12797
12393
12784
12377
12754
12434
12725
12462
12643
12509
12590
12617
12597
12917
12819
13143
12874
13280
12805
13241
12766
13120
12876
13223
12859
13267
12890
13528
13526
14949
16176
17241
16241
12080
11541
12385
12967
13111
13384
13271
13516
13197
13688
13322
13754
13356
13742
13439
13854
13639
14039
13916
14196
14262
14459
14712
14785
15152
14950
15339
14947
15309
14813
14920
14150
14150
13398
13365
12815
12871
12592
12667
12537
12501
12585
12433
12659
12272
12585
12257
12736
12383
12821
12445
12845
12556
12892
12654
12953
12742
12794
12733
12647
12803
12844
12616
12726
12780
12885
13051
12963
13246
13054
13382
13027
13411
12914
13311
12932
13385
13046
13490
13300
13545
13544
14000
14957
16480
17385
16743
12787
11622
12709
12899
13594
13329
13836
13502
13914
13593
13944
13749
13993
13824
13922
13976
13926
14173
14025
14412
14188
14808
14656
15319
15014
15519
15148
15460
15044
15210
14736
14534
14036
13600
13229
12837
12803
12497
12746
12321
12696
12300
12692
12314
12728
12392
12750
12419
12950
12591
12970
12581
12976
12626
12910
12688
12807
12679
12665
12742
12530
12696
12425
12768
12431
12834
12432
12922
12546
13004
12678
13061
12757
12956
12676
12876
12868
12938
13114
13030
13306
12995
13385
13011
13326
12975
13321
12943
13290
12992
13348
13207
13573
14075
14958
16185
16601
15055
11479
12160
12579
13400
13176
13665
13343
13766
13477
13888
13556
13881
13608
13817
13775
13872
13952
13999
14270
14230
14627
14482
15065
15252
15569
15497
15734
15382
15645
15037
15055
14239
14262
13459
13493
12917
13058
12650
12805
12632
12689
12650
12587
12690
12419
12681
12407
12810
12439
12862
12416
12758
12420
12840
12567
12889
12691
12877
12792
12834
12867
12827
13070
12906
13190
12873
13226
12774
13191
12847
13236
12887
13270
12951
13283
13059
13142
13103
13076
13068
12895
13151
12887
13381
13213
13655
13271
13709
13322
13678
13257
13483
13120
13408
13264
13585
13279
13838
14065
14842
15826
16743
15977
12248
12124
12617
13292
13108
13457
13146
13554
13165
13557
13161
13604
13293
13607
13436
13864
13731
13941
14012
14126
14314
14281
14716
14634
15182
14897
15341
14888
15247
14760
14947
14247
14158
13427
13261
12749
12603
12434
12258
12359
12178
12482
12152
12520
12177
12649
12236
12683
12378
12798
12501
12784
12560
12820
12740
12789
12735
12681
12831
12587
12926
12656
13040
12621
13057
12760
13121
12868
13231
12818
13178
12853
13282
12959
13296
12981
13279
13108
13212
13187
13290
13229
13072
13167
12965
13270
13075
13516
13171
13670
13318
13701
13401
13719
13336
13535
13335
13529
13458
13488
13800
13981
14705
15388
16645
16367
13303
11830
12892
13047
13626
13302
13681
13455
13673
13501
13670
13646
13581
13660
13499
13671
13425
13826
13542
14047
13862
14388
14233
14873
14777
15246
15140
15472
15304
15237
15049
14660
14402
13863
13329
13092
12864
12669
12561
12341
12543
12226
12615
12273
12605
12218
12613
12247
12623
12284
12611
12451
12677
12577
12656
12664
12596
12735
12550
12779
12523
12933
12584
13005
12672
13065
12686
13060
12779
13040
12808
12991
12991
13033
13119
13049
13283
13048
13378
13042
13447
13096
13432
13019
13492
13206
13701
13497
13808
13613
13749
13612
13532
13565
13345
13403
13184
13512
13186
13636
13427
14353
14524
15918
16249
16192
11629
12533
12855
13687
13439
13800
13532
13834
13625
13799
13770
13798
13937
13789
14111
13916
14250
13928
14372
14078
14644
14452
15010
14829
15365
15219
15507
15294
15410
15251
14961
14633
14019
13806
13155
13193
12575
12801
12304
12660
12211
12547
12180
12535
12278
12497
12404
12540
12510
12419
12580
12469
12842
12567
12910
12577
12976
12591
12970
12594
12967
12703
13031
12875
13113
12991
13030
13133
13048
13210
12971
13326
13020
13246
13161
13282
13041
13321
12948
13306
12969
13351
12834
13271
12936
13417
13143
13467
13334
13457
13367
13451
13454
13291
13379
13100
13393
13104
13460
13221
13979
14287
15732
16187
16429
12567
11903
12401
13175
13325
13366
13531
13443
13659
13423
13800
13438
13784
13418
13824
13484
13972
13688
14133
13997
14360
14350
14615
14789
15018
15312
15305
15550
15222
15458
14944
15019
14229
14261
13464
13455
12765
12867
12445
12489
12304
12466
12176
12497
12207
12391
12243
12375
12396
12362
12508
12383
12654
12374
12731
12356
12697
12344
12761
12386
12783
12407
12724
12567
12794
12808
12936
12970
12948
13070
12820
13036
12747
13186
12871
13319
12946
13348
12998
13373
13069
13308
13009
13313
13267
13442
13526
13489
13653
13341
13588
13306
13627
13151
13453
13055
13423
13094
13487
13386
14217
14624
15935
16495
15663
12034
11822
12730
13021
13509
13230
13705
13351
13742
13527
13852
13595
13960
13602
13969
13617
14078
13773
14221
14055
14451
14429
14808
14966
15235
15484
15415
15640
15343
15475
14929
15012
14155
14115
13305
13380
12767
12900
12539
12789
12599
12667
12629
12616
12751
12647
12939
12725
13096
12739
13143
12826
13262
12928
13307
13012
13308
13079
13265
13081
13113
13098
13010
13140
12928
13133
12801
13055
12681
12994
12650
13121
12740
13081
12764
13046
12845
12994
12875
12888
12873
12819
12808
13257
13204
13325
13352
13393
13540
13359
13547
13118
13385
13005
13348
12886
13294
13087
14062
14372
15871
16319
15545
11807
11773
12476
12976
13261
13115
13457
13211
13587
13262
13644
13238
13655
13315
13737
13471
13726
13614
13808
13840
13989
14209
14319
14769
14748
15224
14986
15423
15040
15320
14753
14879
14168
14055
13404
13331
12902
12794
12613
12511
12528
12446
12597
12315
12694
12393
12799
12423
12844
12475
12790
12408
12832
12481
12894
12488
12878
12468
12760
12493
12692
12515
12701
12738
12703
12796
12652
12881
12623
12900
12603
13035
12700
13133
12798
13132
12856
13220
13158
13593
13541
13746
13733
13678
13733
13517
13721
13323
13633
13289
13724
13415
13933
13817
14918
15367
17007
16818
14382
11421
12059
12933
13264
13561
13415
13716
13431
13794
13483
13898
13553
13954
13612
14009
13822
14205
14019
14282
14356
14542
14844
15047
15469
15449
15918
15618
15795
15733
15726
15210
15119
14392
14288
13573
13640
12978
13183
12672
12874
12460
12661
12411
12508
12441
12488
12595
12487
12664
12388
12678
12387
12770
12413
12773
12396
12839
12500
12795
12453
12681
12584
12689
12624
12664
12747
12627
12862
12607
12779
12427
12936
12650
13176
12983
13425
13121
13420
13146
13278
13115
13107
12983
13016
13150
13013
13318
13278
13854
14573
16221
16577
16494
12270
11182
11844
13119
13390
13649
13580
13880
13577
13898
13692
13964
13855
13951
13990
14035
14144
13994
14382
14287
14702
14463
15001
14852
15426
15167
15547
15168
15374
15020
15018
14680
14396
14000
13532
13322
12817
12863
12461
12723
12324
12639
12192
12588
12246
12618
12325
12583
12374
12598
12523
12561
12659
12548
12661
12417
12666
12317
12612
12245
12684
12228
12614
12222
12622
12476
12850
12681
12861
12841
12849
12861
12652
12806
12604
12922
12665
13121
12819
13342
13377
15079
16473
17155
15897
11791
10697
12285
12724
13505
13351
13686
13508
13690
13659
13658
13758
13692
13939
13748
14151
13852
14337
14042
14533
14301
14901
14782
15281
15224
15667
15586
15659
15532
15328
15170
14750
14627
13882
13729
12956
13021
12389
12671
12155
12450
12182
12476
12210
12482
12446
12583
12648
12625
12776
12596
12880
12575
12971
12638
13109
12669
12994
12573
12887
12625
12853
12602
12863
12845
13001
13073
12904
12823
13034
12813
12901
12893
12867
13016
12849
13096
13030
13782
14670
16728
16710
16052
10983
11291
11899
12846
12940
13237
13203
13297
13335
13330
13524
13337
13654
13415
13814
13513
13972
13658
14082
13885
14413
14297
14774
14837
15155
15130
15143
15196
15046
15063
14593
14587
13909
13807
13024
13168
12551
12830
12434
12699
12465
12733
12530
12689
12653
12662
12740
12777
12963
12723
13024
12707
13141
12754
13119
12761
13170
12775
13136
12930
13386
13045
13501
13238
13652
13374
13586
13451
13600
13710
14100
14773
15522
16708
17167
18251
18669
20334
22047
25417
26115
26104
24848
25418
25948
26109
26140
26170
26182
26188
26191
26187
26182
26169
26150
26094
25961
24730
23901
22433
21620
20028
18937
17194
15817
14043
12413
10678
9065
7842
6493
5716
4422
3807
2640
2393
1493
1521
966
1262
994
1413
1355
1699
1810
2079
2373
2534
3025
3041
3531
3493
4155
3994
4657
4813
5340
5271
5866
5642
6155
5985
6539
6548
6899
6880
7478
7632
8136
8290
8639
8856
9069
9292
9326
9712
9680
10027
9945
10283
10190
10691
11499
13771
15601
15909
11414
10601
11323
11945
12235
12376
12673
12697
12984
12898
13228
13132
13589
13517
14082
14096
14614
14780
15371
15599
16145
16564
17144
17766
18297
18946
19292
20019
20168
20717
20586
20904
20463
20468
19698
19490
18810
18597
18159
17946
17536
17130
16869
16401
16183
15548
15117
14757
14364
13830
13542
12914
12736
12087
12008
11436
11586
11203
11431
11205
11654
11486
11709
11583
11738
11602
11471
11493
11334
11475
11273
11503
11275
11650
11414
11810
12130
14076
15792
16504
14598
10466
10899
11708
12176
12348
12478
12344
12587
12351
12626
12428
12882
12767
13153
12982
13441
13301
13722
13761
14112
14203
14556
14879
15222
15718
15805
16224
16141
16467
16133
16280
15711
15681
14957
14878
14232
14210
13830
13774
13240
13390
12866
12973
12687
12725
12539
12573
12606
12504
12545
12300
12525
12372
12618
12347
12586
12232
12446
12148
12480
12323
12694
12703
12958
13005
13034
13041
12881
12940
12726
12939
12758
13090
12868
13214
12993
13459
13566
15057
16733
18241
17310
13235
13214
13651
14050
13996
14093
13997
14253
13967
14296
13906
14230
13959
14312
14064
14397
14218
14539
14548
14787
15046
15261
15605
15715
16124
16108
16540
16311
16666
16427
16323
15691
15559
14744
14522
13742
13598
12885
12918
12398
12380
11948
11989
11749
11727
11669
11618
11678
11536
11803
11565
11891
11590
11973
11664
11998
11698
11972
11647
11846
11684
11868
11834
11967
12178
12200
12390
12275
12508
12199
12458
12073
12398
12114
12557
12246
12562
12361
12784
12534
13433
15176
17455
18524
15394
12939
13099
13689
13588
13912
13544
13843
13522
13837
13505
13793
13537
13777
13667
13795
13822
13882
13927
14354
14333
14711
14873
15184
15563
15648
16000
15938
16288
15983
16157
15531
15397
14580
14414
13665
13605
13057
12909
12530
12483
12313
12219
12258
12084
12294
12076
12363
12021
12396
12141
12456
12020
12462
12356
12682
12424
12741
12584
12576
12625
12618
12532
12267
12452
12141
12497
12529
13099
12872
13328
13099
13591
13464
13848
13614
13675
13613
13737
13754
13652
13785
13675
13830
14341
16543
18536
19450
15830
13968
13969
14849
14620
14918
14545
14773
14220
14297
13795
13861
13468
13529
13339
13356
13316
13223
13295
13110
13420
13226
13676
13534
14065
13785
14147
13771
13901
13452
13436
12810
12432
11893
11566
11347
11078
11153
10975
11226
11060
11454
11251
11701
11502
11862
11647
12022
11871
12096
12000
12132
12134
12125
12281
12192
12471
12313
12611
12366
12768
12467
12820
12576
12944
12685
12989
12809
12916
12772
12867
12975
13116
13321
13226
13469
13319
13464
13434
13462
13274
13391
13199
13499
13281
13647
13524
14134
14511
16879
19101
19513
15445
14232
14455
14791
14751
14624
14665
14434
14525
14185
14347
13998
14253
13927
14200
13867
14186
13989
14234
14126
14395
14474
14674
14903
14965
15238
15143
15382
15101
15286
14803
14730
13920
13712
12945
12766
12144
12103
11784
11786
11658
11598
11692
11677
11819
11545
11738
11488
11780
11473
11796
11556
11932
11803
12200
12144
12377
12187
12406
12134
12391
12177
12464
12381
12516
12489
12550
12664
12600
12784
12647
12933
12688
12957
12722
13133
12945
13445
13266
13610
13414
13622
13527
13573
13484
13366
13363
13245
13525
13381
13625
13520
14052
14685
16794
18177
18613
14242
13378
13774
14431
14526
14560
14618
14590
14693
14486
14613
14292
14461
14131
14456
14131
14439
14184
14532
14430
14780
14840
15200
15391
15667
15935
16014
16240
16091
16256
15822
15811
15121
14983
14140
14020
13368
13298
12731
12831
12280
12494
12065
12266
11975
12149
11921
12016
11920
11925
11994
11899
12059
11883
12140
11840
12134
11781
12091
11758
12130
11820
12117
11933
12238
12229
12484
12538
12546
12676
12556
12753
12523
12842
12525
12887
12581
13007
12697
13159
12787
14042
15597
17289
17640
14145
11611
12416
13148
13353
13689
13493
13800
13547
13903
13554
13909
13600
13973
13694
13949
13811
14022
14010
14135
14294
14437
14859
15444
15721
16077
16345
16387
16551
16357
16385
15725
15530
14728
14575
13753
13644
12911
12896
12392
12430
12041
12004
11830
11788
11828
11745
11892
11624
11853
11584
11969
11639
11960
11640
11971
11638
11831
11519
11706
11622
11874
11989
12094
12245
12180
12335
12055
12275
11929
12259
11950
12332
12108
12567
12363
12799
12746
13977
15824
17424
17420
12620
11830
12422
13160
13147
13483
13220
13594
13205
13517
13180
13528
13313
13697
13539
13995
13724
14145
13939
14347
14336
14796
14918
15300
15593
15699
15967
15859
16068
15686
15765
15073
14910
14043
13986
13299
13328
12814
12836
12443
12467
12327
12313
12311
12246
12422
12272
12458
12186
12560
12283
12647
12322
12643
12336
12619
12368
12568
12321
12397
12372
12330
12452
12454
12786
12654
13009
12798
13119
12762
13081
12697
13058
12815
13105
12898
13158
13157
13261
13696
14775
17477
19074
17672
13524
13695
14056
14285
14106
14275
14019
14206
13813
14120
13796
14034
13661
13995
13791
14165
14047
14386
14442
14708
14920
15165
15547
15612
15951
15844
16250
15929
16155
15711
15738
14958
14780
13981
13821
13272
13150
12831
12637
12469
12282
12306
12056
12224
11852
12083
11749
12066
11695
12032
11734
11958
11731
12020
11916
12067
12061
12102
12197
12123
12289
12061
12240
11798
12195
11928
12411
12186
12556
12242
12538
12375
12618
12460
12477
12256
12657
12451
12726
12575
12865
12923
13403
14491
16882
18113
15630
12540
12355
13201
13116
13433
13100
13372
13075
13326
13081
13243
13105
13243
13307
13366
13549
13498
13883
13795
14224
14162
14757
14769
15459
15462
16029
15923
16270
16054
16153
15874
15645
15232
14687
14335
13767
13640
13101
13159
12644
12765
12328
12590
12205
12411
12095
12289
12111
12219
12102
12138
12208
12083
12240
12056
12266
11987
12299
11965
12318
11994
12324
12102
12500
12159
12465
12176
12620
12544
12937
12697
12945
12865
13018
12950
12930
12958
12862
13007
12810
13095
12835
13256
13095
13879
14417
16902
17982
16746
12524
12742
13265
13780
13767
13710
13745
13599
13817
13658
13924
13655
14018
13747
14204
13946
14427
14193
14562
14458
14812
14909
15228
15463
15644
15989
15902
16183
15994
16214
15719
15673
14886
14777
14006
13909
13250
13206
12766
12691
12444
12337
12284
12131
12193
11955
12017
12056
12066
12025
12187
11967
12114
11827
12141
11798
12145
11804
12163
11854
12196
11999
12291
12108
12214
12086
12205
12283
12370
12700
12636
12890
12551
12914
12620
12931
12523
12773
12439
12708
12450
12725
12695
12945
13164
14129
16236
17758
17227
12530
12376
12771
13633
13394
13776
13489
13882
13692
14123
13928
14153
14059
14190
14247
14272
14436
14418
14784
14670
15154
15079
15660
15628
16238
16132
16582
16358
16623
16346
16366
15739
15730
14949
14741
14017
13824
13331
13087
12849
12653
12623
12310
12383
11985
12194
11807
12122
11707
12055
11629
11923
11633
11931
11741
11957
11829
11799
11865
11733
11833
11677
11923
11685
12155
11990
12523
12262
12675
12377
12738
12351
12593
12452
12678
12727
12837
12981
12943
13215
14206
16313
16946
16981
12238
11326
12045
13197
13398
13841
13677
13997
13854
13858
13803
13854
13940
13892
14124
14021
14462
14349
14861
14867
15314
15431
15922
15827
16263
16023
16362
15937
16100
15496
15232
14501
14050
13387
12997
12569
12238
12081
11814
12036
11784
12093
11958
12411
12111
12483
12280
12635
12382
12513
12277
12407
12278
12158
12070
12096
12336
12253
12528
12381
12696
12536
12934
12606
12879
12528
12728
12487
12699
12506
12643
12622
12727
13029
13181
14512
16051
17472
16904
13805
11022
12453
12893
13699
13512
13792
13592
13813
13700
13697
13559
13490
13473
13806
13793
14049
14190
14306
14544
14722
15155
15246
15804
15714
16245
16035
16439
16083
16311
15843
15860
15262
14960
14456
14028
13803
13345
13314
12815
12988
12481
12790
12275
12662
12244
12664
12212
12511
12266
12499
12352
12428
12335
12261
12357
12123
12435
12139
12531
12201
12659
12326
12701
12241
12538
12083
12446
12217
12383
12273
12350
12459
12575
13650
14816
16522
16541
14338
10777
11990
12304
13236
12959
13355
13061
13523
13207
13635
13301
13616
13471
13846
13682
13918
13759
13816
13928
13988
14289
14266
14744
14602
15150
14797
15290
14847
15263
14721
14863
14182
14096
13516
13374
12992
12830
12726
12416
12498
12137
12457
12081
12520
12151
12595
12191
12583
12239
12610
12262
12494
12285
12431
12401
12390
12644
12603
12924
12687
13045
12599
12980
12511
12915
12458
12881
12494
12867
12659
13007
13059
13455
14463
16099
17503
17521
13631
12255
13317
13772
14055
13906
14127
13840
14125
13724
14140
13707
14113
13692
14055
13654
14045
13850
14155
14169
14476
14656
14840
15274
15262
15679
15456
15900
15483
15704
14969
15029
14213
14159
13402
13395
12890
12866
12565
12416
12310
12125
12270
12008
12230
11880
12267
11860
12319
11915
12302
11891
12335
12062
12305
12079
12295
12252
12343
12520
12499
12821
12664
13002
12553
12943
12447
12878
12465
12899
12544
12933
12627
13004
12934
13953
15515
17667
16914
12694
12165
12891
13290
13430
13537
13409
13685
13439
13826
13409
13827
13490
13916
13515
13995
13735
14166
13972
14348
14332
14724
14943
15179
15470
15442
15789
15588
15935
15444
15655
14888
14919
14060
14089
13339
13310
12752
12755
12405
12311
12232
12117
12212
11915
12214
11874
12296
11872
12318
11919
12339
11939
12359
12093
12443
12237
12447
12353
12352
12316
12258
12487
12342
12839
12589
13118
12811
13386
13013
13469
13106
13483
13117
13530
13058
13500
13189
13646
13750
15195
16785
18202
16773
12691
12734
13053
13568
13359
13657
13318
13696
13226
13649
13272
13761
13348
13739
13502
13742
13587
13791
13910
14095
14366
14427
14925
14930
15501
15237
15754
15376
15825
15274
15404
14717
14575
13823
13666
13206
13042
12850
12646
12673
12366
12563
12196
12516
12053
12467
11983
12355
11895
12330
11961
12230
11966
12190
12084
12158
12230
12151
12347
12075
12230
12440
12544
12466
12590
12380
12683
12458
12976
12632
13164
12830
13272
12859
13271
12899
13200
12936
13148
13115
13196
13225
13284
13784
14372
16360
17368
17525
13041
12925
13014
13878
13621
14010
13694
13974
13728
13875
13790
13799
13904
13798
14034
13773
14134
13855
14404
14102
14664
14425
15076
14909
15465
15340
15702
15527
15659
15520
15259
15026
14410
14254
13523
13533
12863
13009
12376
12651
12067
12417
12037
12340
12038
12301
11946
12337
11957
12393
12019
12386
12220
12306
12257
12231
12281
12104
12345
12058
12393
12072
12437
12037
12392
12150
12530
12270
12585
12358
12695
12662
13035
13077
13193
13274
13239
13472
13271
13438
13134
13348
12966
13259
12940
13290
13153
13570
14125
15602
16951
17521
14469
12315
12941
13359
13805
13666
13935
13672
14006
13675
14038
13786
14100
13854
14124
13916
14117
14036
14177
14321
14444
14731
14858
15280
15323
15810
15881
16123
16102
16254
15876
15682
14960
14757
14031
13867
13221
13173
12703
12738
12402
12409
12215
12171
12116
12078
12175
12053
12189
11942
12204
11957
12297
12020
12277
12049
12352
12099
12314
12137
12235
12123
12243
12238
12261
12457
12312
12460
12185
12495
12209
12649
12518
12848
12647
12957
12786
12927
12693
12807
12718
12740
12855
12788
12996
12873
13231
13398
14504
15720
17179
16287
12578
12064
12953
13232
13548
13483
13597
13466
13753
13577
13808
13695
13914
13852
13858
13927
13896
14116
14092
14459
14429
15015
15011
15653
15555
16060
15890
16194
15942
16004
15613
15338
14911
14428
14067
13603
13502
12997
13058
12654
12839
12432
12624
12261
12533
12222
12416
12261
12430
12352
12441
12523
12479
12584
12363
12543
12304
12608
12318
12627
12292
12626
12314
12603
12363
12606
12535
12685
12574
12543
12613
12594
12898
12859
13128
12955
13266
13047
13342
12969
13103
12843
13093
12818
13189
12935
13351
13297
14458
15512
16916
16942
13650
12311
12945
13526
13660
13845
13798
14024
13805
14165
13921
14217
13905
14198
13967
14220
14011
14195
14112
14326
14384
14567
14818
14941
15369
15403
15789
15589
15857
15493
15663
15019
14948
14210
14019
13395
13226
12831
12618
12398
12175
12151
11953
12141
11884
12164
11885
12173
11827
12202
11923
12227
11935
12202
12023
12172
12059
12111
12118
12111
12250
12164
12370
12525
12559
12541
12673
12618
12833
12686
13006
12769
13089
12767
13077
12820
13031
12791
13063
12979
13293
13258
13363
13369
13375
13517
13312
13500
13204
13383
13051
13389
13112
13520
13381
14312
14761
16479
17282
16307
12826
12912
13473
13760
13956
13801
14031
13761
14027
13744
14099
13835
14130
13857
14154
13958
14180
14042
14232
14273
14382
14603
14689
15069
15090
15521
15429
15811
15539
15860
15320
15285
14548
14302
13647
13399
12836
12931
12472
12529
12138
12239
11943
11829
11904
11783
12060
11858
12251
11944
12392
12016
12511
12067
12529
12143
12534
12246
12492
12298
12397
12401
12370
12453
12242
12453
12203
12643
12377
13030
12647
13165
12736
13182
12805
13139
12850
13016
12882
12988
13013
12959
13157
13089
13661
14204
16290
17346
17574
12982
12636
12795
13730
13525
13877
13614
13777
13685
13772
13834
13756
14026
13783
14101
13783
14260
13828
14314
14127
14621
14463
15097
14934
15596
15347
15940
15596
15998
15503
15547
14883
14583
13932
13524
13235
12822
12807
12343
12570
12066
12387
11885
12313
11846
12353
11956
12366
12055
12366
12122
12269
12235
12217
12297
12144
12410
12109
12469
12096
12598
12216
12691
12257
12721
12310
12597
12181
12444
12332
12613
12826
12893
13110
12877
13202
12913
13276
12836
13232
12812
13284
12863
13301
12941
13444
13547
14571
15971
17585
17369
13409
12498
13366
13590
13705
13652
13591
13744
13514
13761
13385
13776
13412
13859
13445
13918
13520
14023
13858
14236
14097
14456
14558
14905
15203
15327
15673
15471
15842
15412
15624
14872
14887
13999
14018
13270
13384
12787
12847
12503
12550
12418
12392
12449
12225
12354
12042
12346
11960
12416
11983
12432
11975
12340
11950
12367
12088
12347
12180
12316
12266
12226
12432
12296
12618
12418
12863
12527
12966
12471
12946
12556
13105
12921
13452
13122
13592
13219
13616
13178
13480
13093
13334
13144
13291
13296
13345
13676
14257
15505
16869
17805
15286
12444
12344
13456
13440
13947
13650
14012
13704
13899
13768
13848
13833
13810
13996
13785
14093
13820
14309
13970
14511
14251
14983
14837
15563
15491
15982
15888
16126
16008
15973
15837
15373
15126
14382
14225
13450
13486
12718
12948
12276
12591
12143
12476
12109
12388
12147
12335
12297
12288
12382
12262
12491
12197
12535
12372
12456
12279
12475
12204
12568
12208
12664
12267
12712
12264
12692
12237
12670
12390
12740
12694
12918
12950
13044
13248
13006
13203
12859
13165
12729
13138
12753
13272
12944
13519
13833
15441
16724
17326
15410
11466
11974
12756
13576
13587
13913
13678
14094
13690
14108
13673
14148
13769
14178
13877
14249
14059
14298
14275
14485
14669
14759
15137
15163
15752
15569
16070
15661
16086
15587
15900
15168
15107
14309
14180
13549
13370
12731
12949
12423
12607
12290
12442
12278
12320
12365
12178
12370
12117
12408
12019
12431
12019
12447
12015
12400
11972
12390
12046
12281
12053
12174
12089
12073
12304
12324
12627
12454
12877
12508
12892
12459
12812
12367
12796
12434
12867
12684
13011
12994
13495
14637
16427
17545
16617
12284
11729
12859
13050
13665
13274
13792
13384
13773
13418
13772
13559
13838
13771
13889
13936
13936
14139
14017
14443
14258
14876
14745
15454
15300
15964
15758
16163
15700
15995
15287
15370
14475
14378
13563
13492
12958
12950
12648
12589
12490
12297
12412
12168
12449
12097
12440
12002
12412
11972
12389
12079
12470
12149
12466
12255
12401
12346
12377
12464
12346
12524
12281
12565
12151
12585
12281
12929
12630
13121
12821
13157
12916
13204
12964
13032
12966
12981
13180
13045
13310
13152
13626
14176
16025
17339
18202
14584
12476
12636
13561
13603
13895
13778
13866
13863
13803
13935
13734
13823
14026
14030
14055
14217
14118
14469
14305
14815
14610
15188
14988
15672
15425
15903
15553
15823
15420
15412
14919
14548
14102
13489
13215
12650
12648
12121
12324
11883
12161
11904
12288
11962
12307
11991
12311
12048
12290
12128
12357
12343
12438
12461
12407
12587
12455
12637
12370
12572
12290
12613
12316
12526
12260
12604
12552
12987
12943
13206
13202
13305
13353
13227
13282
12983
13171
12904
13146
12933
13223
13080
13569
14252
16812
17707
16557
12296
12552
12852
13454
13323
13494
13336
13353
13311
13256
13256
13149
13303
13169
13370
13144
13472
13372
13766
13702
14100
14109
14575
14686
14999
15104
15326
15397
15389
15386
15057
14881
14285
14023
13414
13326
12831
12903
12479
12628
12355
12548
12318
12390
12328
12367
12385
12343
12478
12352
12553
12390
12661
12429
12700
12434
12749
12520
12753
12564
12836
12724
12798
12644
12712
12776
12824
13157
13076
13312
13329
13440
13382
13410
13178
13294
13055
13305
13102
13350
13134
13548
13982
15341
16934
18030
15840
12434
12596
13228
13598
13525
13707
13554
13711
13504
13766
13531
13847
13611
13886
13699
14021
13934
14192
14164
14395
14542
14656
15024
15106
15497
15409
15709
15454
15695
15270
15279
14644
14472
13825
13557
13091
12892
12656
12479
12437
12190
12308
12096
12277
11987
12336
12055
12329
12070
12357
12134
12377
12139
12271
12164
12229
12163
12461
12229
12393
12371
12376
12347
12414
12592
12672
12983
12836
13156
12937
13271
12978
13243
12833
13027
12788
13055
12988
13148
13196
13321
14151
15438
17348
17851
15189
11725
12678
13099
13832
13539
13901
13606
13869
13588
13798
13656
13832
13871
13962
14052
14089
14337
14267
14669
14557
15037
14917
15458
15371
15868
15744
16051
15815
15980
15679
15518
15101
14657
14244
13647
13473
12927
12868
12311
12489
12086
12350
11986
12274
12046
12389
12108
12474
12193
12445
12114
12420
12213
12406
12236
12244
12180
12098
12208
12153
12433
12360
12715
12521
12932
12623
12913
12611
12826
12544
12822
12642
12805
12778
12938
13071
13092
14210
15770
17534
17368
14568
10929
12179
12558
13378
13252
13595
13364
13610
13420
13507
13497
13506
13626
13617
13835
13694
14071
13863
14290
14111
14635
14608
15149
15106
15572
15495
15789
15664
15728
15554
15200
14889
14278
14072
13541
13273
13087
12877
12527
12633
12406
12608
12257
12529
12251
12541
12328
12719
12440
12656
12416
12576
12448
12529
12440
12264
12307
12210
12292
12258
12513
12443
12725
12528
12772
12582
12700
12382
12580
12392
12712
12627
12816
12787
13074
13364
14549
16460
17538
17732
13222
12072
12539
13375
13511
13765
13556
13859
13616
13773
13639
13840
13889
13952
14081
14088
14303
14200
14489
14452
14822
14922
15365
15354
15936
15790
15985
15771
16000
15682
15650
15006
14794
14181
13880
13332
13105
12799
12547
12466
12280
12301
12067
12217
11952
12114
11960
12120
11911
12119
11877
12051
11924
11998
11897
11963
12001
11911
12043
11935
12155
12022
12349
12227
12547
12347
12517
12176
12308
12010
12188
12071
12213
12209
12306
12423
12511
12918
13773
15814
17403
17217
12804
12415
12721
13383
13245
13478
13336
13545
13445
13565
13529
13539
13543
13496
13668
13580
13782
13711
13963
14121
14432
14500
14878
14900
15232
15185
15508
15324
15548
15148
15029
14502
14199
13650
13336
12953
12730
12588
12345
12327
12179
12351
12212
12356
12142
12309
12071
12281
12089
12273
12125
12368
12261
12342
12326
12356
12320
12253
12320
12297
12524
12516
12902
12799
13085
12953
13243
13067
13287
13089
13199
13065
13145
13104
13135
13228
13307
13455
14051
15526
17457
18522
15844
13123
13120
13739
13714
13915
13739
13849
13777
13849
13755
13999
13869
13926
13865
13911
13917
13964
14051
14086
14243
14264
14651
14649
14984
14966
15241
15024
15253
14966
14870
14363
14143
13700
13365
12986
12730
12596
12355
12398
12256
12382
12171
12329
12058
12222
12011
12203
12019
12135
12039
12155
12161
12221
12224
12314
12519
12471
12633
12484
12687
12512
12705
12449
12678
12518
12839
12857
13062
13045
13178
13178
13179
13177
13088
13099
12973
13126
13025
13246
13139
13531
13482
14784
16354
17954
17305
13621
12813
13573
13837
14133
13986
14166
14000
14021
13930
13909
13910
13906
14024
13920
14113
14030
14275
14154
14509
14496
14912
15042
15494
15566
15850
15821
15914
15886
15779
15580
15099
14729
14143
13783
13193
13011
12568
12517
12144
12257
12045
12154
11997
12103
12042
12078
12020
11994
12061
12007
12115
12017
12209
12086
12366
12147
12381
12211
12445
12250
12429
12270
12362
12279
12271
12321
12356
12492
12936
13138
13133
13138
13165
13005
13051
12877
13010
12824
13036
12910
13136
13122
13889
14628
16432
17115
16019
12205
12324
12989
13448
13622
13634
13743
13609
13761
13601
13819
13727
13916
13785
14062
13951
14153
14177
14392
14458
14730
14979
15254
15525
15672
15976
15976
16147
15990
16099
15618
15400
14815
14568
13987
13735
13302
13110
12826
12615
12440
12302
12297
12214
12308
12139
12204
11945
12141
12013
12198
12050
12254
12115
12329
12208
12402
12205
12435
12259
12337
12166
12209
12192
12243
12264
12166
12272
12260
12495
12567
12855
12783
13059
12948
13184
12922
13044
12828
12949
12930
13034
13088
13155
13332
13601
14733
16066
17294
16915
13177
12200
13251
13694
14087
13853
14002
13774
13761
13698
13721
13739
13854
13951
13862
14046
13987
14297
14210
14505
14461
14894
14968
15571
15602
16091
16190
16447
16394
16379
16119
15650
15237
14643
14213
13580
13398
12953
12860
12557
12567
12275
12280
11970
12021
11675
11907
11570
11713
11444
11645
11464
11621
11597
11534
11390
11164
11484
11181
11627
11391
11920
11739
12387
12226
12687
12493
12824
12698
12838
12708
12717
12851
12723
12879
12663
12962
12728
13421
14529
16996
16842
16248
11279
10929
11858
12813
13133
13405
13501
13575
13740
13616
13871
13618
14052
13797
14318
13987
14532
14283
14801
14595
15126
15106
15610
15838
16207
16378
16410
16663
16638
16366
16191
15663
15080
14681
14101
13918
13235
13261
12707
12889
12292
12560
12031
12368
12001
12283
12023
12235
12107
12104
12055
11858
11978
11753
12051
11794
12131
11782
12218
11804
12245
11954
12413
12120
12395
12175
12324
12207
12172
12260
12229
12565
12378
12825
12606
13258
13642
15685
17063
17530
15085
11265
11670
12761
13170
13592
13551
13613
13767
13575
13819
13602
13996
13695
14162
13792
14266
13916
14443
14183
14667
14598
15286
15190
15916
15811
16332
16103
16327
16068
16021
15612
15137
14813
14160
13968
13303
13389
12798
13012
12449
12764
12223
12556
12160
12490
12315
12596
12419
12569
12528
12516
12626
12452
12736
12410
12782
12365
12718
12360
12892
12518
12984
12644
12950
12624
12819
12593
12698
12689
12632
12812
12610
12947
12776
13468
14142
16342
16681
16709
11756
11584
12072
12917
12931
13161
13065
13195
13306
13192
13440
13258
13556
13255
13558
13607
13814
13682
14139
14024
14621
14434
15220
15134
15795
15529
16032
15670
15964
15579
15444
14900
14456
14056
13524
13327
12732
12799
12301
12543
12043
12410
11891
12325
11917
12250
11920
12207
11992
12188
12097
12132
12232
12078
12276
11898
12232
11959
12407
12083
12687
12500
12991
12670
13049
12773
12994
12764
12837
12814
12795
12965
12846
13165
13011
13446
13860
15606
16924
18163
14737
12331
12489
13334
13369
13543
13375
13691
13332
13730
13453
13739
13569
13639
13625
13643
13799
13737
14181
14036
14599
14469
15152
15014
15652
15375
15841
15534
15816
15434
15416
14818
14423
13908
13402
13211
12723
12761
12213
12494
12007
12390
11861
12311
11888
12280
11895
12257
12027
12259
12176
12258
12316
12269
12456
12207
12494
12115
12540
11999
12446
12082
12569
12353
12879
12579
12944
12782
12950
12868
12855
12904
12776
13051
12901
13294
12957
13464
13142
14012
15160
17420
17984
15705
12158
12998
13110
13772
13381
13774
13515
13867
13725
13916
13842
13926
14050
13906
14151
13961
14320
14042
14512
14289
14930
14776
15418
15330
15864
15695
16010
15819
15881
15622
15244
14872
14208
14028
13345
13370
12730
12928
12348
12625
12146
12503
12093
12438
12107
12312
12136
12203
12156
12136
12304
12100
12311
12036
12429
12095
12510
12081
12527
12129
12526
12157
12536
12346
12754
12771
12897
12956
12901
12887
13163
12919
12942
12899
12856
12989
12780
13089
12880
13378
13575
14934
16440
18153
16109
12544
12243
13075
13183
13381
13254
13331
13324
13260
13440
13239
13571
13293
13731
13405
13858
13553
14050
13717
14215
14040
14553
14575
15036
15162
15364
15516
15442
15636
15264
15287
14476
14361
13490
13528
12770
12897
12286
12490
12144
12354
12169
12243
12159
12110
12176
12044
12320
12083
12434
12102
12517
12095
12497
12108
12450
12098
12494
12174
12587
12176
12556
12206
12575
12257
12502
12269
12411
12460
12561
12785
12745
13015
12774
13124
12764
13129
12680
13055
12619
12989
12663
13102
12918
13254
13281
13984
14529
16538
17573
15899
12732
12485
13376
13278
13731
13367
13786
13349
13766
13456
13777
13548
13843
13716
13836
13918
13971
14193
14064
14499
14395
15000
14791
15466
15290
15900
15647
16096
15742
15965
15491
15318
14774
14362
14004
13560
13407
12949
13087
12686
12813
12725
12803
12593
12838
12461
12801
12351
12770
12372
12798
12465
12881
12540
12868
12693
12885
12790
12853
12913
12811
13010
12788
13053
12688
13054
12665
13083
12603
13024
12667
13128
13010
13365
13222
13421
13404
13437
13464
13254
13351
13069
13401
13027
13465
13106
13697
13480
14854
15973
17402
17038
13325
11836
12726
13329
13636
13799
13628
13889
13607
13945
13589
14028
13644
14085
13712
14174
13829
14223
14067
14425
14352
14910
14814
15396
15234
15609
15488
15606
15474
15343
15158
14568
14313
13559
13509
12742
12876
12184
12466
11987
12282
11790
12114
11753
12031
11843
11985
12031
12090
12307
12159
12518
12266
12647
12270
12710
12293
12732
12329
12796
12404
12758
12470
12700
12585
12658
12793
12914
13139
12929
13247
12959
13339
12909
13304
12848
13326
12986
13469
13131
13453
13349
13741
14829
16618
17036
16610
12543
11345
12573
12936
13701
13334
13863
13675
14021
13692
14058
13689
14133
13704
14133
13785
14340
14086
14493
14403
14782
14875
15143
15411
15546
15835
15650
15976
15581
15844
15115
15051
14102
14043
13174
13140
12500
12508
12119
12129
11920
11875
11919
11807
12095
11941
12370
12131
12597
12209
12676
12257
12686
12287
12693
12436
12721
12481
12615
12587
12618
12749
12565
12769
12443
12810
12422
12869
12588
13194
12805
13308
12938
13284
12899
13079
12865
12976
13001
13010
12985
13335
13264
13617
14569
16039
17167
17050
13562
11561
12709
12974
13789
13364
13869
13457
13910
13523
13919
13627
13899
13730
13873
13899
13931
14119
14027
14401
14232
14828
14618
15319
15104
15743
15421
15930
15494
15727
15175
15081
14467
14043
13496
12968
12816
12318
12430
12002
12317
11845
12242
11720
12116
11694
12128
11818
12189
11948
12184
12088
12213
12283
12177
12329
12087
12432
12116
12533
12124
12669
12254
12697
12254
12698
12372
12908
12580
13126
12777
13261
12912
13196
12883
13070
12908
12975
13063
13023
13249
13171
13647
13429
14478
14924
17014
17406
16218
12115
12802
13107
13869
13675
13858
13774
13841
13936
13824
14024
13746
14093
13683
14077
13674
14196
13860
14421
14095
14675
14533
15091
15142
15542
15606
15666
15803
15614
15715
15132
15111
14260
14180
13233
13311
12582
12866
12302
12553
12088
12306
12087
12183
12114
12063
12219
11980
12318
12296
12309
12317
12440
12271
12512
12161
12558
12175
12620
12170
12661
12206
12700
12295
12632
12301
12585
12457
12747
12873
12916
13134
12981
13252
12844
13169
12711
13158
12740
13223
12860
13293
12929
13426
13591
14516
15908
17219
16554
12386
12129
12550
13392
13212
13632
13253
13693
13255
13711
13353
13825
13529
13884
13661
13921
13907
14066
14232
14270
14675
14630
15188
15104
15727
15479
16078
15669
16099
15620
15749
15012
14842
13841
13928
13171
13296
12712
12864
12461
12575
12387
12363
12359
12204
12397
12159
12466
12098
12556
12127
12567
12174
12643
12210
12580
12257
12627
12472
12631
12519
12535
12637
12505
12701
12385
12660
12327
12794
12435
13005
12706
13207
12838
13253
12933
13185
12894
13060
13050
13066
13233
13162
13395
13218
13790
14159
15751
17013
17798
14180
12526
12703
13700
13676
13926
13789
13906
13855
13809
13920
13736
14007
13680
14087
13743
14211
14029
14460
14298
14710
14497
15180
14944
15594
15331
15854
15500
15838
15397
15462
14885
14523
13998
13513
13177
12675
12690
12166
12408
11891
12265
11826
12331
11918
12325
11947
12362
12078
12328
12142
12313
12314
12274
12445
12222
12541
12218
12629
12255
12752
12338
12753
12423
12833
12440
12690
12389
12631
12572
12745
12935
12942
13192
12958
13296
12891
13217
12681
13127
12683
13102
12779
13243
12999
13430
13645
14530
15959
17109
15018
12041
12143
13015
13381
13569
13703
13580
13777
13525
13857
13494
13953
13587
14073
13705
14186
13869
14348
14112
14541
14503
14899
15097
15410
15719
15699
15992
15706
16029
15508
15673
14862
14803
13864
13825
13063
13167
12638
12704
12397
12434
12365
12290
12374
12175
12436
12090
12424
11998
12429
12050
12536
12120
12561
12260
12651
12402
12644
12479
12573
12559
12476
12635
12489
12776
12402
12744
12383
12853
12590
13166
12816
13268
12937
13386
12950
13324
12776
13146
12813
13232
12965
13203
13208
13425
14183
15143
16858
17130
14968
11606
12505
12864
13754
13377
13910
13578
14037
13755
14099
13847
14147
14033
14223
14272
14201
14422
14272
14688
14490
15030
14793
15485
15280
15831
15490
15932
15624
15911
15519
15424
14905
14503
14089
13571
13353
12801
12937
12411
12671
12158
12541
12045
12440
11981
12281
11958
12273
12072
12245
12147
12200
12315
12140
12361
12333
12245
12331
12415
12336
12535
12289
12624
12311
12674
12254
12762
12389
12921
12669
13173
12926
13241
13038
13127
12963
12911
12898
12777
13001
12791
13132
12807
13345
13368
14638
15753
17265
16152
12386
11710
12770
13167
13462
13474
13578
13719
13542
13798
13565
13942
13609
14045
13649
14143
13803
14268
14016
14503
14426
14855
14921
15267
15440
15511
15738
15588
15836
15451
15577
14802
14686
13735
13680
12864
12931
12400
12585
12155
12600
12149
12516
12092
12427
12155
12386
12201
12289
12272
12216
12390
12262
12521
12234
12617
12236
12662
12251
12668
12227
12599
12306
12700
12487
12839
12870
13039
13137
13013
13186
12992
13233
12805
13142
12745
13171
12807
13316
12993
13528
13659
14820
16037
17452
16759
12451
12002
12672
13457
13392
13796
13541
13963
13519
13949
13539
13978
13562
13985
13691
13990
13799
14024
14025
14190
14380
14416
14838
14798
15336
15090
15512
15499
15688
15297
15377
14638
14533
13695
13736
12904
13091
12559
12803
12304
12553
12259
12417
12306
12312
12403
12278
12500
12230
12625
12317
12733
12327
12768
12342
12742
12292
12597
12319
12646
12477
12700
12763
12856
13063
12916
13136
12772
13028
12555
12984
12563
13019
12635
13095
12755
13196
12994
14335
15787
17056
16866
13230
10647
11485
12599
12873
13417
13057
13543
13126
13579
13210
13662
13361
13741
13551
13830
13826
14204
14004
14550
14453
14905
15020
15403
15670
15805
16004
15815
16006
15582
15776
15004
15000
14064
14041
13244
13305
12730
12882
12483
12631
12506
12532
12522
12471
12687
12478
12801
12449
12851
12434
12883
12444
12849
12439
12787
12367
12608
12356
12510
12457
12640
12803
12720
13005
12713
12967
12539
12878
12389
12793
12372
12823
12456
12899
12675
13139
13383
14494
16155
17155
16370
11517
11626
12242
13206
13049
13532
13191
13677
13327
13818
13527
13967
13595
14069
13664
14153
13858
14330
14079
14472
14441
14795
14944
15109
15282
15166
15401
15124
15375
14798
14863
14011
13992
13161
13221
12610
12725
12344
12445
12193
12274
12273
12254
12422
12278
12551
12237
12627
12239
12594
12182
12629
12255
12623
12304
12639
12317
12466
12372
12412
12446
12501
12800
12661
12982
12671
13079
12679
12954
12454
12907
12509
12937
12613
12976
12850
13198
13598
14434
16344
17784
16673
12235
12641
13318
13556
13504
13680
13447
13728
13379
13741
13363
13797
13422
13908
13563
14034
13768
14194
14083
14423
14489
14781
15064
15193
15502
15395
15716
15338
15582
14974
15064
14257
14208
13391
13402
12796
12924
12557
12626
12478
12430
12509
12384
12599
12326
12648
12267
12670
12264
12675
12232
12653
12313
12665
12363
12652
12409
12518
12510
12571
12749
12773
13122
12906
13286
12925
13308
12865
13187
12721
13146
12786
13073
12851
13337
13076
13608
13907
15131
16855
18100
15384
12251
12596
13192
13588
13428
13671
13373
13689
13310
13717
13289
13665
13276
13678
13354
13719
13506
13789
13704
13946
14140
14326
14687
14727
15206
15054
15472
15099
15449
14864
14930
14073
13989
13243
13194
12659
12626
12391
12412
12429
12342
12450
12275
12580
12288
12654
12316
12786
12400
12844
12507
12875
12605
12886
12688
12804
12708
12732
12683
12551
12806
12591
13077
12872
13195
13159
13382
13175
13435
13032
13287
12852
13211
12804
13230
12865
13331
13149
13895
14508
16436
17654
16477
12123
11959
12907
13216
13693
13386
13787
13362
13784
13419
13854
13495
13930
13688
13985
13823
14020
14003
14180
14425
14455
14882
14838
15395
15199
15715
15362
15787
15267
15553
14911
14928
14233
14009
13445
13177
12905
12686
12588
12299
12465
12074
12405
12019
12427
11993
12489
12124
12530
12184
12552
12282
12560
12384
12595
12212
12581
12329
12616
12537
12804
12837
12853
13004
12810
13002
12584
12851
12438
12922
12498
12932
12535
13016
12785
13231
14072
15911
17055
17100
13428
10528
11748
12379
13198
13053
13520
13189
13654
13262
13743
13376
13797
13505
13876
13654
13898
13908
14120
14283
14389
14817
14810
15342
15171
15676
15365
15816
15332
15613
14957
14988
14213
14058
13369
13215
12835
12655
12551
12240
12361
12049
12419
12053
12490
12091
12541
12267
12643
12379
12787
12327
12725
12339
12769
12285
12641
12310
12598
12329
12448
12338
12335
12504
12536
12863
12690
13063
12659
12977
12499
12845
12416
12866
12507
12928
12665
13027
13062
13341
14194
15669
17376
17278
13245
11354
12477
12743
13464
13113
13648
13257
13686
13359
13748
13534
13823
13674
13847
13840
13789
13971
13904
14286
14105
14642
14511
15189
14982
15532
15179
15562
15160
15360
14869
14726
14180
13804
13424
12990
12576
12704
12397
12400
12314
12219
12317
12134
12418
12101
12493
12135
12568
12228
12671
12216
12574
12267
12644
12405
12613
12446
12501
12541
12424
12614
12529
12975
12736
13179
12767
13177
12743
13096
12636
12988
12701
13026
12864
13136
13101
13304
13704
14311
16276
17854
17326
12458
12318
12529
13425
13101
13550
13174
13568
13282
13610
13426
13604
13549
13565
13647
13550
13836
13633
14051
13779
14327
14133
14797
14631
15244
15069
15521
15242
15629
15098
15195
14434
14363
13673
13609
13092
13001
12762
12637
12657
12512
12737
12393
12669
12308
12747
12343
12782
12356
12742
12458
12811
12545
12833
12743
12848
12824
12795
12911
12656
12893
12611
12981
12791
13290
12919
13354
12937
13359
12971
13198
12876
13091
12972
13038
13024
12972
13163
13097
13633
14044
16076
17568
17539
12852
12313
12627
13579
13366
13713
13531
13721
13630
13698
13736
13688
13858
13687
14038
13738
14003
14046
14286
14197
14590
14429
15002
14779
15365
15096
15531
15156
15443
14948
14973
14391
14156
13645
13272
13036
12691
12742
12398
12569
12116
12443
12003
12403
11997
12389
12129
12554
12256
12508
12374
12531
12479
12464
12558
12412
12676
12448
12785
12374
12719
12320
12800
12395
12977
12780
13115
12871
13165
13023
13111
13037
12926
13135
12947
13270
12998
13436
13081
13684
13438
14881
16077
17660
17112
12966
11534
12644
13269
13910
13634
14045
13743
14059
13909
14029
14019
14033
14123
13960
14267
14017
14472
14190
14714
14452
15069
14837
15496
15365
15848
15581
15783
15561
15482
15179
14751
14493
13858
13711
13066
13206
12632
12932
12388
12739
12249
12575
12229
12578
12347
12605
12499
12608
12665
12600
12759
12509
12807
12430
12789
12347
12751
12278
12676
12317
12854
12625
12927
12761
12962
12875
12816
12869
12657
12852
12603
12963
12656
13024
12607
13142
13194
14740
16204
17390
16439
12090
10874
12309
12697
13397
13142
13496
13334
13558
13546
13631
13712
13617
13883
13601
13934
13622
14134
13870
14467
14242
14894
14756
15378
15275
15634
15471
15648
15575
15451
15305
14767
14546
13772
13742
12976
13044
12427
12666
12080
12405
11971
12288
11980
12227
12104
12283
12296
12287
12410
12261
12547
12266
12639
12254
12686
12271
12689
12298
12601
12212
12582
12370
12666
12643
12833
12916
12901
12834
13046
12830
12882
12840
12788
12940
12774
13052
12789
13291
13061
14297
15330
17517
17036
13239
11341
12386
12808
13297
13227
13341
13401
13339
13547
13293
13564
13278
13681
13313
13783
13440
13920
13584
14052
13896
14386
14420
14814
14885
15011
15091
14984
15181
14873
14968
14239
14154
13335
13415
12723
12897
12341
12591
12223
12452
12246
12416
12389
12440
12578
12515
12782
12546
12924
12632
13064
12704
13129
12747
13128
12756
13180
12797
13156
12732
13125
12751
13195
13036
13400
13272
13423
13322
13306
13317
13043
13210
12925
13248
12883
13291
12951
13479
13148
14225
15230
17758
17739
14286
12078
12776
13339
13508
13679
13519
13769
13434
13714
13312
13709
13298
13758
13408
13798
13466
13849
13697
14033
14089
14347
14567
14742
15152
15144
15509
15199
15525
15125
15343
14559
14551
13723
13666
12998
13059
12661
12702
12509
12482
12524
12382
12591
12354
12680
12497
12562
12456
12593
12377
12694
12390
12785
12468
12887
12457
12858
12490
12853
12536
12747
12433
12685
12618
12823
13045
12990
13209
12981
13270
12940
13255
12797
13166
12783
13190
12863
13270
13024
13434
13478
14373
15479
17490
17792
14243
12117
12460
13444
13357
13776
13442
13837
13389
13769
13403
13732
13480
13752
13638
13814
13821
13881
14029
13929
14267
14177
14709
14575
15275
15020
15522
15209
15571
15132
15314
14778
14581
13954
13655
12957
13034
12551
12635
12352
12370
12268
12209
12359
12180
12470
12167
12468
12064
12463
12076
12467
12089
12515
12138
12422
12185
12422
12308
12311
12165
12072
12285
12097
12537
12381
12859
12576
13044
12584
12995
12577
12895
12539
12849
12658
12879
12874
12958
13149
13307
14527
15928
17294
16556
12286
10994
12440
12845
13659
13340
13805
13581
13920
13746
13944
13919
13992
14132
14047
14306
14105
14505
14257
14788
14578
15228
15187
15777
15630
16085
15665
16032
15487
15737
15082
15086
14296
14101
13449
13249
12916
12724
12604
12356
12498
12200
12494
12093
12515
12106
12592
12203
12670
12351
12692
