13810
14196
14590
14479
14745
14770
15100
15289
15323
15471
15227
15436
15063
15164
14444
14403
13600
13507
12735
12826
12279
12463
12166
12270
12210
12274
12303
12266
12513
12319
12595
12343
12660
12340
12710
12333
12907
12513
12825
12575
12798
12627
12742
12658
12644
12676
12654
12813
12531
12816
12535
12820
12610
13244
12929
13359
13050
13373
13078
13257
13065
13186
13070
13102
13166
13070
13276
13181
13854
14304
16043
16927
16766
12232
11918
12426
13350
13129
13588
13151
13708
13441
13699
13440
13730
13587
13711
13663
13762
13932
13920
14171
14009
14501
14393
15065
14837
15409
15177
15576
15173
15365
15024
15004
14447
14136
13641
13246
13034
12750
12821
12481
12799
12451
12828
12451
12790
12483
12894
12572
12907
12666
12862
12745
12850
12858
12781
12849
12851
13012
12775
13055
12701
13035
12617
13042
12733
13173
12755
12995
12758
12984
13100
13224
13279
13296
13422
13441
13336
13425
13209
13116
13207
13068
13328
13068
13499
13774
14941
15995
17226
15823
12043
11451
12472
13051
13481
13369
13488
13593
13616
13679
13476
13786
13504
13852
13575
14040
13750
14180
13823
14199
14056
14660
14609
14972
15008
15351
15403
15293
15320
14970
14942
14228
14135
13472
13447
12797
12989
12476
12724
12288
12444
12188
12578
12499
12504
12524
12469
12643
12491
12735
12475
12872
12590
12986
12595
12925
12541
12898
12560
13059
12756
13099
12725
13122
12718
12969
12668
12826
12742
12911
13038
13080
13276
13075
13341
13043
13397
12930
13206
12784
13166
12777
13193
12941
13379
13398
14351
15185
16360
16448
13390
11281
11785
12870
13045
13604
13362
13796
13494
13916
13545
13919
13646
13981
13851
14160
14204
14282
14344
14284
14685
14571
15050
14925
15445
15290
15805
15369
15637
15148
15316
14766
14680
14014
13752
13338
12983
12875
12620
12692
12484
12620
12711
12738
12602
12764
12575
12901
12586
12943
12575
12975
12610
13009
12618
12940
12596
12770
12563
12710
12650
12665
12738
12559
12836
12582
12944
12751
13193
12931
13342
12948
13299
12974
13239
12847
13051
12912
13022
12980
13042
13307
13627
14678
15885
16981
15668
11526
10901
12233
12550
13260
13080
13490
13253
13446
13424
13540
13570
13546
13652
13538
13819
13594
13990
13752
14258
14004
14572
14377
14925
14931
15295
15118
15415
15004
15285
14864
14612
13994
13682
13193
13042
12830
12773
12741
12655
12841
12742
12878
12743
12889
12753
12950
12806
13013
12781
12879
12694
12782
12620
12732
12763
12656
12680
12687
12749
12614
12738
12641
12812
12839
13223
13234
13467
13312
13337
13231
13371
13361
13453
13520
13483
13516
13596
13899
14769
16507
17677
17638
14062
10930
11796
12777
13213
13497
13574
13722
13716
13679
13623
13579
13625
13640
13816
13740
13851
13892
14073
14124
14334
14441
14754
14920
15277
15329
15512
15426
15526
15234
15007
14540
14134
13702
13299
13067
12776
12758
12536
12564
12388
12550
12428
12669
12499
12680
12577
12665
12647
12911
12847
12869
12792
12717
12780
12685
12724
12554
12639
12365
12457
12338
12455
12342
12603
12569
12844
12837
12841
12744
12690
12650
12614
12693
12643
12671
12689
12894
12941
13493
14611
16489
17023
15928
10959
11136
11880
12613
12813
12986
13059
13290
13245
13317
13217
13462
13487
13599
13642
13717
13828
13852
14075
14071
14310
14343
14598
14757
15196
15076
15115
15038
15054
14781
14524
13986
13528
13068
12790
12666
12426
12435
12204
12280
12155
12342
12251
12444
12262
12478
12483
12643
12597
12705
12697
12736
12878
12910
13003
12958
13092
12971
13179
13028
13193
13180
13342
13298
13615
13593
13799
13762
13898
13884
13813
13725
13572
13593
13375
13553
13670
13985
14012
14654
15903
17745
18132
15088
12189
12828
13410
13911
13848
14005
13878
13972
13914
13993
13906
13896
13879
13815
13919
13993
14116
14018
14194
14111
14328
14492
14876
14831
15141
15113
15128
14941
14902
14671
14316
13913
13365
13001
12570
12585
12402
12440
12311
12444
12261
12363
12199
12455
12420
12401
12314
12351
12352
12337
12385
12340
12491
12357
12493
12387
12530
12360
12533
12359
12457
12304
12488
12448
12715
12774
12930
12982
12949
12980
13070
12944
12845
12741
12916
13056
12970
13076
13126
13538
13959
15010
16320
16586
12853
11151
11719
12740
12966
13128
13105
13141
13138
12992
13148
13284
13416
13388
13600
13491
13748
13768
14069
14042
14461
14468
14794
14832
15129
15240
15343
15402
15236
15304
15007
14809
14234
13935
13325
13162
12718
12903
12468
12584
12306
12386
12466
12535
12566
12448
12719
12529
12806
12427
12754
12454
12908
12617
13039
12658
12926
12639
13040
12710
13081
12686
13013
12758
13166
13024
13209
13317
13405
13353
13203
13250
12943
13159
12768
13142
12712
13215
12977
13515
14085
15844
16556
16835
12458
10915
11787
12712
13116
13002
13331
13183
13546
13255
13661
13148
13635
13292
13826
13554
14046
13871
14145
14191
14494
14646
14750
15170
15239
15563
15361
15722
15395
15668
14987
14913
14079
14100
13266
13213
12668
12621
12413
12490
12439
12424
12627
12491
12804
12465
12886
12739
13035
12904
13305
13053
13371
12885
13254
12693
13228
12748
13019
12717
13131
12964
13188
13110
13063
13042
12885
12929
12692
12969
12675
13012
12737
13136
13003
13549
13986
15553
16576
17280
14272
10782
11547
12430
13121
13105
13379
13318
13605
13290
13550
13253
13812
13392
13794
13422
13728
13497
13739
13842
14231
14335
14493
14797
14840
15192
15006
15383
14884
15183
14625
14721
13934
13930
13182
13115
12606
12606
12258
12460
12312
12671
12422
12684
12487
12630
12722
12729
12738
12609
12903
12668
13079
12738
13048
12718
13087
12497
12905
12715
13017
12814
13135
13056
13255
13272
13189
13257
13034
13199
12946
13221
12824
13266
12876
13476
13476
14860
16071
17428
17019
12670
11300
12331
13020
13217
13371
13259
13557
13295
13656
13347
13742
13339
13823
13454
13835
13545
13816
13798
14146
14106
14413
14604
14665
15061
14949
15367
15039
15281
14737
14929
14100
13857
13310
13520
12879
13057
12557
12892
12495
12798
12349
12800
12641
12755
12622
12815
12819
12755
13042
12889
13207
12918
13258
12777
13183
12776
13132
12725
12996
12675
13051
12865
13033
13057
13146
13168
12964
13101
12787
13041
12766
13150
12750
13274
13003
13473
13841
15275
16539
17604
14903
11434
11876
12565
13162
13095
13362
13162
13384
13045
13648
13226
13693
13275
13731
13451
13865
13662
13980
13950
14188
14337
14502
14832
14865
15090
15421
15356
15261
15230
14780
14571
13896
13809
13053
13164
12533
12746
12254
12653
12206
12490
12224
12481
12262
12335
12352
12430
12567
12341
12720
12482
12763
12321
12797
12477
12816
12621
13046
12675
12969
12660
12893
12801
12918
13056
13159
13396
13128
13369
13072
13350
12875
13244
12788
13192
12810
13201
12855
13204
13213
14178
15379
16976
17304
13476
11501
11909
12912
13003
13489
13131
13672
13300
13724
13294
13630
13468
13944
13537
13957
13609
14047
13824
14245
14162
14546
14689
14935
15107
15049
15200
14918
15122
14540
14594
13848
13939
13129
13060
12401
12578
12218
12438
12244
12338
12259
12281
12535
12367
12539
12314
12600
12221
12598
12245
12722
12365
12834
12610
12910
12615
12775
12592
12620
12619
12601
12750
12553
12668
12347
12752
12521
13190
12911
13396
13028
13435
13103
13329
13129
13220
13128
13241
13182
13099
13253
13072
13517
13958
15317
16994
17146
13180
11799
12074
13121
13071
13620
13349
13746
13301
13636
13341
13689
13413
13593
13457
13610
13772
13834
14079
13929
14384
14172
14607
14470
15125
14903
15387
15018
15338
14898
15001
14353
14150
13775
13434
13132
12798
12776
12442
12667
12321
12832
12459
12866
12474
12985
12640
12993
12717
12973
12886
13017
12899
13078
13171
13003
13234
12925
13283
12974
13352
13101
13249
13034
13242
13062
13181
13039
13233
13261
13530
13527
13852
13745
13950
13688
13660
13422
13506
13391
13360
13338
13250
13382
13352
14052
14664
16458
16945
15302
11780
12184
12696
13361
13430
13568
13625
13639
13763
13762
13801
13793
13964
13849
14016
13932
14086
14066
14466
14469
14662
14723
15079
15220
15483
15509
15443
15314
15155
15008
14635
14388
13914
13583
13089
12965
12817
12828
12542
12493
12326
12304
12401
12431
12445
12407
12521
12552
12641
12573
12707
12576
12690
12588
12932
12821
12833
12678
12771
12634
12737
12676
12843
12783
12860
12743
12785
12842
12879
13062
13122
13207
13114
13303
13266
13339
13161
13140
12974
13074
13000
13129
13121
13358
13577
14288
15162
16449
16646
13630
11393
11906
12708
12969
13182
13204
13340
13237
13359
13314
13407
13361
13476
13534
13599
13685
13788
13910
13954
14145
14185
14588
14678
14877
14923
15102
15033
15101
14984
14941
14553
14259
13896
13510
13236
13006
12973
12887
12892
12953
12942
12822
12858
12832
12896
12779
12810
12638
12745
12613
12758
12668
12770
12676
12771
12715
12816
12840
12833
12881
12848
12826
12735
12870
12868
13075
13063
13215
13191
13385
13245
13320
13194
13272
13183
13239
13231
13266
13368
13488
13692
14575
15988
16967
17147
13334
11115
11935
12919
13317
13569
13585
13783
13725
13783
13693
13651
13782
13829
13914
13871
14091
14016
14166
14070
14311
14357
14675
14815
15146
15198
15350
15141
15205
14945
14770
14342
14039
13591
13268
13077
12816
12648
12529
12537
12389
12439
12360
12589
12505
12702
12665
12839
12780
12953
12913
12946
12927
12931
12944
12879
12924
12781
12833
12703
12780
12773
13029
13062
13228
13217
13410
13310
13348
13215
13205
13196
13256
13310
13319
13371
13506
14016
15014
16699
17048
16268
11339
11089
11962
12904
13223
13388
13367
13437
13482
13524
13522
13428
13464
13402
13565
13522
13690
13833
14000
13988
14223
14365
14711
14883
15211
15147
15299
15132
15111
14791
14534
14037
13612
13193
12841
12620
12537
12465
12327
12359
12210
12297
12251
12429
12319
12455
12393
12501
12501
12544
12655
12760
12737
12773
12796
12705
12782
12671
12715
12554
12685
12565
12805
12754
12998
13060
13213
13127
13225
13173
13118
13039
13055
13040
13034
13262
13229
13421
13433
14312
15493
17086
17306
13889
11417
12076
12677
13118
13294
13348
13449
13437
13197
13259
13286
13402
13530
13547
13585
13554
13733
13751
13971
13980
14259
14475
14832
15005
15288
15293
15297
15227
15138
14910
14663
14279
13839
13582
13230
13195
13014
13002
12777
12841
12711
12863
12709
12711
12637
12625
12647
12693
12746
12690
12825
12757
12810
12673
12664
12618
12865
12654
12621
12456
12529
12469
12602
12690
12902
13122
13154
13202
12992
12991
12754
12901
13012
13162
13164
13380
13292
13489
13846
13744
13535
14095
14408
14277
14146
14007
13893
13756
13827
13518
13606
13483
13430
13383
13555
13385
13650
13779
13898
13977
14264
14482
14672
14953
14944
14955
14790
14765
14382
14132
13603
13262
12780
12614
12237
12238
12021
12133
12095
12063
12093
12270
12327
12295
12347
12368
12540
12484
12513
12364
12712
12610
12635
12552
12530
12409
12347
12250
12319
12400
12461
12723
12817
12942
12719
12694
12325
12339
12350
12460
12403
12691
12829
13165
13319
14281
15036
16324
16391
13154
11156
12052
12922
13486
13461
13601
13755
13755
13839
13848
13934
14048
14183
13964
14139
14025
14083
13986
14305
14485
14712
14832
15017
15278
15359
15519
15359
15383
15140
15331
14948
14616
14042
13794
13324
13227
13111
13030
12938
12894
12893
12780
12874
12864
12832
12798
12829
12573
12652
12462
12555
12345
12411
12134
12318
12281
12046
12478
12746
12899
12935
12992
12994
13018
12806
12999
12977
13170
13144
13274
13076
13267
13143
14265
15438
16435
16147
12521
10128
11315
12084
12643
12784
12996
13275
13115
13272
13161
13327
13069
13287
13241
13480
13397
13487
13520
13705
13843
14102
14267
14543
14677
14823
14849
14870
14794
14464
14422
14062
13646
13090
12913
12611
12481
12319
12351
12304
12327
12192
12205
12267
12421
12564
12603
12358
12261
12318
12202
12165
12113
12192
12079
12236
12385
12584
12654
12921
13054
13087
13076
13099
12963
12944
12910
12920
12958
12964
13236
13393
14700
16472
16863
16362
12040
10604
11873
12592
13163
13354
13591
13753
13757
13816
13900
13911
13842
13906
13843
13901
13870
13939
14022
14269
14343
14523
14716
15053
15201
15254
15282
15280
15195
15065
14850
14400
14018
13611
13327
13070
12943
12800
12833
12789
12798
12799
12877
12872
12924
12929
12943
12992
12968
12994
12941
12994
12949
12929
12887
13030
13012
13128
13182
13306
13247
13273
13034
13090
13090
13016
13053
13152
13087
13089
13051
14003
15639
15916
15510
11107
9938
10806
11674
12180
12329
12286
12407
12500
12585
12598
12679
12707
12809
12966
13086
13213
13284
13460
13533
13706
13818
14106
14241
14520
14570
14639
14654
14703
14498
14278
13909
13574
13197
12953
12969
12833
12827
12739
12794
12726
12820
12806
12909
12783
12814
12867
12979
12951
12997
13026
12999
13020
12934
12962
12970
13100
13230
13454
13447
13421
13305
13328
13081
13100
13028
12859
12934
13194
13112
13354
13666
14353
15845
16924
16821
12165
11690
12303
12847
12998
13049
13470
13170
13540
13362
13742
13582
13713
13960
13910
14041
14079
14149
14336
14487
14720
14901
15100
15163
15615
15702
15766
15593
15527
15266
14920
14528
14108
13678
13456
13141
12952
12834
12819
12805
12797
12864
12840
12923
12830
12923
12914
12985
12944
13011
12918
12910
12941
12950
12811
13028
13131
13222
13222
13281
13207
13174
13151
13031
13055
13043
13081
13044
13125
13240
13391
13944
15082
16379
16871
14216
11480
12080
12838
13178
13235
13284
12909
12624
13021
13427
13383
13503
13515
13629
13680
13815
13816
13919
14023
14232
14438
14643
14886
15018
15214
15360
15392
15246
15211
14850
14606
14291
14065
13676
13485
13274
13210
13096
13109
13072
13085
13094
13066
13064
12978
12996
12865
12904
12724
12750
12639
12657
12588
12655
12573
12749
12792
12968
13096
13248
13257
13355
13329
13257
13225
13096
13045
12908
12829
12781
12878
12848
13032
13356
14077
15759
17196
15986
11974
11646
12316
12719
12890
12938
12959
13067
13120
13213
13223
13278
13237
13313
13262
13344
13327
13432
13465
13576
13743
13959
14155
14458
14542
14705
14777
14740
14739
14488
14177
13680
13385
12923
12646
12444
12451
12318
12466
12485
12489
12510
12555
12595
12599
12597
12603
12686
12665
12647
12638
12673
12679
12834
12845
12894
12862
12934
12885
12918
12791
12911
12978
13156
13284
13367
13402
13398
13415
13396
13297
13217
13127
13014
13034
12956
13089
13000
13232
13428
14007
14672
16559
17050
14845
11973
12317
13016
13384
13507
13573
13663
13683
13815
13750
13832
13808
13839
13786
13818
13768
13781
13817
13950
14029
14194
14384
14586
14775
14876
15018
14976
15042
14921
14832
14507
14234
13737
13432
13168
13033
12826
12834
12763
12757
12662
12722
12731
12752
12803
12771
12755
12730
12750
12653
12747
12706
12785
12816
12872
12801
12800
12744
12756
12683
12720
12715
12741
12643
12702
12834
12965
13176
13158
13274
13214
13345
13258
13205
13106
13073
12990
12943
12990
13114
13121
13241
13513
14058
14931
16289
16258
13033
11482
12130
12922
13192
13421
13425
13449
13397
13460
13438
13451
13550
13602
13603
13675
13738
13784
13848
13893
14182
14383
14574
14827
15063
15055
15116
14993
14908
14756
14515
14155
13821
13432
13120
12839
12675
12607
12528
12533
12525
12594
12619
12668
12594
12695
12761
12847
12751
12739
12697
12716
12663
12701
12733
12760
12738
12716
12694
12777
12860
12751
12863
12926
12950
12859
13015
12962
12942
12866
12981
13024
13256
13288
13365
13321
13409
13386
13318
13359
13344
13332
13287
13331
13260
13324
13369
13833
14521
15847
16510
16045
11834
11446
12465
13207
13213
13209
13261
13374
13214
13280
13274
13394
13370
13438
13611
13666
13876
13941
14099
14103
14413
14490
14808
14790
15070
15029
15050
14850
14887
14711
14451
14107
13796
13387
12948
12657
12357
12248
11967
11992
11881
12124
11993
12144
12061
12277
12292
12393
12358
12451
12467
12416
12451
12408
12513
12371
12303
12115
12263
12061
12263
12384
12719
12720
13041
13012
13209
13199
13212
13163
13216
13313
13376
13555
13589
14024
14636
16146
17846
17931
16229
11868
11630
12990
13300
14047
13911
14275
14187
14406
14152
14229
14248
14330
14473
14359
14528
14352
14685
14506
14889
14662
15122
14872
15489
15090
14969
14995
16115
15976
15586
15094
14606
14177
13579
13391
12729
12837
12426
12680
12340
12782
12565
12816
12568
12879
12647
12725
12690
12910
12945
13011
13102
12990
13092
12393
12827
12914
13518
12914
13150
13022
13497
13143
13264
12808
12785
12541
12847
12487
12834
12476
12806
12621
13374
14808
16522
16136
14225
10191
10442
11723
11916
12879
12510
13177
12860
13338
12914
13210
13045
13414
13236
13328
13343
13418
13608
13604
14117
13952
14645
14660
15203
15008
15490
15202
15387
14970
14957
14493
13986
13380
12979
12761
12461
12452
12019
12184
11693
11929
11616
11961
11600
11918
11609
11869
11672
11759
11755
11932
11977
12095
12136
12175
12560
12427
13067
12909
13418
13288
13606
13284
13610
13225
13447
13124
13383
12959
13348
13255
13648
14513
16286
16723
16274
13687
11067
12172
13018
13821
13758
14161
14121
14591
14240
14661
14434
14863
14632
14910
14849
15139
15183
15198
15258
15300
15672
15654
16105
15998
16364
15963
16260
15751
15823
15222
15095
14206
14202
13702
13510
13185
13018
12947
12939
12899
12622
12839
12614
12849
12388
12841
12573
12900
12586
12854
12573
12842
12786
12886
12871
12779
12918
12824
12728
13027
13028
13045
13169
13078
13156
12826
13070
12694
12973
12612
12971
12646
13014
12891
13429
14100
15943
15971
15663
12385
10945
11865
12537
13195
13118
13453
13236
13607
13276
13633
13350
13704
13384
13706
13520
13782
13683
13896
14023
14136
14411
14491
14895
14885
15273
14942
15205
14741
14936
14295
14157
13437
13303
12797
12743
12554
12584
12594
12485
12624
12468
12680
12407
12751
12416
12731
12359
12768
12482
12844
12617
13027
12790
13201
12883
13180
12899
13142
12966
13115
13026
13096
13176
13096
13234
13004
13203
12936
13190
12818
13161
12818
13129
12811
13152
12900
13151
12980
13162
13083
13113
13237
13193
13442
13299
13596
13310
13644
13299
13609
13265
13600
13205
13486
13274
13475
13298
13425
13347
13314
13311
13124
13327
13204
13643
13284
13659
13337
13726
13457
13754
13431
13735
13406
13551
13459
13605
13706
13998
14314
15023
17378
17429
15061
12608
13139
13356
13563
13306
13555
13219
13569
13223
13544
13196
13574
13288
13580
13336
13569
13504
13621
13681
13779
13986
13971
14384
14388
14884
14655
14986
14559
14791
14281
14372
13695
13570
12979
12825
12501
12379
12330
12252
12354
12229
12506
12278
12647
12296
12647
12353
12750
12457
12838
12617
12883
12711
12900
12820
12828
12819
12698
12851
12696
12916
12657
13015
12694
13071
12759
13189
12928
13256
13034
13293
13128
13254
13175
13373
13128
13362
13041
13104
13035
13143
13331
13293
13513
13368
13565
13355
13702
13330
13692
13297
13590
13255
13618
13373
13917
14209
14262
15923
17385
16709
13036
12535
12815
13419
13229
13655
13352
13747
13362
13707
13322
13628
13349
13558
13435
13557
13540
13599
13750
13687
13975
13900
14388
14342
14963
14772
15269
14962
15272
14839
14938
14379
14115
13502
13169
12831
12560
12544
12359
12588
12379
12753
12436
12783
12406
12779
12481
12770
12457
12868
12489
12835
12468
12819
12524
12790
12618
12820
12630
12733
12800
12794
12910
12759
13000
12803
13186
12868
13260
12934
13338
12979
13239
12899
13277
13154
13463
13438
13487
13496
13434
13593
13385
13553
13150
13364
12999
13297
12905
13329
13186
14043
14079
15627
16112
15119
11600
11549
12448
12985
13346
13268
13679
13440
13775
13495
13932
13607
13851
13790
14043
13842
13961
14041
14281
14391
14605
14841
15107
15489
15839
15922
16007
15887
15658
15553
15124
14766
14128
13804
13171
13046
12579
12645
12290
12433
12232
12374
12322
12469
12434
12525
12472
12343
12324
12283
12500
12416
12576
12343
12464
12299
12601
12330
12403
12214
12397
12282
12387
12325
12319
12324
12228
12404
12353
12523
12490
12593
12507
12683
12498
12726
12541
12524
12265
12451
12444
12555
12639
12812
13261
14018
15381
16002
15492
12050
10691
11472
12413
12753
13050
13044
13431
13328
13619
13439
13653
13599
13932
13926
14225
14184
14464
14606
14748
14956
15073
15440
15667
16068
16101
16342
16193
16251
16052
15946
15269
15009
14471
14258
13837
13588
13491
13416
13380
13280
13279
13320
13413
13268
13448
13334
13506
13424
13618
13553
13589
13558
13690
13607
13548
13500
13577
13610
13535
13539
13291
13388
13261
13384
13332
13550
13408
13636
13477
13487
13323
13272
13105
13197
13211
13156
13157
13134
13400
14051
15118
16679
16659
14723
11182
11524
12467
12959
13315
13274
13558
13507
13720
13560
13638
13530
13588
13562
13638
13611
13683
13850
13880
14059
14130
14425
14498
14924
14918
15232
15065
15157
14931
14857
14491
14192
13685
13347
13062
12722
12596
12324
12330
12146
12239
12079
12286
12207
12329
12160
12332
12189
12340
12323
12443
12499
12634
12656
12657
12721
12605
12744
12558
12697
12498
12635
12513
12726
12735
12962
12995
13132
13081
13229
13030
13095
13034
13151
13084
13095
13091
13301
13624
14519
16090
16670
16030
12094
11136
11877
12780
12943
13175
13168
13400
13305
13456
13403
13486
13460
13512
13527
13465
13598
13607
13803
13825
14110
14158
14543
14629
15037
15057
15196
15081
15189
14970
14719
14362
13979
13550
13137
13006
12748
12709
12516
12559
12386
12569
12466
12659
12582
12731
12655
12798
12865
12940
12948
12922
12949
12853
12920
12783
12896
12753
12865
12957
13043
12872
13020
12871
13119
13117
13365
13317
13553
13432
13527
13444
13397
13335
13307
13299
13226
13294
13176
13567
13729
15043
16223
16692
14909
11299
11256
12300
12884
13111
13183
13271
13374
13458
13617
13570
13796
13687
13899
13770
14141
13934
14333
14123
14581
14459
14898
14883
15325
15360
15410
15439
15342
15406
15005
14949
14241
14039
13332
13372
12809
13045
12555
12728
12342
12580
12448
12581
12448
12467
12570
12602
12598
12878
12839
12837
12791
12736
12819
12615
12852
12577
12872
12501
12828
12506
12919
12696
13079
12820
13169
12982
13150
13003
12987
12944
12923
13079
12898
13113
12862
13282
13104
14268
15271
16679
15712
13498
10359
11523
12222
13050
13184
13279
13401
13366
13612
13497
13825
13611
13960
13695
14182
13902
14318
14135
14540
14449
14872
14925
15332
15521
15689
15812
15661
15703
15324
15312
14572
14461
13623
13569
12892
12995
12515
12737
12418
12687
12333
12621
12275
12596
12403
12667
12498
12740
12715
12763
12868
12751
12921
12672
13047
12778
13076
12723
13110
12774
13069
12701
12912
12729
12932
12882
13098
13138
13217
13324
13198
13285
13003
13186
12743
12961
12637
13040
12667
13054
12961
13650
14394
16329
16819
15434
11547
11432
12304
12697
13076
12945
13380
13078
13448
13169
13504
13199
13562
13283
13559
13369
13584
13538
13706
13781
13862
14165
14254
14701
14900
15041
15089
15166
14894
14833
14180
14070
13287
13270
12634
12792
12350
12613
12272
12509
12292
12566
12475
12565
12593
12526
12690
12566
12754
12483
12832
12652
12995
12664
13031
12729
13086
12835
13052
12794
12897
12775
12701
12691
12677
12848
12685
13075
12945
13327
13004
13332
12919
13214
12829
13076
12815
13062
12920
13098
13091
13314
13706
14129
15664
16803
16244
12273
11719
12159
13217
13132
13565
13327
13665
13452
13670
13483
13965
13671
14010
13817
14117
14048
14278
14296
14358
14480
14575
14926
14923
15296
15054
15373
14951
15179
14660
14703
13995
13838
13150
13089
12734
12751
12604
12589
12655
12544
12798
12641
12987
12688
13017
12678
13032
12629
12906
12568
12906
12698
12938
12815
12958
12948
12955
13045
12910
13095
12792
13065
12836
13226
12970
13352
13126
13500
13181
13424
13181
13298
13038
13071
13056
13050
13168
13109
13410
13440
14298
14621
17074
16826
13992
11523
12505
13014
13745
13478
13946
13653
13966
13644
13921
13745
14027
13910
13997
14032
14053
14151
14025
14320
14186
14689
14580
15125
14957
15414
15154
15454
15095
15235
14845
14665
14079
13762
13435
13092
13027
12707
12859
12559
12913
12543
12930
12704
13035
12692
13060
12821
13064
12830
12944
12852
12917
12957
12913
13060
12847
13041
12745
13075
12700
12959
12670
13093
12806
13154
13064
13399
13285
13378
13290
13461
13201
13369
13139
13365
13292
13358
13413
13537
14012
14851
16763
16719
15909
11407
11245
11931
13076
13166
13544
13456
13772
13638
13792
13747
13808
13959
13923
14150
13989
14303
14023
14445
14252
14729
14495
15020
14910
15353
15181
15346
15075
15049
14785
14513
14272
13750
13539
12993
12992
12449
12653
12235
12545
12184
12488
12259
12559
12367
12582
12532
12679
12732
12781
12862
12716
12888
12694
12935
12537
12886
12539
12929
12713
13106
12918
13366
12992
13208
12815
13082
12682
12876
12684
12832
12759
12830
12916
13123
13768
15022
16898
15895
14494
10025
10903
11660
12820
12935
13387
13272
13631
13433
13612
13520
13598
13654
13641
13806
13724
13976
13827
14252
14088
14630
14509
15062
14937
15402
15167
15343
15059
15057
14743
14380
13959
13475
13295
12825
12882
12473
12647
12259
12589
12191
12493
12214
12567
12370
12687
12590
12740
12685
12780
12889
12745
12850
12817
12810
12764
12736
12638
12787
12618
12941
12764
13178
12917
13269
12898
13142
12680
12933
12665
12849
12731
12856
12787
12977
13266
14052
15718
16506
16317
12506
10758
11442
12683
12886
13308
13129
13548
13378
13566
13442
13531
13522
13542
13665
13604
13825
13658
14091
13976
14478
14352
14961
14810
15301
15141
15417
15147
15284
15000
14794
14428
13985
13682
13237
13215
12806
12997
12601
12842
12466
12759
12377
12684
12405
12638
12424
12886
12581
12868
12583
12869
12694
12897
12760
12816
12679
12558
12638
12470
12775
12698
13014
12813
13168
12802
13154
12760
13001
12729
12975
12772
12940
12918
13089
13302
13674
14661
16277
17414
15819
11936
11364
12514
12823
13335
13087
13519
13299
13585
13461
13642
13568
13578
13641
13652
13840
13670
13959
13736
14191
14004
14541
14383
14896
14765
15178
14927
15092
14805
14718
14318
13921
13586
13131
12999
12555
12710
12350
12593
12556
12772
12622
12916
12633
12960
12637
12992
12695
13023
12720
13012
12726
12963
12819
12950
12888
12778
12781
12625
12819
12583
12883
12754
13136
12867
13296
12947
13233
12853
13023
12752
12945
12850
12955
12914
12932
13202
13379
14242
15363
17185
16280
12783
11039
12091
12464
13003
12832
13145
12943
13145
13076
13158
13199
13220
13367
13335
13594
13400
13815
13666
14148
13973
14554
14395
14912
14844
15200
15010
15111
14924
14912
14349
14205
13557
13356
12924
12838
12728
12644
12726
12561
12785
12549
12917
12604
12941
12582
12869
12573
12872
12626
12902
12716
12899
12803
12857
12841
12796
12926
12654
12831
12542
12889
12572
13020
12784
13206
12999
13312
13035
13220
12970
13099
13011
13003
13046
12965
13173
13069
13611
13830
14832
16125
17104
15152
11763
11503
12675
12994
13367
13299
13534
13556
13581
13716
13653
13845
13670
14043
13736
14078
13838
14293
16473
16959
16780
16767
16515
16270
16113
15624
15319
14596
14336
13572
13525
12840
13027
12584
12814
12480
12730
12461
12590
12393
12432
12437
12418
12511
12349
12478
12236
12455
12054
12407
12081
12458
12188
12513
12173
12341
12161
12386
12320
12517
12617
12616
12812
12592
12812
12551
12834
12457
12833
12523
12854
12575
12931
12768
13178
13691
14975
16418
16258
12926
10769
11744
12404
13071
12914
13398
13164
13597
13308
13636
13386
13801
13553
13952
13657
14081
13828
14205
14098
14520
14561
14961
15132
15333
15420
15326
15407
15052
15063
14511
14485
13717
13650
12984
13105
12666
12825
12535
12733
12576
12701
12716
12780
12838
12781
13030
12806
13066
12711
13058
12701
13007
12602
12909
12615
12896
12655
12825
12603
12720
12786
12820
13004
12933
13259
13114
13384
13054
13365
12993
13319
12968
13290
13021
13358
13192
13602
13806
14691
16193
17285
16625
12355
11417
12620
13315
13509
13679
13522
13730
13509
13805
13524
13871
13565
13931
13704
14114
13915
14293
14209
14512
14570
14814
15027
15188
15429
15269
15489
15085
15237
14737
14755
14050
13997
13334
13410
12914
12991
12645
12735
12682
12741
12755
12686
12823
12664
12932
12688
13059
12731
13047
12701
13003
12691
13049
12785
12976
12721
12775
12689
12743
12780
12721
12976
12855
13227
13019
13421
13051
13348
12949
13241
12948
13249
13052
13335
13276
13907
14266
15875
17176
17340
14459
10845
11625
12715
13436
13473
13700
13606
13915
13675
14056
13715
14115
13845
14176
13906
14288
14072
14371
14301
14532
14611
14827
15024
15028
15259
15094
15329
14812
14966
14404
14465
13718
13638
12964
12971
12580
12677
12282
12281
12316
12374
12558
12495
12779
12625
12971
12691
13044
12719
13128
12689
13009
12690
12908
12642
12847
12765
12924
13034
12996
13159
12997
13148
12768
12975
12562
12944
12774
13002
12732
13063
12790
13332
13710
15797
16915
15955
13422
9957
10641
11903
12573
13000
13062
13085
13209
13018
13432
13275
13796
13443
13838
13543
13894
13567
14022
13892
14300
14229
14653
14796
15042
15131
15024
15137
14888
14966
14424
14427
13688
13661
12961
13071
12566
12715
12281
12416
12208
12404
12440
12536
12592
12589
12832
12635
12950
12751
13041
12676
13005
12696
12996
12658
12956
12707
13015
12901
13032
13015
13113
13265
13031
13115
12927
12872
12779
12528
12555
12621
13419
13653
15250
16666
16386
14431
10384
10340
11757
12302
12968
12935
13229
13199
13374
13436
13454
13544
13473
13775
13449
13833
13620
13969
13739
14311
14048
14592
14471
14867
14786
14986
14902
14919
14781
14396
14265
13684
13529
12987
13120
12567
12774
12411
12788
12549
12857
12618
12767
12660
12803
12751
12761
12893
12881
13107
12925
13183
12832
13109
12723
13177
12973
13357
13229
13732
13398
13703
13283
13584
13097
13207
12941
13127
13003
13116
13079
13185
13505
14185
15500
16684
16753
13009
10738
11324
12524
12673
13124
12989
13373
13246
13503
13451
13560
13623
13662
13827
13724
13990
13815
14224
14012
14558
14317
14854
14742
15261
15112
15460
15285
15442
15205
14889
14385
13856
13608
13084
13036
12599
12742
12340
12637
12200
12526
12146
12495
12191
12470
12255
12480
12434
12533
12658
12571
12704
12491
12572
12693
12720
12711
12928
12893
13136
12943
13293
12940
13277
12850
13110
12675
12962
12709
13033
12883
13116
13278
13736
14233
15868
17340
16004
12293
11643
12763
12878
13316
13018
13424
13115
13418
13188
13452
13324
13522
13430
13494
13638
13590
13902
13809
14228
14055
14558
14436
15003
14820
15242
14914
15195
14870
14819
14290
14002
13528
13109
12919
12625
12702
12370
12682
12367
12756
12428
12789
12402
12771
12470
12767
12536
12902
12614
12984
12622
12889
12668
12886
12591
12648
12665
12755
12961
12909
13135
13013
13395
13082
13333
12919
13220
12832
13177
12930
13293
13113
13347
13426
13916
14483
16072
17572
16501
12546
11603
12628
12867
13381
13147
13642
13306
13695
13485
13847
13623
13811
13719
13780
13808
13851
14059
13896
14397
14256
14730
14572
15182
15007
15424
15177
15467
15013
15176
14738
14528
14012
13625
13375
13055
13096
12753
12894
12510
12824
12449
12708
12540
12813
12595
12988
12590
12916
12628
13003
12699
12945
12707
12995
12751
12771
12687
12807
12909
12958
13258
13181
13500
13236
13453
13055
13345
12954
13235
12956
13298
13097
13380
13253
13555
14247
15727
17137
16697
14133
10358
11570
12116
13136
12875
13262
13021
13404
13154
13528
13344
13628
13594
13779
13829
13889
14140
14039
14292
14243
14785
14702
15284
15150
15607
15243
15539
15162
15191
14703
14494
13873
13597
13181
12972
12529
12594
12432
12549
12482
12375
12459
12275
12466
12239
12530
12266
12635
12355
12717
12325
12701
12384
12676
12513
12766
12702
12838
12801
12781
12794
12573
12839
12642
13074
12885
13327
13024
13318
13012
13270
12987
13111
12814
12974
12954
13026
13138
13057
13331
13485
14695
16072
16734
15188
11267
10712
11961
12383
12921
12770
13041
12945
13156
13160
13234
13334
13231
13454
13255
13557
13397
13849
13649
14164
14072
14634
14759
15454
15316
15723
15395
15726
15256
15241
14561
14335
13811
13541
13179
12986
12931
12723
12849
12547
12802
12513
12844
12547
12918
12572
12888
12601
12856
12609
12840
12756
12878
12791
12767
12848
12742
12984
12743
12935
12629
12944
12560
12920
12596
13086
12975
13294
13143
13331
13209
13254
13187
13034
13109
13034
13227
13005
13345
13047
13565
13493
14753
16097
17452
16276
12439
11501
12473
13056
13360
13461
13506
13732
13694
13833
14017
14055
13986
14071
13957
14274
14052
14435
14230
14628
14419
14984
14879
15386
15297
15600
15369
15440
15154
14917
14535
13904
13504
12897
12851
12315
12422
11995
12327
12000
12339
12099
12491
12277
12640
12488
12665
12711
12738
12750
12730
12930
12753
13000
12706
13026
12690
13014
12681
12989
12681
12971
12727
12972
12778
12914
12816
12900
13105
13216
13401
13265
13546
13257
13560
13150
13408
12907
13162
12934
13223
12985
13356
13285
13999
14322
15894
17014
16590
12725
11787
12511
13109
13374
13377
13691
13512
13783
13516
13792
13464
13817
13469
13816
13564
13912
13766
14030
13988
14271
14457
14708
14962
15019
15332
15158
15365
14941
15099
14470
14415
13637
13527
12891
12910
12520
12555
12375
12402
12432
12365
12483
12298
12502
12285
12617
12288
12735
12484
12851
12543
12886
12562
12809
12612
12759
12636
12688
12818
12764
12947
12681
12982
12728
13178
13097
13386
13243
13465
13192
13475
13053
13287
12895
13311
13003
13346
13109
13383
13442
13788
14838
16655
16921
15777
12021
10560
11947
12568
13532
13346
13763
13514
13899
13604
13969
13751
13982
13871
13994
13966
14007
14082
14067
14388
14297
14755
14644
15272
15106
15501
15195
15517
15173
15258
14844
14680
14159
13849
13465
13236
13084
12778
12886
12457
12664
12378
12713
12355
12745
12420
12776
12507
12820
12626
12796
12691
12811
12671
13045
12816
12898
12700
12779
12740
12608
12652
12477
12644
12433
12817
12576
13022
12805
13312
13075
13478
13177
13403
13123
13243
13063
13114
13134
13129
13301
13203
13710
13698
15242
16563
16537
15213
11735
10841
12144
12691
13373
13237
13442
13455
13466
13471
13387
13510
13228
13445
13189
13579
13270
13644
13334
13823
13665
14149
14188
14741
14804
15187
15230
15261
15224
14962
14893
14329
14236
13590
13668
13131
13269
12820
13106
12734
13040
12773
13086
12753
13128
12852
13138
12882
13173
13042
13276
13227
13246
13327
13210
13402
13140
13362
13017
13366
12970
13246
12836
13108
12817
13120
12887
13127
13027
13142
13155
13066
13171
13116
13398
13272
13558
13342
13695
13401
13825
13438
13641
13303
13524
13245
13469
13355
13411
13575
13845
14568
16016
17422
16260
12750
11797
12734
12964
13479
13151
13516
13237
13485
13302
13503
13446
13511
13573
13582
13811
13657
13730
13944
14071
14119
14411
14506
14979
14888
15300
15004
15422
14961
15096
14427
14336
13603
13438
12909
12781
12520
12465
12399
12255
12454
12326
12592
12303
12635
12307
12653
12369
12708
12453
12741
12449
12724
12549
12727
12654
12721
12817
12773
12926
12748
12993
12734
13116
12802
13198
12861
13198
12909
13197
12958
13176
13045
13204
13228
13259
13301
13058
13322
13161
13583
13325
13722
13389
13800
13454
13833
13473
13627
13368
13623
13408
13751
13451
13932
14135
14715
16134
16950
15638
12208
12220
12732
13399
13264
13603
13374
13794
13454
13877
13613
13987
13746
14023
13820
14021
13969
14153
14278
14288
14552
14589
15077
15020
15520
15297
15726
15323
15632
15134
15178
14533
14298
13593
13382
12974
12781
12624
12470
12558
12344
12589
12281
12614
12199
12566
12222
12567
12228
12535
12296
12554
12420
12591
12572
12634
12729
12572
12702
12476
12748
12433
12822
12680
12845
12639
12866
12615
12972
12614
12990
12641
12878
12528
12861
12623
13032
13013
13242
13169
13202
13235
13047
13107
12738
12954
12644
12987
12746
13184
13149
14057
14176
15765
16335
15551
11872
11619
12381
13038
13236
13198
13482
13335
13616
13396
13827
13534
13923
13669
14065
13764
14074
14017
14305
14291
14599
14710
14863
15132
15171
15480
15287
15546
15127
15302
14644
14485
13648
13485
12702
12643
12178
12148
11989
12002
11752
12079
11879
11998
11844
11924
11861
11792
11909
11705
11907
11660
11909
11642
11933
11505
11706
11257
11531
11089
11308
11043
11084
10926
10951
10917
10865
10975
10748
10910
10420
10680
10357
10784
10482
10918
10659
10959
10667
10858
10671
10741
10583
10612
10686
10618
10889
10808
11354
11837
13136
14217
14744
12588
9369
9467
10661
11026
11345
11303
11505
11514
11498
11607
11491
11735
11466
11806
11531
11902
11698
12237
12018
12461
12365
12962
12814
13389
13165
13521
13204
13471
13162
13156
12756
12536
12166
11884
11830
11611
11777
11503
11821
11537
11876
11567
11973
11640
12006
11754
12075
11911
12117
12075
12148
12203
12232
12386
12231
12453
12180
12532
12152
12496
12108
12521
12217
12663
12540
12909
12829
13060
13030
13060
12981
12810
12825
12534
12697
12354
12730
12398
12834
12658
13986
15374
16599
15633
12772
9949
11203
12149
12851
13148
13117
13416
13272
13427
13581
13660
13671
13904
13779
14167
14052
14521
14312
14911
14767
15394
15398
16078
16091
16590
16490
16608
16411
16233
16013
15492
15232
14590
14529
13962
14143
13641
13954
13498
13842
13518
13880
13641
13872
13807
14029
14026
14052
14162
14009
14270
14059
14372
14021
14401
13995
14386
14041
14410
14042
14310
14128
14374
14211
14355
14354
14275
14279
14036
14356
14137
14540
14246
14786
14469
14804
14427
14652
14334
14585
14352
14735
14443
14815
14460
14973
15241
16135
17490
17985
16636
12906
13007
13636
14430
14245
14746
14532
14919
14477
14887
14514
14810
14472
14748
14560
14754
14733
14824
14912
14933
15278
15246
15768
15708
16229
15930
16249
15710
15898
15221
15212
14469
14227
13579
13357
13044
12814
12690
12484
12605
12385
12653
12289
12646
12410
12855
12535
12892
12538
12828
12581
12866
12737
12810
12774
12790
12829
12656
12875
12625
12962
12584
13013
12853
13156
12948
13247
12902
13315
13010
13538
13178
13558
13284
13627
13361
13447
13176
13179
13048
12969
13130
13067
13385
13244
13787
14215
15712
16701
16792
13428
11354
11737
12911
13133
13494
13581
13735
13773
13754
14032
13911
14185
13920
14350
14040
14468
14126
14575
14301
14760
14649
15115
15200
15588
15661
15746
15777
15619
15653
15177
15178
14521
14434
13597
13553
12958
13143
12649
12871
12586
12853
12765
12980
13004
13082
13098
13336
13100
13259
13198
13218
13287
13140
13329
13057
13289
12961
13304
13007
13383
12918
13265
12953
13294
13098
13438
13270
13460
13383
13391
13440
13215
13345
13111
13335
12938
13307
13033
13548
13419
14731
15924
17299
15995
13331
10165
11399
12368
12965
13333
13255
13624
13346
13692
13354
13720
13320
13739
13465
13835
13640
14087
13959
14233
14246
14494
14722
14859
15190
15134
15499
15189
15450
14965
15013
14304
14365
13639
13558
13038
13169
12603
12840
12381
12676
12443
12759
12562
12838
12678
12701
12878
12964
13163
12970
13262
12958
13260
12847
13229
12826
13179
12808
13192
12854
13118
13037
13312
13315
13422
13473
13336
13443
13125
13313
12967
13190
12827
13245
12961
13311
13189
14186
15413
17041
15992
13916
10079
10899
12021
12692
13215
13098
13556
13340
13753
13397
13844
13546
13977
13704
14105
13877
14171
14136
14361
14475
14582
14863
14972
15440
15296
15480
15521
15522
15261
15137
14403
14276
13580
13537
12831
12931
12458
12674
12231
12470
12160
12397
12294
12429
12491
12534
12669
12541
12848
12562
12923
12591
12935
12556
12941
12504
12916
12569
12901
12726
12959
12841
12837
12814
12734
12925
12817
13252
13108
13507
13219
13632
13232
13524
13142
13432
13141
13446
13323
13498
13417
13581
13953
14682
16289
17125
16721
12634
11820
12200
13318
13257
13652
13418
13732
13437
13704
13603
13864
13568
13825
13545
13860
13756
13997
13979
14108
14334
14471
14890
14881
15298
15031
15374
14988
15282
14758
14849
14053
13949
13245
13118
12771
12761
12598
12466
12522
12402
12657
12446
12790
12403
12754
12345
12744
12430
12852
12569
12928
12681
12879
12752
12804
12773
12757
12813
12555
12785
12557
12800
12400
12764
12392
12796
12514
13000
12806
13197
13111
13389
13312
13279
13158
13009
13116
12893
13149
12907
13264
12966
13631
14316
15912
16698
16250
12170
11623
11995
13045
12950
13410
13234
13505
13211
13436
13398
13510
13615
13641
13869
13712
14017
13794
14196
13989
14523
14380
14982
14808
15322
15104
15366
15165
15265
15022
14857
14538
14008
13803
13203
13295
12813
13067
12694
13028
12631
13016
12727
13032
12793
13015
12872
13035
12968
12992
13115
12979
13163
12900
13184
12751
13091
12696
13022
12694
13062
12746
12995
12809
13015
12851
12983
13003
12916
12757
13150
13147
13417
13410
13448
13494
13355
13540
13232
13419
12993
13278
12882
13262
12898
13338
13123
13716
14185
15284
16563
16393
13244
11275
12200
12807
13383
13204
13652
13376
13744
13346
13733
13420
13885
13612
13960
13828
14100
14177
14365
14432
14533
14913
14963
15464
15432
16028
15757
16060
15586
15869
15266
15239
14443
14265
13615
13391
13035
12867
12734
12555
12712
12502
12781
12461
12788
12446
12852
12479
12844
12579
12995
12727
13115
12810
13153
12819
13141
12775
13009
12763
12926
12804
12850
12870
12743
12912
12732
12953
12510
12892
12642
13196
12979
13383
13047
13336
13088
13348
13120
13153
13002
12988
13049
12917
13149
12962
13411
13545
14613
15588
16603
15065
11579
11002
12196
12658
13127
13139
13338
13354
13328
13423
13329
13660
13494
13891
13632
14104
13847
14319
14020
14559
14458
14944
14924
15339
15460
15657
15638
15492
15489
15109
14997
14342
13930
13457
13204
12782
12841
12458
12662
12187
12566
12274
12645
12315
12693
12368
12650
12409
12595
12489
12580
12622
12554
12710
12550
12850
12532
12924
12609
12963
12565
13018
12715
12969
12670
12998
12813
12979
12972
13050
13205
13232
13364
13078
13267
12873
13159
12760
13112
12741
13204
12918
13309
13309
14441
15742
16956
15770
13056
10072
11054
12369
12939
13476
13231
13735
13388
13866
13610
14045
13734
14082
13904
14102
13978
14405
14160
14619
14493
14878
14925
15283
15378
15461
15597
15429
15465
15071
15202
14562
14539
13781
13764
13082
13188
12686
12841
12509
12663
12572
12726
12728
12676
12845
12682
12988
12722
13054
12784
13227
12861
13221
12842
13145
12850
13116
12868
13021
12886
12954
12998
12937
13067
12770
12933
12636
12978
12681
13219
12973
13418
13055
13353
13014
13201
12948
13055
12950
12861
12948
12836
13049
13024
13535
14107
15833
16225
16021
14499
14939
14768
14833
14667
14570
14598
14354
14450
14123
14338
13979
14292
13963
14326
13959
14394
14205
14730
14738
15168
15212
15346
15274
15053
14957
14531
14325
13604
13485
12738
12762
12215
12464
12047
12319
11968
12281
12102
12287
12202
12339
12411
12298
12433
12280
12594
12306
12672
12343
12667
12238
12538
12234
12555
12277
12619
12515
12667
12589
12585
12630
12519
12618
12440
12813
12606
13120
12920
13351
13042
13406
13064
13396
13052
13344
12985
13327
13034
13433
13204
13644
14024
14805
16075
16859
15734
11823
11703
12523
13566
13455
13895
13635
14051
13681
13945
13626
13946
13630
13978
13991
14148
14123
14030
14087
13944
14095
13818
14304
14136
14658
14345
14720
14534
14895
14384
14581
14472
14639
14175
14034
13791
13329
13221
12909
12967
12513
12612
12013
12338
12067
12404
12167
12499
12208
12429
12183
12391
12415
12577
12742
12663
12903
12720
12951
12940
13017
12941
13107
12892
13102
12910
13205
12862
13454
13220
13644
13354
13667
13405
13618
13341
13312
13086
13029
13021
12841
12996
12753
13170
13464
14869
16160
16604
14601
10980
11051
12201
12684
13098
13020
13063
13108
13264
13383
13205
13313
13166
13665
13495
14099
13723
14431
14011
14857
14518
15049
14720
15171
14863
15035
14854
14898
14719
14490
14454
13854
13659
13101
13174
12692
12932
12383
12625
12243
12538
12259
12609
12567
13197
12918
13295
13048
13387
13193
13446
13353
13387
13290
13117
13216
12916
13083
12914
13327
13085
13509
13109
13343
12874
13163
12840
13056
12857
13044
12945
12993
12872
12699
12820
12688
13055
12880
13412
13191
13765
13573
14370
14915
16783
17506
17257
13659
12720
13463
14335
14695
14653
14850
14519
14776
14315
14628
14128
14537
13974
14409
14030
14507
14247
14681
14571
15018
15168
15416
15708
15716
16046
15686
16011
15333
15306
14851
14537
13816
13686
12860
12982
12199
12603
11813
12325
11698
12177
11684
12091
11654
12099
12028
12283
12394
12216
12701
12272
12958
12078
12910
12154
13072
12100
12929
12237
12928
12237
12809
12428
12752
12705
12621
12941
12682
13273
12924
13616
13041
13774
13030
13696
12933
13398
12685
13101
12669
12982
12767
12979
13273
13627
14819
15970
16934
15302
11877
11118
12802
13006
14025
13507
14234
13673
14073
13632
13924
13736
14142
13651
14121
13775
14186
14109
14308
14437
14414
14845
14694
15329
14940
15645
15003
15719
14866
15417
14551
14800
13840
13901
13279
13291
12960
12880
12771
12459
12726
12282
12766
12072
12738
12058
12805
12040
12782
12127
12905
12394
12918
12601
12857
12655
12713
12892
12589
12808
12139
12751
12051
12680
12091
13043
12419
13265
12673
13306
12711
13164
12900
13091
13044
13039
13289
13079
13717
13531
14516
14981
17246
15816
14733
9417
11279
11447
12849
12334
13140
12521
13316
12718
13360
12960
13377
12982
13166
13111
13258
13667
13225
13861
13577
14368
13936
14874
14428
15415
14809
15398
14830
15247
14711
14706
14127
13823
13539
13030
13229
12735
13094
12417
13011
12216
12909
12147
12976
12409
12932
12515
12974
12638
13073
13008
13048
13055
12583
13018
12683
13385
12786
13750
13348
13808
13063
13674
13028
13558
12948
13433
13364
13341
13293
13327
13352
13012
13695
15678
17446
16550
15137
10809
11605
11954
13218
12825
13471
12931
13750
13067
13719
13195
13747
13325
13873
13788
13956
14027
13930
14358
14287
14926
14619
15460
15041
15923
15272
15969
15126
15634
14868
15104
14223
14012
13473
13312
13091
12747
12899
12365
12725
12120
12737
12075
12806
12063
12728
12115
12691
12284
12769
12456
12743
12565
12603
12836
12530
12865
12463
13013
12389
13122
12526
13225
12519
13098
12376
12876
12439
12820
12388
13201
12592
13343
13099
14523
15958
16644
16200
12371
11248
11842
13038
13009
13726
13210
13966
13341
14071
13456
14104
13579
14221
13795
14325
14112
14366
14424
14520
14835
14763
15423
15098
15838
15303
15993
15241
15805
14999
15507
14525
14530
13816
13786
13266
13109
12970
12638
12851
12265
12670
12087
12802
12051
12730
12203
13010
12374
13047
12446
12929
12590
12801
12500
12535
12567
12378
12788
12320
12888
12371
13025
12299
12802
12387
12878
12358
13010
12344
12991
12281
13080
12911
14765
15944
16703
15146
11365
11338
11973
12594
12548
13013
12677
13228
12641
13277
12643
13401
12721
13461
12918
13588
13118
13599
13408
13752
13841
14057
14446
14443
15108
14759
15386
14799
15444
14613
15053
13927
14147
13222
13566
12917
13117
12698
12765
12723
12569
12781
12495
12897
12401
13073
12371
13192
12518
13230
12457
13045
12433
12965
12620
12928
12764
12921
13078
13439
13117
13456
13131
13186
13101
12938
13225
12907
13373
12805
13512
13114
13991
14085
16562
17099
17882
13454
12225
12409
13184
13201
13211
13316
