14522
14844
14548
14975
14558
14938
14773
15136
15087
15227
15256
15179
15183
14803
14872
14225
14174
13364
13394
12634
12843
12199
12514
12097
12397
12116
12399
12311
12424
12527
12505
12707
12508
12856
12594
13013
12584
13002
12509
12876
12399
12883
12606
13000
12844
13053
12926
12918
12828
12611
12780
12505
12802
12489
12934
12674
13161
13899
16421
17295
17738
12227
11030
11617
12499
12803
12951
13138
13116
13411
13174
13627
13319
13779
13660
13871
13651
13999
13788
14308
14054
14665
14451
15097
14821
15295
14917
15176
14819
14825
14404
14064
13705
13259
13169
12697
12858
12427
12781
12397
12879
12549
13023
12630
13068
12782
13095
12859
13051
12957
12993
12990
12843
12946
12680
13038
12654
13119
12794
13282
12970
13428
12996
13292
12902
13080
12773
12947
12864
12894
13042
13035
13253
13917
16323
17987
18892
13513
11754
11810
12777
12617
13069
12760
13047
12860
13053
12880
13346
13018
13401
13228
13462
13415
13542
13695
13761
14178
14084
14628
14413
14947
14555
14977
14415
14680
13913
13902
13219
13212
12736
12709
12498
12445
12513
12333
12596
12340
12775
12377
12790
12367
12889
12483
12953
12559
12941
12655
12906
12617
12736
12726
12622
12823
12777
13152
12923
13342
12932
13376
12921
13305
12838
13261
12900
13350
13121
13527
13252
14029
15779
18193
19360
15325
12164
12035
12861
12675
13139
12824
13328
13053
13478
13091
13517
13046
13502
13115
13617
13321
13818
13637
14039
14002
14311
14512
14724
14957
14808
15029
14594
14810
14201
14246
13344
13451
12765
13018
12514
12745
12407
12710
12561
12652
12648
12596
12756
12639
12974
12715
13083
12670
13131
12753
13240
12801
13171
12716
13025
12750
13036
13000
13176
13225
13164
13353
13071
13296
12854
13154
12734
13211
12828
13272
12917
13407
13340
14741
16803
18880
17284
12450
11974
12881
12866
13150
13066
13135
13194
13179
13379
13165
13461
13195
13624
13266
13774
13366
13863
13517
14091
13883
14400
14265
14630
14560
14575
14501
14291
14224
13635
13545
12784
12857
12213
12541
12056
12512
12152
12621
12281
12694
12512
12766
12646
12722
12761
12738
13004
12759
13016
12610
13043
12594
13045
12643
13116
12622
12950
12610
12912
12746
13033
13004
13115
13239
13135
13357
12987
13277
12876
13310
12861
13334
12921
13376
12911
13827
14902
17819
18702
16057
11631
12142
12434
13095
12909
13126
13067
13070
13192
13148
13412
13215
13583
13291
13738
13364
13846
13478
14006
13729
14320
14177
14700
14637
14871
14769
14709
14621
14245
14154
13517
13397
12641
12705
12086
12457
11999
12482
12122
12601
12294
12572
12438
12670
12649
12708
12787
12688
12957
12694
13056
12706
13076
12642
13093
12651
13066
12680
13075
12794
12986
12748
12840
12796
12859
13029
13002
13126
13411
13411
13474
13541
13401
13515
13157
13489
13122
13444
13044
13563
13265
13879
14364
16864
18499
18135
12904
12137
12697
13188
13394
13291
13566
13263
13638
13339
13782
13371
13893
13472
13957
13607
14012
13809
14221
14152
14413
14540
14750
15070
15022
15283
14951
15196
14638
14830
14027
14012
13215
13274
12639
12801
12360
12574
12426
12618
12627
12564
12671
12445
12661
12380
12777
12482
12944
12603
13066
12690
13132
12857
13256
12899
13368
12950
13297
12855
13186
12890
13146
13006
13109
12990
12871
12929
12846
13210
13054
13488
13159
13626
13243
13647
13140
13501
13043
13345
13010
13261
13107
13335
13308
13957
15522
17384
18016
13541
11485
11701
12866
12766
13250
12907
13396
13031
13404
13106
13354
13281
13559
13672
13722
13958
13901
14268
14026
14472
14228
14870
14699
15325
14957
15344
14894
15112
14706
14650
14126
13835
13471
13037
12946
12594
12761
12352
12583
12652
12762
12623
12828
12541
12959
12660
13146
12661
13107
12681
13124
12768
13159
12810
13049
12862
12989
12933
12886
12977
12791
13055
12741
13081
12648
13080
12693
13238
12990
13495
13158
13545
13305
13549
13334
13316
13205
13133
13247
13069
13334
13094
13561
13328
14944
16651
18246
16749
11844
11133
12317
12777
13314
13263
13526
13559
13576
13741
13560
13887
13601
14019
13686
14198
13840
14354
13991
14488
14261
14729
14629
15296
14995
15470
14975
15221
14721
14742
14181
13935
13520
13134
12938
12596
12700
12307
12615
12246
12672
12296
12789
12428
12894
12539
12913
12662
12965
12864
13057
13023
13026
13133
12895
13117
12798
13119
12749
13137
12655
13037
12507
12833
12464
12933
12818
13196
13099
13209
13178
13097
13183
12940
13186
12820
13191
12837
13296
12942
13534
13147
14401
15804
17940
17420
12811
11236
12004
12719
13017
13294
13154
13433
13079
13467
13316
13488
13376
13613
13371
13827
13547
14098
13793
14363
14078
14695
14499
15060
14864
15201
14993
15040
14849
14558
14297
13709
13530
12847
12891
12330
12627
12086
12482
12121
12582
12204
12614
12396
12731
12622
12803
12758
12759
12869
12702
12945
12630
13001
12608
13036
12599
13038
12583
13019
12676
12999
12634
12865
12792
13014
13139
13193
13405
13249
13496
13190
13492
13041
13345
12873
13276
12856
13355
13120
13484
13904
15758
17955
17378
11919
11678
12072
12964
12976
13205
13202
13286
13420
13242
13515
13264
13630
13303
13756
13368
13893
13562
14086
13808
14367
14254
14706
14726
14955
14952
14915
14946
14620
14625
13998
13936
13188
13267
12538
12800
12229
12560
12122
12497
12200
12467
12332
12508
12583
12633
12825
12703
13000
12759
13072
12629
13052
12640
13172
12759
13145
12744
13079
12797
13014
12872
13048
13177
13251
13461
13296
13530
13176
13486
13019
13318
13212
13474
13220
13606
13227
14009
14694
17348
18405
16432
11465
11888
12350
13135
13082
13290
13278
13258
13399
13267
13522
13265
13655
13345
13815
13448
13963
13651
14192
13927
14428
14314
14760
14722
14942
14957
14930
14908
14555
14558
13979
13998
13257
13374
12744
13018
12426
12746
12340
12706
12398
12697
12549
12676
12705
12709
12881
12721
12971
12669
12976
12605
13035
12610
13048
12628
13040
12668
12990
12713
12935
12816
13270
13028
13501
13180
13460
13242
13357
13213
13153
13237
13099
13352
13065
13526
13148
14344
15653
18400
18212
13636
11350
12370
12763
13319
13233
13496
13478
13488
13573
13445
13730
13469
13827
13497
13968
13625
14156
13834
14392
14112
14688
14583
15014
14975
15156
15081
14927
14889
14484
14378
13672
13624
12850
12974
12397
12739
12214
12570
12148
12556
12275
12477
12312
12476
12468
12438
12573
12408
12684
12420
12801
12390
12788
12296
12670
12423
12775
12435
12982
12692
13200
12828
13286
12834
13145
12746
12972
12695
12807
12730
12695
12839
12880
13341
14349
16871
17854
17138
11070
11268
11799
12999
12940
13378
13174
13490
13298
13487
13435
13416
13553
13381
13695
13432
13949
13669
14255
13972
14650
14404
15078
14847
15342
15045
15288
15014
14964
14720
14351
14040
13480
13465
12866
12948
12329
12712
12227
12734
12302
12818
12449
12911
12712
13087
12878
12920
12869
13031
12584
12775
12472
12594
12509
12560
12819
12736
13115
12904
13283
12787
13212
12564
12981
12477
12971
12557
13047
12810
13176
13862
15710
17396
17920
14229
10471
11628
12104
13042
12812
13389
13002
13562
13136
13650
13235
13663
13408
13705
13565
13818
13967
13968
14310
14279
14835
14686
15356
15067
15615
15044
15461
14900
15113
14327
14287
13570
13422
12983
12813
12649
12460
12617
12266
12629
12278
12765
12335
12874
12441
13004
12605
13057
12611
13065
12564
12966
12435
12837
12433
12885
12727
13054
12904
13012
13002
12848
12963
12690
12958
12570
13002
12580
13111
12816
13226
13305
15196
17514
18856
14516
11858
11980
12542
12745
12682
12953
12790
13159
12874
13287
12910
13372
12958
13496
13186
13694
13432
13907
13794
14128
14165
14438
14634
14655
14911
14698
15031
14568
14768
13991
14087
13206
13309
12678
12912
12449
12745
12485
12676
12582
12627
12653
12543
12589
12924
12847
12992
12981
12908
13042
12727
13009
12665
13027
12670
13320
12957
13470
13107
13511
13079
13380
13039
13141
12938
12998
13059
13041
13308
13070
13977
14948
17821
18634
15562
11551
12360
12611
13283
12928
13252
13007
13241
13150
13244
13291
13199
13409
13265
13658
13389
13878
13581
14145
13870
14477
14305
14897
14629
14970
14702
14813
14537
14335
14046
13591
13368
12787
12815
12310
12622
12181
12565
12182
12699
12330
12769
12474
12961
12550
12930
12524
12959
12583
12922
12642
12765
12635
12749
12792
12817
13181
13050
13388
13123
13514
13091
13462
12926
13245
12777
13122
12780
13147
13033
13242
13741
15095
17570
18765
15374
11501
12151
12517
13194
12832
13336
12956
13428
13149
13617
13269
13592
13400
13648
13605
13762
13912
13979
14304
14265
14705
14497
15033
14766
15233
14812
15166
14681
14876
14232
14103
13455
13252
12821
12599
12470
12289
12475
12435
12365
12478
12493
12463
12713
12528
12769
12454
12868
12558
13012
12573
12970
12549
12920
12548
12826
12690
13052
13033
13137
13180
13092
13171
12925
13107
12767
13167
12833
13305
12933
13438
12992
14081
15465
18220
18311
13627
11377
12072
12783
12897
13147
13018
13382
13131
13503
13102
13571
13273
13777
13471
13923
13688
14041
13965
14333
14384
14603
14781
14841
15080
14810
15005
14623
14873
14329
14435
13682
13757
13038
13153
12559
12909
12375
12766
12334
12771
12407
12767
12537
12815
12700
12816
12798
12738
12889
12722
12993
12647
12984
12595
13012
12697
13299
13001
13362
13045
13379
13051
13173
12907
12871
12796
12784
13005
12840
13217
12868
14040
15332
17777
18251
14490
10652
11704
12133
12833
12632
12889
12786
12851
12882
12785
13031
12884
13209
12953
13497
13260
13833
13500
14054
13826
14472
14341
14864
14690
14873
14703
14702
14569
14222
14156
13584
13492
12962
12744
12508
12518
12274
12538
12205
12571
12245
12710
12349
12804
12468
12834
12532
12839
12639
12741
12586
12609
12690
12704
12980
12831
13207
12927
13246
12803
13162
12652
13023
12602
12912
12571
12905
12864
13159
14290
16333
17523
16974
11681
10711
11937
12283
13072
12791
13375
13103
13598
13314
13735
13469
13806
13758
13979
14034
14108
14251
14232
14595
14532
15071
14941
15503
15167
15516
15025
15293
14721
14769
14073
13940
13219
13373
12821
13053
12691
12935
12710
12897
12807
12891
12949
12828
13049
12828
13119
12773
13104
12681
13105
12692
13063
12743
13168
12965
13294
13156
13223
13087
12996
12962
12738
12963
12728
13071
12720
13255
12962
14366
15703
17570
17550
13244
10826
11931
12485
12979
13015
13073
13254
13150
13387
13175
13532
13204
13647
13360
13845
13561
14098
13946
14421
14346
14802
14859
15198
15299
15219
15238
14936
14996
14432
14403
13613
13426
13092
13131
12759
13022
12592
12967
12594
12997
12652
13077
12749
13156
12909
13129
12958
13001
12935
12829
12858
12613
12732
12506
12908
12654
13158
12811
13217
12804
13174
12771
13070
12805
13053
12954
13127
13220
13324
14318
16262
18404
17477
12733
11650
12598
12685
13198
12893
13349
13050
13420
13275
13571
13486
13670
13693
13634
13778
13631
13976
13844
14337
14192
14770
14587
15210
14889
15202
14738
14914
14436
14320
13781
13479
12802
12872
12438
12614
12401
12447
12380
12364
12443
12326
12583
12311
12621
12293
12709
12402
12876
12546
12932
12505
12721
12432
12617
12457
12741
12865
12910
13116
12976
13258
12919
13210
12816
13158
12752
13153
12822
13282
12934
13592
14385
16963
18582
16680
12191
11932
12649
12832
13185
12940
13304
12926
13335
12955
13371
12974
13407
13185
13602
13433
13726
13688
13925
14160
14284
14606
14573
14967
14671
14995
14542
14822
14193
14145
13434
13379
12694
12885
12343
12773
12398
12838
12539
12815
12538
12707
12530
12615
12576
12512
12671
12465
12692
12367
12748
12364
12792
12404
12870
12512
12934
12557
12881
12618
12831
12774
12945
13133
13118
13364
13224
13501
13173
13504
13090
13437
12981
13396
13045
13470
13219
13589
13641
14690
16727
18682
17504
12560
12132
12537
13278
12994
13409
13080
13575
13156
13600
13229
13672
13405
13759
13614
13873
13842
13961
13966
14447
14338
14702
14719
14968
14973
14815
14867
14566
14668
14031
13995
13190
13224
12514
12754
12243
12541
12143
12459
12205
12470
12378
12479
12502
12439
12555
12295
12697
12486
12878
12477
12856
12436
12858
12521
12906
12554
12876
12632
12746
12592
12651
12729
12742
13067
12863
13231
12917
13316
12889
13265
12790
13156
12781
13211
12939
13290
13195
13420
14057
15914
18225
17857
13093
11422
12440
12729
13291
12963
13523
13141
13624
13374
13796
13403
13872
13555
14076
13733
14250
14065
14534
14471
14783
14836
15083
15303
15276
15469
15159
15372
14865
14967
14167
14199
13418
13528
12861
13029
12595
12829
12572
12732
12679
12767
12872
12725
12939
12719
13047
12737
13150
12715
13131
12714
13140
12734
13071
12675
12900
12678
12823
12790
12920
13194
13143
13426
13156
13467
13023
13267
12797
13206
12802
13280
12988
13450
13070
14121
15480
17731
18407
13905
11311
11852
12820
13219
13145
13212
13287
13158
13359
13103
13458
13146
13621
13309
13838
13502
14030
13762
14304
14167
14624
14632
14928
14914
14876
14868
14663
14732
14232
14294
13621
13640
12897
13174
12614
12891
12449
12785
12518
12815
12673
12866
12834
12907
13009
12843
13133
12915
13276
12888
13331
12916
13264
12875
13229
12812
13166
13002
13356
13237
13394
13321
13208
13202
12946
13178
12864
13206
12888
13267
12993
13489
14262
16751
17701
16103
10805
11652
12050
13052
12916
13331
13166
13518
13296
13444
13408
13421
13544
13450
13765
13566
13958
13684
14170
13890
14534
14323
14916
14696
15106
14840
15080
14821
14701
14331
13945
13694
13116
13076
12556
12686
12185
12586
12147
12593
12195
12570
12272
12668
12423
12689
12553
12736
12789
12737
12896
12749
13032
12661
12958
12499
12929
12559
13110
12817
13269
12927
13249
12972
13165
12932
12990
13049
13005
13247
13085
13469
13736
15024
17041
18385
16584
11514
11187
12335
12550
13160
12776
13288
12982
13460
13135
13516
13260
13507
13374
13540
13600
13640
13834
13790
14174
14071
14652
14510
15070
14733
15182
14693
14930
14355
14364
13670
13508
13041
12872
12618
12405
12475
12221
12527
12223
12637
12275
12730
12353
12830
12519
12962
12605
12960
12771
13063
12953
12944
12871
12690
12823
12600
12948
12779
13295
12928
13428
12992
13353
12886
13206
12842
13179
12870
13435
13104
13603
13196
14248
15931
18456
18536
13573
11716
12196
12933
12948
13298
13046
13490
13134
13609
13214
13689
13364
13870
13533
13916
13718
14011
13936
14110
14359
14529
14949
14912
15303
15000
15278
14772
15032
14377
14442
13598
13599
12945
13008
12571
12667
12492
12495
12529
12383
12570
12306
12621
12321
12774
12343
12776
12318
12753
12363
12753
12450
12733
12474
12600
12521
12542
12655
12684
12989
12818
13204
12890
13148
13084
13163
12878
13190
12855
13300
12973
13520
13154
14341
15823
18588
18270
13548
11684
12401
12848
13064
13228
13136
13291
13062
13406
13072
13485
13203
13690
13306
13785
13423
13879
13698
14121
14011
14343
14437
14589
14736
14629
14779
14470
14601
13996
14057
13276
13320
12609
12837
12322
12659
12314
12648
12493
12678
12596
12591
12695
12612
12885
12694
13096
12762
13196
12767
13200
12783
13160
12766
13104
12791
13039
12836
13081
12813
13252
13000
13383
13200
13405
13305
13399
13509
13295
13352
13049
13345
12935
13320
12912
13455
13028
14150
15521
18214
18025
13531
11366
12075
12645
12904
13146
13094
13361
13189
13569
13203
13586
13153
13575
13214
13691
13398
13829
13575
13926
13921
14259
14405
14586
14767
14623
14829
14518
14705
14124
14135
13303
13383
12670
12840
12327
12627
12316
12561
12406
12564
12510
12556
12703
12578
12919
12625
12935
12613
13007
12861
13186
12981
13233
12791
13138
12687
13091
12728
13194
12815
13143
12811
13083
12849
12908
12727
12763
12825
12698
12988
12857
13271
13267
14713
16583
18655
16427
12040
11581
12724
12924
13281
13163
13353
13322
13307
13458
13379
13685
13448
13832
13524
14023
13771
14342
14074
14671
14444
15009
14899
15272
15123
15223
15093
14948
14877
14393
14247
13528
13492
12846
13043
12481
12771
12316
12748
12376
12727
12494
12841
12769
12865
12881
13099
12829
13084
12856
12975
12834
12781
12866
12667
12879
12632
12995
12721
13202
12877
13394
12968
13367
12909
13206
12882
13149
12965
13130
13115
13133
13306
13329
14513
16378
18491
16980
12331
11431
12652
12822
13417
13206
13649
13379
13654
13505
13663
13680
13662
13814
13632
13966
13725
14141
13786
14329
14101
14738
14481
15047
14666
14992
14632
14781
14379
14127
13769
13370
13183
12706
12750
12265
12525
12113
12578
12156
12624
12363
12815
12444
12862
12422
12871
12479
12901
12484
12831
12529
12777
12569
12727
12715
12736
12840
12652
12909
12573
12859
12452
12882
12513
13077
12763
13294
12923
13365
13121
13317
13094
13182
13154
13061
13222
13099
13413
13201
13730
14268
16585
17729
17340
11925
11707
12117
13138
13023
13357
13313
13455
13473
13411
13548
13348
13640
13315
13730
13410
13966
13682
14246
13991
14586
14469
15008
14885
15150
15031
15080
15010
14814
14407
14356
13808
13573
13224
12927
12865
12633
12880
12538
12894
12504
12962
12536
12958
12576
13047
12748
13135
12854
13093
12921
13019
12926
12875
13029
12835
13133
12971
13437
13123
13547
13101
13528
13042
13285
12892
13259
12992
13245
13162
13408
13413
14050
15711
17551
18510
13984
11606
11891
13111
13044
13564
13241
13701
13425
13772
13543
13787
13719
13808
13841
13832
14055
13896
14321
14131
14638
14385
14944
14666
15205
14762
15058
14609
14831
14105
14185
13401
13476
12832
12985
12570
12708
12501
12560
12575
12507
12646
12468
12764
12433
12773
12396
12815
12460
12886
12459
12832
12519
12816
12547
12828
12704
12845
13000
13030
13266
13146
13462
13098
13369
12793
13098
12672
13095
12698
13116
12815
13103
13390
14884
16960
18194
14806
10847
11449
12083
12857
12633
13085
12757
13193
12808
13297
12963
13457
13203
13587
13414
13642
13597
13784
13950
14053
14454
14729
14773
14942
14860
14700
14813
14432
14469
13872
13962
13234
13392
12737
13021
12501
12839
12499
12916
12763
13041
12963
13033
13118
13078
13229
12961
13227
12892
13253
12765
13153
12735
13159
12711
13184
12925
13334
13135
13315
13157
13192
13172
12928
13130
12880
13206
12890
13397
13061
13796
14541
17107
17860
16752
10894
11143
11779
12647
12785
12869
13027
12997
13251
13060
13417
13057
13560
13141
13696
13309
13845
13537
14043
13889
14656
14351
14918
14580
14988
14520
14785
14384
14390
13948
13669
13334
12934
12924
12416
12584
12124
12589
12164
12709
12273
12839
12509
13106
12789
13210
13016
13289
13179
13187
13282
13171
13410
13208
13645
13290
13815
13408
13878
13283
13644
13067
13458
13039
13364
13111
13339
13323
13326
14248
15752
17685
17934
14168
10551
11864
12159
13180
12825
13436
13076
13626
13330
13710
13505
13669
13604
13631
13749
13634
14016
13822
14122
14421
14661
14670
14986
14714
15021
14483
14723
13982
14272
13425
13592
12760
12914
12276
12455
12069
12206
12069
12160
12294
12208
12524
12298
12757
12390
12954
12500
13051
12573
13073
12534
13008
12635
12915
12713
13032
13045
13103
13239
12981
13199
12807
13066
12571
13086
12572
13069
12609
13243
12742
13813
14913
17613
18445
14521
11345
11852
12734
12892
13267
13064
13511
13106
13601
13130
13654
13243
13787
13401
13857
13598
13974
13757
14472
14217
14872
14724
15199
15025
15169
14990
14892
14759
14325
14164
13500
13489
12811
13085
12461
12842
12281
12748
12292
12700
12392
12746
12555
12771
12707
12723
12855
12707
12965
12616
13013
12612
13069
12606
13087
12507
12939
12582
13086
12957
13306
13103
13309
13280
13240
13297
12967
13167
12783
13191
12767
13252
12889
13441
13338
14820
16783
18838
16177
11843
11714
12596
13018
13042
13268
13180
13502
13194
13627
13225
13587
13512
13802
13530
13968
13639
14244
13937
14590
14348
14980
14700
15191
14892
15111
14811
14835
14534
14170
13928
13419
13345
12747
12959
12409
12771
12293
12798
12366
12808
12415
12785
12543
12827
12680
12827
12773
12707
12820
12640
12968
12656
13064
12714
13147
12679
13101
12686
13176
12855
13318
13143
13465
13283
13358
13366
13283
13319
13013
13240
12970
13403
13039
13516
13192
13651
13864
16067
18060
18320
13066
11844
12387
13471
13225
13636
13355
13630
13489
13606
13544
13525
13659
13508
13836
13688
14157
13839
14369
14007
14597
14265
14829
14571
15028
14743
14903
14614
14528
14267
13906
13687
13098
13132
12602
12883
12425
12795
12327
12806
12432
12877
12549
12926
12652
12934
12795
12864
12893
12849
13014
12771
13093
12748
13115
12689
13140
12621
13077
12570
12977
12667
13145
13095
13407
13283
13345
13405
13218
13309
12915
13115
12689
13083
12654
13131
12912
13221
13553
15673
17355
17812
12299
11309
11707
12950
12884
13309
13069
13325
13176
13294
13343
13241
13425
13236
13592
13293
13769
13468
14040
13722
14355
14093
14723
14517
14991
14807
14999
14773
14716
14512
14128
13941
13311
13245
12587
12797
12202
12649
12102
12534
12044
12499
12167
12617
12397
12674
12560
12686
12753
12713
12933
12688
13095
12662
13125
12639
13210
12699
13220
12677
13214
12804
13291
13167
13506
13435
13514
13265
13661
13239
13481
13236
13293
13301
13266
13521
13262
13604
14032
16306
17588
18498
13082
10999
11355
12756
12813
13430
13169
13534
13382
13465
13578
13511
13777
13496
13947
13496
14061
13565
14299
13794
14482
14086
14786
14448
14952
14638
14856
14619
14522
14374
14012
13936
13212
13328
12575
12899
12136
12579
11891
12466
11974
12576
12232
12814
12589
12903
12794
12909
13084
13027
13256
12872
13277
12714
13149
12553
13143
12543
13197
12910
13505
13040
13657
12977
13461
12835
13304
12795
13213
12915
13213
13077
13279
13411
14390
16737
17997
17554
11410
11325
11681
12981
12775
13412
12987
13615
13192
13626
13322
13619
13465
13607
13705
13621
13918
13701
14153
13868
14538
14246
15004
14664
15241
14726
15101
14587
14754
14178
13982
13430
13094
12854
12524
12593
12207
12561
12134
12611
12165
12713
12283
12915
12543
13025
12705
13125
12897
13121
13021
12989
13077
13163
12903
13080
12929
13020
13108
13139
13514
13323
13712
13383
13828
13268
13676
13041
13415
12919
13384
12967
13316
13140
13413
13912
16002
18670
18156
13198
11502
12446
12583
13241
12849
13356
12874
13393
12905
13315
12875
13248
13003
13200
13104
13189
13361
13363
13684
13516
14137
13903
14517
14169
14731
14179
14600
13997
14179
13387
13365
12740
12597
12254
12164
12184
11991
12244
11956
12309
11895
12425
11973
12565
12189
12763
12309
12835
12448
12958
12441
12979
12523
12974
12613
12976
12673
12864
12778
12864
12988
12979
13254
13012
13433
12992
13425
12889
13341
12799
13316
12878
13375
13008
13490
13258
13837
14670
17243
18584
15269
11748
11725
12880
12842
13427
13028
13570
13083
13610
13162
13651
13297
13665
13436
13689
13666
13780
14001
14008
14499
14369
14960
14710
15342
14873
15335
14737
15175
14516
14682
13952
13904
13306
13176
12881
12782
12841
12612
12903
12832
12728
12742
12839
12704
12974
12692
13051
12659
13136
12625
13117
12608
13160
12670
13160
12741
13060
12813
13069
12992
13063
13137
12998
13363
13151
13650
13273
13701
13176
13727
13186
13636
13122
13486
13116
13515
13348
13562
13599
13543
14086
14848
17307
18165
15462
11317
12153
12473
13444
13034
13720
13300
13770
13451
13768
13464
13595
13556
13631
13762
13713
14202
13872
14185
13758
14348
14075
14856
14593
15264
14839
15275
14752
15135
14352
14523
13628
13747
13134
13273
12890
13064
12932
12895
12932
12704
12860
12469
12770
12251
12663
12167
12736
12302
12869
12463
12955
12685
13089
12937
13185
13168
13196
13226
12946
13145
12834
13414
13056
13525
13012
13533
13093
13548
13030
13376
12976
13290
13044
13234
13219
13264
13295
13855
15642
17356
17997
12765
11289
11626
12960
12844
13443
13047
13497
13149
13471
13288
13467
13498
13558
13793
13653
14019
13740
14024
14250
14526
14617
15055
14938
15372
14900
15261
14655
14963
14242
14439
13669
13764
13047
13069
12602
12629
12469
12434
12522
12388
12699
12461
12879
12481
12981
12500
12992
12513
12991
12575
12995
12561
12858
12620
12849
12939
13060
13227
13095
13374
12996
13312
12796
13208
12689
13176
12771
13317
12899
13461
13200
14528
16221
17926
17698
12129
10979
11692
12755
12702
13176
12851
13401
12998
13564
13080
13600
13183
13629
13372
13914
13525
14179
13826
14418
14203
14697
14597
14879
14791
14740
14694
14334
14375
13767
13779
12983
13098
12332
12654
12020
12393
11896
12351
12088
12492
12321
12588
12606
12722
12916
12825
13126
12773
13137
12625
13052
12558
13067
12604
13215
12905
13448
13117
13390
13147
13245
13058
12930
13040
12884
13169
12877
13343
12985
13820
14369
17031
18103
16527
11301
11838
12252
13103
13057
13295
13331
13389
13560
13420
13725
13437
13902
13788
13954
13901
14201
13933
14374
14108
14722
14428
15135
14703
15175
14664
14942
14406
14509
13955
13809
13317
12992
12823
12500
12664
12286
12594
12145
12596
12093
12619
12149
12673
12253
12729
12443
12789
12483
12642
12533
12492
12525
12348
12741
12566
12974
12603
13131
12629
13052
12517
12964
12493
12952
12615
12951
12782
13116
13092
13728
15220
17356
18452
14016
11641
11697
12801
12547
13065
12654
13116
12671
13149
12835
13192
12931
13556
13157
13642
13309
13736
13574
13911
13919
14061
14331
14311
14604
14254
14574
14041
14388
13643
13780
12928
13065
12324
12546
12080
12361
12129
12291
12270
12342
12540
12457
12793
12547
12975
12540
13038
12556
13027
12478
12848
12287
12711
12365
12714
12684
12964
12927
12932
13034
12761
12927
12532
12868
12393
12881
12434
12997
12565
13162
12908
14112
15684
18124
17452
12408
11452
12147
12918
12870
13214
12974
13457
13025
13519
13319
13637
13356
13718
13363
13842
13389
14002
13668
14257
13979
14578
14410
14849
14669
14786
14626
14476
14396
13881
13747
13092
13204
12554
12893
12397
12859
12361
12792
12409
12852
12526
12876
12747
12922
12907
12872
12995
12834
13107
12764
13159
12757
13220
12714
13209
12759
13321
13151
13632
13309
13565
13354
13378
13238
13113
13225
13029
13329
13018
13499
13215
13633
13786
15630
17406
18807
14490
11755
11964
12984
13153
13303
13153
13624
13338
13684
13500
13677
13629
13647
13761
13623
13919
13706
14208
13892
14493
14208
14854
14487
15010
14545
14877
14402
14522
14110
13965
13582
13176
13010
12616
12785
12351
12694
12282
12784
12362
12908
12493
12996
12596
13052
12716
13014
12826
12972
12982
12946
13068
12840
13143
12803
13173
12695
13130
12591
13091
12597
13193
12887
13316
13025
13279
13110
13176
13073
12855
12963
12773
13090
12750
13210
12862
13234
13436
16066
17758
17651
12118
11690
12014
13200
12969
13528
13192
13667
13388
13649
13514
13705
13717
13725
13934
13840
14167
13881
14369
14050
14692
14450
15128
14768
15239
14812
15125
14761
14906
14465
14270
13875
13526
13358
12930
13052
12601
12963
12476
12915
12418
12935
12557
13058
12707
13090
12789
13097
12951
13098
13104
13053
13204
13007
13313
12942
13344
12817
13299
12807
13323
12975
13563
13080
13493
13142
13360
13041
13084
12974
13177
12871
13245
13035
13187
13200
13207
14132
15723
17901
16950
12046
10803
12134
12346
13068
12606
13176
12757
13221
12892
13273
13132
13288
13269
13294
13480
13348
13789
13529
14161
13909
14605
14284
15003
14597
15107
14531
14832
14344
14421
13939
13774
13407
13027
12961
12566
12814
12399
12836
12379
12925
12452
12998
12580
13084
12663
13099
12772
12998
12838
12922
12913
12808
13011
12757
13077
12678
13046
12457
12903
12416
13024
12896
13354
12943
13465
12983
13395
12855
13194
12684
13088
12722
12985
12844
13048
13076
13271
14356
16215
18281
16381
11841
11267
12551
12714
13391
12929
13460
13149
13599
13309
13598
13452
13566
13631
13624
13906
13757
14247
14018
14588
14288
14933
14638
15293
14866
15315
14750
14970
14449
14453
14031
13760
13485
13142
13110
12671
12920
12434
12855
12393
12989
12560
13095
12639
13172
12883
13335
13058
13253
13173
13233
13262
13159
13125
13353
13169
13249
13246
13214
13526
13357
13742
13377
13802
13233
13658
13033
13499
12949
13458
13048
13474
13234
13599
13385
14435
16371
17879
18239
12916
10934
11513
12808
12863
13567
13111
13704
13263
13753
12984
12837
12358
12518
12479
12642
12834
12804
13178
13060
13607
13535
14537
14526
15279
14880
15376
14810
15061
14462
14501
13865
13711
13353
13143
13106
12835
12927
12539
12879
12495
12993
12521
13055
12608
13134
12698
13303
12912
13381
12798
13271
12755
13110
12664
12987
12654
12834
12681
12763
12927
12950
13227
13022
13373
12916
13316
12778
13198
12750
13273
12804
13251
12950
13376
13144
14122
15928
18031
17945
12687
11517
11952
13048
12929
13423
13037
13538
13059
13514
13088
13500
13165
13504
13321
13581
13610
13671
13907
13914
14302
14200
14760
14541
15098
14676
15122
14511
14813
14146
14182
13460
13365
12791
12692
12480
12313
12400
12211
12500
12179
12456
12599
12750
12688
12966
12729
13103
12690
13109
12641
13166
12668
13119
12665
13060
12630
12968
12731
12920
12959
13095
13258
13185
13477
13102
13353
12864
13256
12741
13226
12747
13256
12871
13372
13013
13926
14971
17423
18150
14395
11548
11787
12749
12780
13305
12952
13447
12969
13469
13040
13553
13170
13651
13438
13854
13749
13978
14061
14112
14357
14284
14740
14563
15072
14685
15121
14592
15000
14278
14379
13568
13555
12908
12462
12912
12383
12743
12307
12635
12433
12643
12586
12695
12796
12727
12999
12706
13067
12670
13056
12589
13053
12600
13071
12698
13095
12700
12925
12720
12851
12820
12912
13043
12956
13230
12906
13252
12825
13121
12653
13064
12659
13175
12801
13236
13059
13541
14007
15836
17641
17023
12319
11325
12348
12740
13267
12941
13487
13107
13598
13188
13663
13271
13710
13443
13786
13690
13864
13938
14069
14363
14379
14835
14744
15252
14947
15256
15075
15201
14712
14765
13999
13935
13144
13275
12566
12789
12251
12569
12253
12559
12371
12551
12519
12571
12770
12692
13006
12736
13080
12724
13213
12825
13294
12881
13370
13017
13379
13016
13251
13084
13169
13099
13104
13230
13170
13599
13350
13819
13458
13876
13428
13841
13297
13663
13190
13455
13183
13459
13383
13490
14076
15096
17133
17922
15293
11244
12043
12418
13367
13054
13593
13191
13646
13292
13666
13462
13722
13572
13970
13663
14159
13993
14376
14303
14557
14706
14824
15155
15065
15399
15010
15300
14762
15023
14270
14428
13585
13670
12933
13066
12639
12745
12524
12539
12530
12420
12564
12304
12703
12400
12870
12512
12955
12473
12937
12484
12872
12509
12848
12502
12687
12513
12531
12642
12639
12881
12740
13110
12673
13034
12501
12914
12504
12941
12497
13020
12692
13063
12882
13542
14823
16857
17714
15160
10566
10801
12080
12394
13130
12764
13388
13152
13585
13191
13611
13167
13715
13319
13901
13510
14065
13771
14239
14176
14603
14716
14974
15186
15076
15185
14790
14955
14324
14363
13484
13577
12805
13003
12454
12755
12286
12554
12342
12577
12522
12569
12719
12627
12897
12644
13058
12729
13151
12721
13158
12718
13113
12709
13100
12760
12981
12711
12881
12858
12871
13080
13042
13354
13188
13550
13095
13464
12906
13261
12809
13244
12919
13294
12967
13316
13183
13976
15643
17841
16232
12066
11665
12454
12853
12970
13082
12981
13207
12975
13355
12978
13384
12981
13451
13095
13560
13237
13735
13519
13968
13947
14314
14492
14708
14936
14425
13943
13160
13143
12407
12534
11757
11945
11550
12466
12358
12846
12625
12979
12891
13086
13082
13050
13220
13063
13335
13074
13449
13125
13624
13261
13719
13289
13680
13324
13618
13237
13497
13311
13471
13533
13502
13597
13432
13686
13316
13543
13067
13445
13023
13464
13069
13543
13365
13863
13803
14945
16599
18549
16217
12215
11889
12841
13042
13262
13333
13363
13467
13272
13436
13154
13470
13160
13579
13285
13771
13429
13927
13706
14213
14104
14567
14626
14940
14913
14846
14822
14591
14621
14022
13958
13205
13259
12617
12829
12334
12616
12212
12517
12256
12522
12369
12527
12543
12524
12674
12561
12822
12544
12911
12560
12899
12479
12868
12510
12826
12445
12773
12557
12882
12839
13072
13087
13084
13214
13010
13017
13126
13018
13017
13101
13071
13347
13137
13578
13299
14473
15805
18228
17865
13314
11468
12549
12901
13447
13351
13618
13605
13653
13804
13660
13914
13683
14035
13724
14228
13893
14425
14104
14595
14398
14949
14799
15223
15146
15333
15228
15044
14950
14577
14524
13860
13855
13202
13343
12720
13021
12478
12783
12358
12687
12460
12778
12697
12853
12895
12862
12990
12786
13041
12769
13145
12746
13166
12706
13116
12774
13176
12924
13391
13109
13572
13183
13548
13150
13353
12985
13154
12979
13086
13040
13005
13218
13013
13996
15281
17373
17720
14277
10344
11514
11954
12922
12813
13181
13051
13266
13177
13224
13209
13171
13385
13199
13499
13296
13770
13500
14044
13832
14467
14325
14916
14743
15019
14710
14755
14508
14286
14014
13539
13339
12818
12843
12332
12606
12162
12511
12094
12457
12106
12504
12248
12613
12479
12730
12725
12782
12882
12805
12983
12763
13081
12983
13144
13086
13242
13030
13294
12976
13306
12919
13424
13143
13647
13285
13631
13258
13455
13142
13269
13107
13133
13231
13146
13390
13330
13710
14011
15884
17591
18005
13128
11814
12073
13094
13089
13460
13305
13482
13405
13417
13465
13313
13540
13315
13637
13390
13858
13581
14102
13877
14437
14239
14759
14653
15048
14906
15039
14867
14650
14447
13940
13724
13041
12993
12439
12732
12258
12583
12227
12637
12329
12727
12473
12697
12440
12857
12501
12829
12516
12769
12602
12732
12676
12731
12807
12707
12857
12540
12744
12402
12846
12647
13145
12885
13270
12956
13288
12953
13112
12934
13050
13043
13063
13216
13138
13467
13225
14039
14828
17367
17868
14861
11522
12329
12781
13442
13245
13536
13404
13571
13557
13572
13678
13534
13680
13477
13804
13549
13976
13740
14230
14029
14592
14519
14986
14885
15089
14848
14834
14631
14374
14152
13568
13413
12858
12869
12409
12527
12409
12564
12357
12608
12280
12576
12271
12699
12423
12777
12482
12784
12554
12803
12658
12820
12797
12823
12890
12814
13096
12902
13184
12847
13129
12710
13018
12682
13082
12974
13380
13233
13490
13336
13449
13343
13239
13219
13124
13337
13142
13509
13272
13751
13448
14532
15560
17733
17776
13842
11544
12461
13130
13585
13609
13660
13769
13602
13830
13615
13942
13631
13966
13697
14104
13840
14364
14170
14583
14520
14934
14985
15476
15291
15625
15286
15354
14983
14888
14517
14153
13785
13382
13291
12918
13098
12696
12978
12617
13033
12778
13133
12812
13165
12931
13138
12968
13056
13004
13021
13107
13000
13169
12886
13137
12826
13148
12899
13335
13065
13435
13115
13397
13108
13242
13007
13103
13083
13110
13188
13086
13322
13160
13721
14841
17396
18054
16597
10768
11261
11867
12871
12951
13261
13236
13461
13380
13337
13475
13384
13596
13409
13723
13473
13907
13893
14210
14104
14547
14460
14911
14698
15043
14623
14759
14248
14328
13733
13543
12963
12825
12559
12396
12337
12151
12274
12133
12475
12258
12612
12321
12743
12532
12871
12649
12956
12733
13000
12916
13007
12894
12919
12974
12838
13056
12921
13181
12991
13216
12780
13012
12609
12906
12623
12885
12707
12886
12747
12910
12919
13786
15670
17219
17817
13657
10461
11114
12162
12349
12865
12594
13015
12773
13125
12924
13115
13049
13251
13229
13544
13438
13815
13756
14062
14196
14444
14693
14777
15030
14850
15048
14625
14774
14125
14033
13307
13306
12778
12904
12589
12792
12606
12744
12689
12723
12869
12757
12938
12789
13032
12771
13104
12805
13159
12801
13074
12671
12930
12671
12914
12846
13090
13114
13181
13353
13227
13393
13142
13291
13030
13370
13097
13490
13234
13711
13426
14374
15689
17823
18573
15794
11552
12030
12699
12950
13307
13206
13546
13314
13605
13298
13703
13506
13814
13534
13900
13617
14029
13820
14295
14121
14681
14662
15093
15027
15100
14932
14816
14701
14224
13966
13344
13269
12672
12820
12334
12630
12225
12554
12238
12572
12344
12583
12457
12663
12679
12697
12822
12734
12978
12790
13041
12693
12950
12550
12926
12580
12958
12736
13248
13122
13443
13379
13475
13376
13302
13360
13264
13498
13271
13615
13333
13748
13282
14196
15509
18095
19006
16499
11905
12260
12654
13119
13198
13294
13276
13625
13548
13713
13576
13487
13572
13541
13844
13684
14004
13837
14297
14065
14839
14907
15485
15304
15552
15152
15155
14648
14373
13883
13385
12970
12466
12383
11943
12190
11878
12226
11801
12222
11913
12303
12082
12497
12309
12653
12524
12677
12658
12661
12766
12571
12776
12492
12849
12501
12893
12556
12960
12611
13019
12675
13004
12720
12976
12915
13139
13171
13248
13405
13259
13487
13173
13413
13037
13385
13000
13431
13145
13591
13384
13753
13975
15721
17195
18462
15699
11936
11733
12584
12840
13083
13068
13148
13248
13145
13366
13116
13432
13117
13531
13184
13620
13343
13822
13603
14081
13940
14376
14411
14672
14688
14688
14658
14378
14398
13802
13653
12909
12859
12221
12433
11966
12326
11995
12439
12241
12481
12333
12480
12460
12492
12678
12574
12802
12547
12818
12522
12917
12533
12980
12646
13031
12704
13046
12781
13110
13094
13278
13265
13205
13230
13173
12887
12954
12791
12808
12891
12806
13076
12952
13262
13169
14830
16741
18703
16620
11951
11412
12338
12576
12988
12867
13106
13077
13134
13289
13192
13474
13296
13649
13418
13928
13706
14260
14045
14662
14495
15064
14984
15390
15328
15492
15356
15208
15003
14486
14163
13424
13296
12655
12784
12264
12604
12203
12557
12226
12582
12332
12643
12522
12735
12714
12747
12868
12722
12929
12714
13017
12742
13047
12671
13037
12676
13029
12735
13124
12768
13100
12664
13020
12761
13224
13054
13355
13201
13377
13293
13208
13117
12918
13017
12806
13056
12726
13060
12792
13184
13154
14473
16308
18277
16489
12050
11430
12244
12749
12957
13149
13213
13442
13225
13488
13300
13677
13420
13817
13551
14054
13848
14173
13951
14349
14338
14649
14765
14993
15157
15136
15290
15083
15176
14613
14533
13788
13806
13108
13237
12660
12907
12516
12724
12535
12790
12778
12868
12936
12894
12873
13153
13028
12994
12902
12765
12812
12561
12685
12339
12628
12245
12537
12177
12560
12201
12458
12121
12335
12093
12333
12295
12513
12708
12736
12924
12853
13175
12958
13248
12933
13172
12806
13207
12972
13393
13200
13573
13694
14361
15897
17428
16563
12135
11757
12458
13420
13334
13728
13504
13861
13524
13829
13437
13730
13487
13700
13589
13801
13803
13963
14109
14202
14598
14685
15223
15151
15517
15181
15437
14987
15143
14550
14485
13623
13598
12958
12979
12580
12757
12444
12694
12461
12655
12610
12673
12762
12904
13136
13080
13404
13309
13624
13416
13665
13360
13701
13409
13699
13424
13634
13457
13594
13435
13404
13369
13322
13263
13035
13146
12958
13330
13143
13588
13270
13604
13292
13543
13128
13226
12928
13038
12899
12897
12953
13032
13268
13419
14020
14635
16505
16733
15936
11005
11200
11825
12985
13054
13406
13288
13551
13504
13676
13806
13935
14161
14076
14201
14438
14356
14456
14702
14773
15159
15148
15590
15460
15836
15499
15711
15241
15379
14800
14691
14027
13858
13443
13320
13117
13032
12962
12491
12746
12443
12856
12469
12927
12579
13000
12679
13038
12855
13179
12996
13133
13173
13191
13297
13134
13317
13050
13439
13095
13467
13195
13670
13294
13665
13216
13470
13132
13223
13041
13134
13101
13061
13180
13111
13340
13971
15813
16787
17148
12858
10480
11105
12402
12657
13207
13030
13479
13136
13478
13120
13496
13240
13589
13465
13669
13691
13775
13973
13999
14421
14347
14925
14811
15354
14939
15284
14766
14922
14245
14183
13450
13288
12731
12609
12440
12343
12307
12129
12361
12138
12495
12165
12633
12234
12691
12395
12838
12556
12935
12700
13000
12852
12940
12896
12772
12878
12804
13047
12862
13371
13140
13642
13263
13704
13267
13609
13166
13411
13119
13269
13020
13133
13199
13209
13970
14985
16807
17042
15170
10690
11722
12375
13066
12970
13398
13180
13629
13288
13724
13324
13761
13452
13852
13654
14013
13884
14122
14179
14351
14594
14724
15169
15042
15345
14938
15161
14567
14693
13888
13837
13106
13157
12615
12703
12403
12490
12416
12358
12445
12387
12603
12339
12652
12373
12828
12483
12939
12570
12926
12532
12889
12542
12796
12623
12693
12543
12442
12546
12418
12638
12415
12835
12548
12999
12609
12981
12578
12853
12424
12766
12509
12798
12634
13202
12928
13847
14624
16855
17771
15979
11452
11512
12208
12737
13120
12962
13372
13102
13519
13285
13768
13433
13836
13505
13869
13588
14001
14010
14204
14188
14730
15165
15278
15639
15587
15918
15628
15968
15407
15412
14616
14583
13858
13862
13300
13308
12974
13041
12923
12888
12896
12688
12826
12526
12814
12481
12899
12514
12859
12530
12920
12545
12931
12706
13028
12868
12997
12884
12879
12947
12800
12938
12732
13081
12963
13251
13230
13337
13094
13264
12875
13168
12728
13103
12745
13110
12760
13104
12877
13545
14073
16325
17857
16349
11741
11209
12088
12389
12754
12507
12924
12633
13105
12718
13152
12867
13245
13042
13382
13223
13452
13520
13702
13907
13930
14317
14327
14838
14559
14911
14493
14758
14207
14309
13567
13477
12855
12919
12531
12571
12434
12374
12404
12306
12565
12364
12725
12468
12863
12523
12961
12628
12975
12697
13061
12858
13092
12924
13203
12863
13233
12990
13223
12972
13050
12884
12976
13151
13230
13423
13212
13556
13202
13550
13122
13401
12914
13282
12969
13379
13055
13432
13311
13717
14204
15973
17721
16635
12056
11310
12401
12733
13271
12988
13388
12998
13376
13079
13460
13187
13572
13461
13679
13692
13851
14018
14078
14438
14418
14961
14859
15409
15225
15635
15139
15424
14841
14878
14167
14021
13406
13234
12853
12670
12543
12319
12478
12209
12510
12191
12614
12290
12726
12639
12951
12641
12974
12645
13096
12727
13060
12697
13124
12831
13085
12807
12985
12913
13009
13023
12891
13028
12839
13119
12946
13354
13112
13392
12952
13172
12731
12934
12458
12615
12370
12724
12551
12754
12848
13044
13887
15187
17051
16839
13103
11435
12605
13162
13804
13500
13903
13622
13886
13689
13987
13849
14000
13999
14182
14341
14272
14499
14400
14778
14777
15237
15149
15585
15369
15692
15243
15387
14923
14906
14490
14289
13711
13802
13211
13289
12988
13076
12925
12978
13099
13042
13154
13016
13272
13018
13326
12967
13252
12914
13204
12833
13090
12772
12943
12776
12965
12927
12951
12883
12774
12924
12819
13231
13122
13445
13229
13520
13129
13390
12990
13207
13000
13321
13355
13573
13589
13791
13829
14720
16529
17722
17967
13341
11638
12170
13321
13478
13897
13615
14028
13836
14059
13890
14098
14017
14023
14104
14067
14254
14072
14344
14237
14702
14829
15203
15221
15481
15243
15510
15083
15161
14479
14342
13573
13479
12783
12706
12335
12316
12110
12092
12045
12078
12178
12056
12295
12079
12372
12112
12460
12198
12555
12242
12585
12283
12499
12259
12376
12243
12373
12361
12377
12679
12492
12844
12585
12896
12559
12894
12443
12760
12425
12696
12499
12737
12691
12899
13255
14074
16065
17369
16347
11258
11431
11894
12952
12801
13227
12945
13414
13228
13536
13334
13579
13461
13636
13668
14057
13865
14138
14122
14418
14613
14831
15160
15148
15423
15058
15243
14717
14802
14069
14056
13324
13284
12690
12836
12467
12546
12297
12396
12387
12369
12524
12403
12708
12505
12886
12584
12974
12586
12976
12605
12956
12654
12949
12704
12879
12784
12926
12941
12843
12977
12883
13200
13011
13408
13103
13465
13040
13349
12924
13213
12834
13142
12910
13180
13093
13226
13362
13415
14178
15352
17386
16872
12813
11049
12187
12562
13248
13166
13588
13290
13671
13335
13765
13429
13835
13520
13861
13614
13923
13848
14092
14179
14368
14723
14778
15195
15053
15398
14957
15218
14695
14746
13974
13910
13225
13179
12658
12724
12425
12475
12414
12357
12464
12369
12597
12306
12619
12326
12673
12332
12741
12443
12876
12560
12874
12661
12941
12791
12920
12954
12951
13094
12964
13154
12790
13139
12839
13343
13132
13523
13214
13582
13261
13526
13174
13257
13072
13126
13113
13253
13039
13401
13338
14137
15153
16964
17521
14123
11405
11744
12995
13151
13610
13313
13760
13446
13870
13561
13897
13657
13879
13800
14021
14104
14120
14270
14247
14673
14591
15138
15069
15566
15188
15507
15031
15228
14656
14623
13974
13776
13269
13049
12708
12420
12355
12136
12337
12102
12411
12119
12545
12274
12723
12361
12774
12424
12758
12573
12812
12625
12730
12761
12775
12870
12676
12881
12637
12995
12679
13081
12715
13085
12837
13191
12918
13257
13032
13480
13113
13490
13205
13535
13156
13298
13020
13181
13160
13216
13292
13233
13533
13409
14468
15230
17172
16848
13571
10998
12142
12679
13448
13204
13505
13340
13546
13531
13538
13560
13530
13785
13630
13993
13761
14171
13871
14379
14119
14698
14566
15148
14998
15316
15139
15181
14974
14777
14530
13970
13779
13192
13119
12579
12886
12441
12750
12336
12746
12388
12791
12548
12798
12650
12793
12737
12736
12858
12987
12834
13010
12895
12904
12966
12915
13062
12864
13126
12795
13160
12771
13144
12765
13161
12763
13005
12747
13114
13070
13405
13336
13373
13421
13355
13570
13271
13441
13039
13368
12961
13410
13110
13579
13304
14308
15166
17021
17312
15169
10837
11435
12433
13006
13408
13256
13665
13383
13750
13388
13788
13412
13771
13499
13900
13711
14074
13943
14159
14230
14501
14784
14949
15305
15183
15473
15114
15352
14825
14928
14141
14115
13263
13374
12800
12989
12391
12601
12104
12482
12228
12560
12400
12612
12523
12608
12624
12559
12791
12584
12861
12595
12969
12597
12963
12566
12969
12558
12970
12684
13013
12851
13012
12932
12954
12967
12848
13097
12992
13467
13207
13674
13324
13674
13273
13633
13160
13358
13040
13284
13043
13294
13296
13509
13766
14524
16330
17320
16765
11822
11486
11959
13131
13017
13433
13221
13607
13308
13630
13408
13599
13584
13650
13758
13687
13743
14077
14094
14309
14516
14649
15046
15022
15337
14992
15238
14778
14984
14293
14285
13447
13416
12770
12784
12420
12587
12395
12437
12368
12261
12436
12271
12546
12227
12641
12355
12774
12405
12764
12394
12798
12488
12803
12510
12657
12562
12690
12767
12769
12980
12772
12995
12721
13116
12803
13215
12842
13195
12785
13253
13051
13521
13375
13629
13578
13675
13732
13615
13712
13395
13621
13323
13673
13274
13662
13386
14083
14411
16737
17089
15502
11242
11863
12335
13293
13127
13517
13315
13516
13360
13490
13503
13461
13614
13470
13720
13484
13918
13687
14178
13990
14559
14433
15057
15015
15437
15158
15331
15053
14960
14646
14225
13886
13281
13248
12739
12833
12304
12621
12212
12578
12227
12618
12313
12671
12488
12679
12605
12764
12820
12740
12853
12683
12946
12675
12995
12664
13060
12644
13055
12776
13197
12889
13190
12989
13189
13103
13231
13308
13256
13387
13340
13241
13455
13546
13536
13649
13504
13757
13465
13738
13299
13586
13157
13533
13127
13547
13237
13678
13688
14618
15730
17101
16531
12188
11269
11886
12924
12940
13401
13158
13632
13279
13676
13299
13706
13416
13759
13529
13835
13828
14011
14126
14215
14482
14480
14937
14917
15445
15198
15570
15071
15312
14723
14713
13933
13806
13166
13080
12662
12573
12427
12317
12426
12212
12489
12279
12584
12218
12655
12282
12737
12404
12790
12514
12905
12501
12892
12510
12916
12544
12823
12530
12802
12627
12762
12799
12835
12941
12808
13076
12846
13169
12838
13208
12818
13247
12949
13465
13221
13610
13357
13616
13449
13527
13435
13285
13331
13176
13462
13259
