12520
12780
12735
12565
12674
12346
12757
12274
12826
12277
12839
12233
12778
12191
12696
12354
12696
12304
12456
12421
12701
12906
12821
13101
12665
13083
12594
13070
12361
12837
12279
12896
12417
12802
12387
12805
12503
13495
15699
19037
20371
16815
12332
11804
12676
12645
13283
12848
13488
13199
13638
12866
13276
12930
13358
13186
13491
13223
13210
13444
13568
13947
13569
14179
13991
14733
14436
15149
14616
15136
14536
14867
14147
13994
13113
13354
12796
12937
12119
12467
12064
12190
12100
12278
12354
12334
12484
12245
12717
12396
12887
12180
12685
12262
12876
12454
13134
12878
13278
12872
13382
12969
12813
12973
13026
13154
12957
13641
13151
13590
13128
13741
13053
13569
12878
13286
12762
13227
12935
13250
13307
13295
13178
14602
18181
20411
19539
13095
12312
12155
13350
12791
13341
12914
13495
13106
13484
13085
13343
13168
13311
13463
13628
13741
13531
13988
13656
14085
14241
14753
14851
15324
15016
15422
14915
15443
14685
14883
13807
13859
13055
13027
12257
12393
12109
12221
12067
12093
12449
12319
12647
12336
12545
11713
12423
12058
12798
12451
13049
12736
13198
12764
12938
12505
12543
12647
12761
12892
12619
13028
12607
13116
12420
12814
12376
13271
12875
13356
12942
13371
13138
13459
13199
13195
13056
12919
13297
13156
13318
12817
13338
12791
13857
15357
18941
19802
17542
11729
12104
12531
13357
13011
13559
13115
13612
13288
13458
13461
13864
13623
13383
13572
13287
13700
13456
14106
13733
14495
14397
15271
14812
15402
14985
15326
15024
15301
14917
14710
14267
13613
13357
12793
13028
12514
12768
12292
12851
12291
12766
12289
12860
12524
12901
12634
12935
12630
12715
12803
12814
12931
12639
12979
12577
13012
12513
12894
12452
12894
12421
13081
12805
13275
12951
13127
12766
12836
12660
12544
12846
12698
12980
12568
13076
13078
13334
13322
15295
18063
20312
18296
13164
12026
12853
12624
13257
12876
13471
13085
13445
13207
13348
13279
13363
13638
13561
13795
13332
13811
13596
14364
14028
14817
14563
15407
14916
15437
15188
15530
15176
15052
14468
13877
13452
12723
12645
12075
12337
11735
12114
11404
11954
11483
12118
11742
12276
11860
12226
12156
12349
12366
12258
12480
12260
12602
12300
12772
12255
12710
12136
12704
12153
12769
12302
12810
12370
12680
12459
13153
12651
13288
12982
13440
13177
13351
13577
13308
13575
13172
13758
13246
13834
12988
13821
13230
14011
13441
15505
18002
20366
18826
13583
12271
12659
13286
13270
13594
13234
13767
13291
13761
13155
13868
13256
13825
13282
13838
13383
13921
13543
13950
13966
14144
14415
14549
14926
14700
15197
14691
15145
14431
14746
13766
13887
12876
13116
12435
12508
12035
12328
12225
12223
12288
12149
12590
12243
12659
12147
12667
12021
12508
12284
12712
12210
12997
12317
12961
12268
13020
12465
13126
12622
13069
12675
12995
12938
13133
13297
13228
13657
13034
13572
13256
13963
13274
13811
13030
13759
13063
13570
12880
13197
12764
12968
12791
12942
13051
12793
13243
14477
18188
19836
19192
12809
12424
12048
13112
12684
13334
12845
13373
13112
13311
13031
12998
13089
12997
13494
13217
13789
13280
14229
13861
14676
14208
15010
14640
15149
14738
15011
14687
14753
14650
14393
13370
13398
12628
12478
12185
12089
12080
11881
12222
11932
12339
11753
12481
11857
12608
12134
12876
12491
13118
12816
13146
12895
13315
13268
13321
13337
13043
13250
12774
13084
12503
13068
12307
12924
12384
13038
12784
13443
13055
13603
13480
13884
14000
13998
13942
13822
14191
13862
14364
13838
14316
13439
13931
13296
14030
13463
14088
13597
14344
15943
19779
21508
19392
13601
12684
13425
13088
13428
12979
13448
12849
13454
12638
14479
14023
13421
13353
13362
13365
13370
13367
13370
13365
13371
13364
13372
13366
13374
13368
13372
13368
13373
13365
13502
13880
12822
12957
12144
12521
11880
12216
11788
12057
11834
12182
12322
12454
12787
12627
12892
12502
12918
12330
12813
12176
12726
12174
12857
12269
12836
12380
12782
12636
13037
12990
12970
13114
13112
13443
13074
13585
13097
13726
13255
14030
13366
13960
13346
14063
13501
13862
13656
13853
13813
13856
14165
14307
14127
14538
14263
15765
18815
20214
19964
13770
12874
12838
13761
13536
14202
13486
13973
13311
13722
13117
13507
13235
13458
13364
13449
13631
13599
13940
13718
14512
14216
15111
14903
15778
15208
15805
15331
15740
15267
15321
14551
14445
13736
13332
13083
12633
12755
12429
12600
12282
12601
12146
12683
12386
12836
12409
12764
12396
12812
12614
12870
12879
13047
13080
12987
13118
13022
13147
12879
13133
12861
13333
13068
13414
13168
13484
13132
13139
12804
12974
12644
12892
12567
12705
12569
12672
12818
12201
13184
16458
20240
21084
17138
12301
12495
12620
13240
13088
13486
13369
13650
13399
13604
13437
13590
13532
13636
13696
13851
13988
14027
14239
14409
14599
14643
15277
15373
15835
15755
15862
15507
15589
14940
14865
14177
13758
13059
12686
12317
12114
11961
11745
11877
11746
11900
11756
12017
11765
12073
11844
12201
12118
12431
12374
12541
12508
12568
12345
12742
12656
12907
12934
13043
13156
13311
13483
13437
13628
13493
13667
13381
13489
13362
13454
13291
13394
13269
13556
13290
13282
12771
14115
16866
17545
17405
12262
10097
10904
11591
11999
12560
12514
12841
12801
13099
13114
13231
13057
13227
13259
13404
13349
13281
13520
13710
13936
14176
14688
14932
15367
15418
15732
15688
15845
15668
15480
15006
14618
14134
13814
13477
13169
13047
12861
12853
12761
12929
12860
12808
12601
12873
12766
12704
12733
12904
12873
12906
12697
12947
12840
12937
12907
13025
13003
13116
13273
13493
13545
13708
13792
13833
13992
13702
13636
13418
13357
13064
13206
13165
13265
13293
13539
13593
13763
13351
13992
16969
20641
21989
18600
13614
12987
13191
13112
13159
12977
13185
12917
12927
12610
12591
12438
12516
12511
12489
12587
12632
12991
13063
13386
13503
13972
14109
14616
14668
14963
14856
14899
14663
14506
13985
13458
12818
12416
11987
11713
11632
11427
11111
11100
11060
10998
11183
11107
11184
11153
11659
11720
11983
12056
12520
12650
12889
12942
13310
13405
13392
13260
13042
12740
12379
11902
11552
11433
11340
11436
11471
11821
11948
12345
12545
12899
13107
13415
13671
14055
14314
14674
14930
15037
14815
15056
17262
20478
21320
18921
13603
12153
12085
11992
11822
11897
12253
12463
12529
12538
12798
13081
13306
13643
13958
14248
14420
14704
14865
15074
15098
15246
15173
15333
15241
15207
14929
14868
14583
14262
13703
13275
12739
12447
12207
12201
11977
11949
12066
12237
12453
12482
12638
12658
12745
12685
12823
12875
12715
12795
12918
12655
12738
12812
12766
12640
12590
12518
12439
12413
12336
12393
12260
12423
12443
12860
13104
13413
13307
13548
13526
13539
13422
13428
13477
13445
13447
13343
13558
13456
13610
15117
18561
20878
20211
14792
13738
13978
14145
14012
13989
14048
13973
13759
13532
13459
13682
13556
13423
13068
12752
12806
12830
12932
12990
13272
13377
13785
13868
14109
14144
14278
14204
14464
14008
13764
13471
13250
12958
12969
12976
12967
13090
13094
13140
13034
13157
13035
13024
12893
12991
12769
12834
12652
12826
12704
12607
12617
12688
12721
12642
12492
12279
12608
12322
12034
12121
12381
12332
12147
11901
12107
11729
11845
11974
12322
12510
12810
13069
13399
13754
14103
14097
15394
18807
21422
22086
14994
13525
13243
13397
13241
13050
12767
12528
12021
11861
11662
11868
11774
12057
12130
12317
12485
12735
12973
13228
13587
13866
14255
14469
14804
14828
15061
15059
15248
14841
14503
13838
13368
12932
12623
12446
12225
11719
11623
11650
11555
11695
11758
11985
12074
12306
12336
12644
12719
12871
12766
13003
13050
13152
13199
13258
13250
13215
13183
13068
13140
13092
13253
13140
13223
13143
13204
12945
13026
12916
13152
13263
13392
13479
13752
13729
13781
13585
13647
13568
13618
13508
13497
13473
13433
13321
13521
14893
17437
19234
17841
13022
12216
12624
12792
13041
12982
13175
13235
13305
13485
13384
13511
13427
13634
13501
13786
13695
13990
13899
14279
14040
14345
14396
14827
14906
15201
15359
15432
15584
15465
15361
14838
14461
13787
13699
13179
13143
12806
13007
12801
13004
12840
12921
12763
12734
12634
12701
12795
12556
12562
12290
12471
12274
12547
12378
12869
12838
13096
13012
13341
13158
13536
13327
13667
13551
13859
13903
14194
14198
14426
14469
14633
14766
14714
14891
14897
15175
15145
15455
15414
15818
15833
16514
16575
17839
19606
21539
21619
17619
15928
16377
16860
16956
17040
16875
17038
16775
16941
16748
16925
16605
16757
16463
16662
16450
16648
16589
16812
16925
16957
16999
16975
16991
16995
17260
16660
16824
16485
16377
15360
14916
14167
13904
13206
12931
12512
12394
12282
12276
12080
12259
12105
12236
12163
12178
12446
11985
11841
11754
11918
11823
12066
11900
12286
12096
12393
12081
12123
11835
12088
11981
11954
11835
11875
11996
12021
12233
12208
12502
12339
12607
12307
12470
12118
12359
12182
12457
12336
12631
12671
12893
13421
14384
16300
17222
15776
11547
11825
12310
13018
12934
13250
13015
13233
13037
13264
13109
13397
13342
13514
13464
13564
13631
13517
13595
13421
13705
13590
13961
13908
14501
14538
15083
14827
14994
14572
14494
13747
13643
12925
12810
12322
12388
12164
12272
12175
12252
12280
12227
12413
12288
12479
12204
12510
12216
12463
12035
12305
11947
12216
12014
12292
12212
12395
12406
12350
12458
12265
12426
12240
12644
12479
12985
12718
13106
12808
13119
12735
12930
12631
12844
12728
12856
12831
12922
13091
12918
13640
14663
17143
17715
15574
11472
12074
12318
13087
12818
13205
12976
13195
12963
13094
12990
12955
12990
13105
12939
13252
13344
13447
13642
13853
14369
14583
14865
14708
15236
15082
15440
15047
15400
15015
14780
14036
13645
13075
12996
12731
12760
12614
12407
12223
11968
12373
12217
12442
12212
12481
12192
12511
12324
12867
12610
12784
12434
12562
12424
12519
12386
12344
12386
12270
12494
12398
12819
12816
13411
13330
13511
13033
13361
12964
13217
13127
12784
11969
12432
12991
13233
13485
13616
15192
16604
17834
15906
11394
11805
13361
13696
13944
13426
13886
14455
15013
14522
13839
13010
13824
14430
14515
14284
14581
14366
14491
14664
14583
15122
15264
15697
16037
16110
15413
15405
14733
15224
14840
14713
13981
13797
13184
12828
12581
12720
12629
12567
12446
12349
12502
12541
12828
12433
12688
12313
12673
12385
12790
12583
12750
12538
12697
12571
12641
12710
12584
12864
13101
13483
13295
13612
13337
13486
12995
13216
12891
13123
12898
13249
13300
13444
13635
13996
15737
18024
18560
15364
11635
12393
13063
13420
13515
13415
13647
13513
13640
13451
13757
13600
13877
13725
14120
13963
14339
14322
14487
14542
14900
15051
15212
15552
15599
15856
15627
15711
15303
15234
14498
14250
13546
13384
12736
12732
12457
12446
12265
12386
12425
12431
12436
12373
12593
12391
12594
12411
12833
12462
12504
12317
12796
12474
12659
12423
12473
12372
12715
12875
13040
13078
12952
13044
12941
13129
12862
13074
12909
12995
13105
13830
14057
14801
15105
17483
19115
16142
11509
12437
12933
14147
14413
13105
12203
12783
13047
13351
13959
16021
17202
12725
11792
12342
13439
13933
14629
14538
14572
15032
15169
15388
15283
15592
15086
14976
15310
15013
14067
13974
13495
13482
12810
12652
12120
12296
12245
12050
11510
11826
11993
12286
12325
12281
12389
12393
12656
12494
12645
12468
12780
12572
12850
12834
13219
12997
13246
13198
13205
12798
12858
12842
12896
12557
12728
12605
12613
12941
13416
13730
14884
17410
18558
15969
11221
12065
12483
13331
13335
13880
13712
13900
13595
13899
14125
14177
13666
13537
14060
14062
14375
14162
14715
14467
15026
14690
15097
14852
15310
15120
15539
15130
15108
14823
14564
14212
13642
13550
13181
13133
12449
12693
12451
12529
12485
12799
12438
12818
12671
12730
12076
12438
12469
12476
12543
12914
12447
11309
11808
12422
12821
12505
13317
13101
14680
12834
12196
11685
12416
12165
12908
12956
13322
13141
13524
14050
17238
18583
16995
11964
11664
12756
13087
13233
12768
12983
12780
13176
12654
12946
12654
13217
12927
13052
12796
13257
13447
13553
13639
13887
14261
14255
14567
14413
14732
14535
14919
14550
14682
13938
13886
13384
13319
12660
12559
11988
12275
13004
12918
12901
12720
12947
12691
13022
12703
13080
12622
12830
12339
12664
12226
12512
12444
12719
12894
13108
12989
13000
13074
13236
13010
12945
12903
12912
12950
13165
13500
13022
14037
15514
17837
18762
15923
11931
13028
13254
13556
13167
13316
13194
13189
13149
12910
13343
13309
13808
13448
13397
13579
14229
13960
14825
14839
14738
14246
15015
15044
15490
15872
16050
15540
14948
14831
14421
14129
13126
12713
12282
12732
12277
12313
12013
12371
12200
12475
12084
12422
12070
12419
12943
13093
12578
12186
12467
12038
12664
12680
13037
12712
13384
13356
13286
12623
12795
12236
12825
12651
12975
12473
12929
13215
13396
13688
15790
18451
19036
15114
12262
12760
12746
13676
13281
13256
12330
12786
12674
13068
12776
13032
12615
12746
12971
13107
13208
13140
13344
13621
14064
14169
14797
14511
14768
14746
15200
14653
14767
14032
13874
13382
13307
12746
12509
12561
12565
12620
12494
12692
12304
12691
12644
13039
12510
13077
12963
13318
13101
13409
13133
13310
13236
13286
13409
13508
13572
13454
13876
13947
13880
13742
13785
13561
13583
13546
14004
13587
14064
13664
14839
16650
19061
19309
14916
12327
13133
13317
13634
13731
13725
13715
13670
13863
13590
13936
13516
13830
13615
14174
13945
14292
14024
14383
14294
14650
14586
14929
15448
15448
15491
15174
15411
15156
15187
14437
14284
13589
13657
13125
13210
12784
13081
12992
13079
12779
12773
12823
12711
12840
12713
12980
12646
12810
12633
13163
12792
13084
12670
13072
13015
13401
13028
13395
12939
13089
12740
12925
12548
12872
12957
12992
12933
12924
13268
14450
16982
17701
17477
11806
11758
12078
12929
12757
13259
12985
13343
13111
13267
13310
13333
13188
13325
13543
13690
14096
13990
14315
13960
14507
14416
14750
14551
15160
14548
15121
14893
14812
14381
13902
13330
12976
12548
12031
12151
11600
12224
11885
11922
11433
11821
11379
11822
11615
12177
12282
12915
12477
12332
12114
12237
12688
12429
12624
12575
13322
13199
13362
13276
13342
12973
13061
12510
12813
12563
12796
12661
13269
12944
13144
12792
14045
15712
17385
18217
14861
11249
11801
12630
13030
13438
12815
13234
12988
13327
13133
13449
12916
13404
13187
13505
13355
13226
13196
13474
13928
13836
14330
14314
14442
14583
15309
14625
14810
14538
14256
13137
13267
12938
12568
12125
12130
12166
11881
11538
11709
12294
12063
12378
11902
12219
11967
12166
11528
12146
12050
12390
12314
12683
12127
12232
11952
12317
12345
12514
12430
12762
12715
12622
12839
12485
12685
12109
12415
12210
12499
12219
12714
12297
12633
12853
15245
17522
18454
14540
11299
11795
12419
12868
12672
12979
12806
13155
12821
13248
12923
13308
13024
13483
13233
13488
13301
13598
13670
13969
14267
14494
14904
15002
15434
15309
15671
15266
15454
14755
14717
13936
13880
13313
13313
12891
12937
12855
12883
12964
12845
12932
12724
12985
12740
13039
12913
13060
12893
13061
12838
13373
13045
13666
12794
12119
11793
12512
12441
12682
12432
12677
12703
12971
13251
13401
13627
13401
13780
13499
13747
13509
13684
13388
13746
13460
13621
13289
13451
13804
15275
17633
18843
16533
12197
12390
12753
13406
13470
13903
13733
13796
13573
14046
13708
13931
13809
14147
14104
14298
14116
14123
14080
14241
14587
14773
15259
15194
15562
15375
15744
15368
15474
14937
14879
14228
13900
13289
13263
12695
12798
12501
12676
12441
12552
12429
12500
12474
12264
12376
12288
12525
12258
12497
12268
12599
12388
12633
12185
12481
12303
12594
12356
12621
12651
12710
12735
12690
12902
12675
12829
12529
12754
12496
12839
12606
12998
12807
13302
14496
16777
16732
16288
11587
11002
11867
12324
12717
12697
13017
12764
13056
12789
13208
12889
13198
12866
13205
13137
13361
13314
13665
13693
13927
14187
14306
14639
14635
15028
14927
15222
14896
15041
14578
14444
13868
13809
13165
13275
12861
13026
12647
12984
12752
12901
12726
12925
12897
12927
13067
12995
13087
12949
13213
12992
13203
13067
13392
13014
13353
12986
13338
13033
13387
13329
13376
13159
13283
13268
13066
13195
12968
13344
13024
13454
13290
13736
14152
16089
16610
15823
13332
11260
11794
12714
13265
13466
13543
13640
13834
13633
14011
13715
14075
13914
14261
13915
14344
14189
14573
14351
14760
14780
15127
15227
15499
15241
15584
15350
15289
15029
14753
14264
13758
13605
13104
13027
12617
12681
12306
12613
12115
12499
12238
12514
12286
12607
12469
12646
12518
12621
12732
12733
12896
12774
12928
12700
13060
12737
13048
12716
13136
12837
12923
12636
12839
12746
12858
12861
13011
13012
13191
13273
13111
13170
12795
13117
12828
13219
12980
13376
13166
13530
13112
13357
13263
13272
13127
13234
13253
13292
13433
13368
13507
13259
13694
13287
13605
13372
13585
13383
13589
13275
13621
13298
13622
13281
13563
13210
13487
13265
13330
13220
13257
13348
13266
13300
13200
13600
13510
13832
13486
13829
13537
13921
13529
13833
13536
13750
13527
13719
13703
13770
13864
13793
13883
13667
13898
13622
13897
13659
14019
13817
14146
13807
14055
13712
14151
13827
14020
14346
15395
16200
16350
15573
13722
12162
12701
13603
13720
14047
13649
14077
13824
13999
13742
14076
13912
14124
14046
14090
14005
14322
14320
14521
14524
14762
14806
14774
15053
15024
15266
14746
14829
14463
14832
14226
13797
13188
13380
12729
12456
12142
12448
12476
12253
12563
11989
12276
11888
11879
11858
12398
12189
12719
12702
13827
13495
13293
13288
12966
12474
12272
12489
13280
13446
12924
12416
12354
12970
13406
13195
12439
13069
12807
13423
13609
13901
13432
13208
12979
13345
13106
13067
13201
13716
13542
12731
13149
13479
13660
13005
13141
13226
14091
13579
13232
13556
13984
13327
14118
13618
13157
13433
13169
12708
13210
13318
13322
13362
12966
13102
13169
14795
13414
12860
12474
13327
13562
13083
12844
13828
12922
13599
13025
12887
12921
13681
14259
14377
14123
13044
13280
12469
12605
13094
14213
13858
14501
13354
12614
13214
12912
13035
13501
13948
14924
15376
14437
14575
11513
11342
11551
12547
12602
13427
12742
12909
12921
13353
13184
14434
14064
12739
13002
13707
13762
13708
13489
14133
14561
15555
15334
13655
14478
15146
15250
14765
15171
14842
14574
14322
14490
13962
12931
12372
12891
12126
11901
12511
12291
12548
12184
12087
12158
12373
12255
12415
12841
12173
10891
11907
12054
12972
12024
11883
13163
13126
12373
12083
12300
12214
12213
12110
13005
13183
13318
13308
13565
11385
12818
13145
12715
12651
11875
13255
14048
13339
13279
13984
12692
12683
11785
12401
12134
12662
14166
14912
14347
12352
12116
13980
14138
12834
13496
14496
13408
13894
13783
14044
14625
14768
12811
13049
14486
13019
13503
14301
15531
14755
13365
13376
14135
13142
13061
14171
14606
16533
16896
15506
12380
11832
12336
13397
13167
11762
13232
13805
13236
14638
14585
15047
14101
12590
12713
14109
13251
13321
12793
14814
15694
14974
14445
14955
14703
14510
15476
15142
14470
16247
17836
15073
14357
12988
13661
13723
12368
10618
12342
13073
13818
13074
12408
13473
12070
10202
10228
12961
14277
14028
11476
12692
12756
12652
12743
12445
12802
12929
12527
12531
11176
13267
15015
12168
11727
13522
13415
13177
13449
12692
12689
14294
13122
11124
12354
12294
13492
14263
14059
13956
13912
13170
12950
11666
12262
13222
12673
13351
14301
14555
13567
14462
13372
12955
12849
13518
12954
13422
13419
13673
14567
16477
16699
16451
14989
11833
11706
12677
13046
13082
14049
14454
14465
13427
13882
13845
13766
12738
13841
14261
14429
14205
14914
13430
13278
13872
14301
14589
14404
14768
15354
15801
15067
15751
15487
15308
14244
14229
13684
14047
13110
12759
12926
12357
11382
11853
13005
12329
11997
12681
13016
11778
12398
12407
12322
11910
12794
12355
12906
12606
12770
12485
13036
13353
13107
12741
12549
12819
13052
12873
12375
13135
12994
13269
13249
13570
12626
12764
12829
13076
12949
13319
13299
13626
13505
12998
13174
13133
13156
12749
13238
13304
13422
13499
13989
13568
13447
13066
13628
13253
13657
13410
13712
13346
13670
13598
13673
13636
13585
13481
13366
13457
13165
13489
13625
14024
13634
14079
13717
14099
13633
13686
13413
13498
13376
13833
13977
14440
14933
15837
16635
16861
13995
12299
12991
13191
13589
13325
13619
13365
13680
13331
13624
13511
13614
13550
13552
13563
13585
13914
13656
14052
13871
14307
14210
14695
14632
15262
15009
15414
15250
15520
15307
15024
14149
14182
13651
13395
12878
12649
12417
12786
12850
12660
12699
12454
12604
12239
12566
12258
12596
12394
12768
12513
12808
12552
12822
12634
12753
12692
12736
12831
12750
12851
12509
12842
12531
12797
12456
12832
12472
12922
12611
12976
12748
13018
12898
13049
13030
13015
12994
12891
13077
12887
13185
12885
13186
12930
13357
13056
13389
13037
13333
13064
13261
13083
13152
13110
13159
13253
13176
13420
13233
13572
13211
13540
13271
13441
13205
13408
13129
13474
13266
13853
14140
15451
16149
16694
14368
12154
12328
13016
13326
13428
13525
13429
13676
13545
13821
13566
13881
13653
13946
13586
14024
13765
14156
14073
14515
14612
15074
15208
15501
15809
15932
16161
15968
16228
15804
15910
15275
15289
14459
14373
13701
13683
13223
13436
13061
13156
13240
13232
13425
13232
13347
13117
13355
12840
13263
12876
13137
12875
13276
12803
13220
12822
12706
12816
12855
12698
12942
12574
12849
12755
12840
12785
12773
12824
12669
12783
12378
12595
12297
12484
12031
12306
11814
12071
11683
11866
11481
11550
11318
11443
11466
11599
11909
12121
12518
12342
12781
12545
12904
12633
12994
12581
12792
12328
12651
12446
13036
13624
14376
15638
16411
16188
12729
12438
12970
13835
13754
14095
13827
14195
13730
13929
13527
13754
13338
13596
13502
13698
13519
13505
13664
13679
14130
14152
14737
14677
15416
15265
15852
15709
15928
15604
15673
14835
14713
13851
13699
12893
12861
12390
12583
12423
12567
12482
12448
12510
12424
12608
12387
12724
12559
13015
12727
13064
12738
13214
12949
13444
13166
13414
13316
13378
13175
13186
13341
13285
13399
13014
13254
12942
13304
12836
13177
12805
13183
12730
12860
12531
12759
12754
12897
12972
13057
13454
13290
13666
13347
13977
13645
14150
13563
13913
13400
13916
13579
14166
14366
15411
16976
18564
18128
13691
11959
12580
12838
12938
13048
13190
13511
13492
14002
13801
14266
13906
14405
13985
14482
14043
14530
14108
14482
14320
14659
14584
14741
14901
14957
15294
15054
15380
14896
15165
14310
14375
13412
13396
12566
12732
12221
12451
12080
12200
11976
11967
12059
11934
12185
11954
12332
11937
12405
11984
12514
11996
12550
12119
12556
12280
12668
12414
12596
12438
12543
12578
12356
12548
12242
12601
12142
12641
12156
12649
12247
12803
12417
13191
12981
13680
13297
13877
13326
13677
13193
13455
13078
13295
13108
13161
13266
13346
14431
16105
17463
16374
12124
10210
11231
11410
12405
12123
12790
12465
13046
12897
13139
13208
13333
13442
13361
13727
13572
13886
13875
14452
14322
14715
14652
15331
15117
15663
15378
15647
15404
15703
15443
15127
14535
14019
13650
13132
12996
12655
12713
12254
12405
11958
12233
11970
12444
12242
12635
12452
12715
12502
12538
12464
12581
12880
13225
13095
13132
12928
12740
12595
12421
12560
12462
12806
12718
13062
12937
13524
13479
13991
13708
13975
13745
13986
13877
14112
14150
14354
14641
15441
17102
18584
18761
15987
12156
11870
12688
12881
13360
13167
13607
13413
13551
13308
13464
13459
13588
13713
13700
13905
13845
14267
14231
14757
14701
15172
14922
15399
15339
15710
15457
15649
15375
15218
14708
14138
13585
12921
12548
11946
11952
11579
11945
11703
11979
11629
12036
11890
12242
11965
12262
12092
12454
12167
12490
12278
12528
12275
12358
12244
12278
12296
12216
12362
12184
12273
11942
12238
11939
12275
11981
12378
12109
12416
12222
12623
12577
12838
12797
12882
12992
12974
13143
12978
13134
12722
12894
12612
12937
12751
13448
13907
15453
16920
17215
14102
11714
12231
12974
13452
13490
13774
13582
13845
13618
13975
13682
14057
13843
14233
13985
14379
14203
14499
14410
14561
14704
14902
15154
15228
15514
15783
15697
15717
15588
15153
14775
14018
13736
13019
12977
12396
12558
12129
12396
12083
12380
12198
12386
12125
12203
12124
12080
12226
12189
12441
12192
12405
12166
12509
12244
12547
12314
12712
12500
12885
12753
13017
12887
12950
12819
12691
12585
12382
12489
12242
12582
12339
12669
12427
12954
12852
13449
13365
13763
13581
13732
13472
13448
13345
13245
13127
13092
13480
13342
13800
13843
14813
14889
16788
17124
16202
12229
12597
13080
13790
13509
13916
13680
13939
13665
13846
13738
13894
13902
13963
14075
14010
14237
14085
14400
14227
14658
14502
15013
14909
15400
15210
15572
15345
15478
15180
15003
14646
14130
13748
13191
13019
12509
12509
12066
12350
12049
12398
12126
12398
12034
12208
12013
12270
12213
12308
12305
12316
12467
12319
12524
12308
12619
12374
12726
12501
12890
12676
12992
12759
13008
12827
12994
12813
12860
12888
12839
12995
12859
13083
13004
13098
13189
13364
13332
13646
13513
13781
13531
13793
13432
13713
13302
13438
13122
13384
13231
13565
13790
14646
15344
16879
17175
14901
11747
12003
13160
13557
13971
13709
14067
13806
14071
13882
14238
14135
14313
14332
14356
14397
14339
14531
14485
14701
14549
15072
15124
15687
15571
15989
15719
15976
15624
15691
15255
15004
14473
13961
13523
13045
12851
12452
12439
12078
12318
11987
12325
12050
12357
12144
12434
12246
12459
12315
12574
12369
12675
12437
12588
12408
12578
12584
12588
12597
12476
12621
12495
12765
12602
12902
12589
12907
12583
12923
12701
12955
12689
12874
12756
12954
13090
13184
13307
13318
13501
13347
13534
13231
13380
13062
13427
13220
13453
13301
13830
14476
15834
17173
16997
13626
10930
11732
12531
13188
13052
13498
13410
13680
13472
13963
13788
14165
14007
14397
14238
14447
14367
14389
14328
14320
14508
14521
14943
14943
15424
15274
15539
15065
15027
14496
14290
13499
13205
12440
12387
11770
11943
11603
11972
11980
12420
12507
12880
13046
13057
13173
12973
13118
12887
13055
12753
12971
12570
12850
12512
12776
12465
12726
12563
12711
12480
12518
12482
12361
12487
12356
12678
12675
13012
12889
13211
12864
13036
12471
12580
12243
12473
12277
12523
12560
12871
13555
14618
16447
16554
15047
10633
11177
11935
13159
13144
13511
13262
13578
13273
13490
13167
13363
13172
13101
12874
13170
13070
13388
13473
13774
14117
14587
15162
15334
15817
15883
16388
16237
16496
16116
16172
15462
15236
14506
14167
13482
13271
12911
12753
12586
12432
12502
12395
12629
12555
12992
12901
13320
13225
13604
13395
13659
13406
13644
13464
13432
13232
13213
13168
13084
13166
13010
13247
13139
13452
13238
13677
13450
13797
13529
13751
13405
13451
13206
13498
13529
13587
13555
13311
13526
13745
14916
16105
17564
16810
13017
11472
12928
13365
13719
13513
13834
13552
13847
13552
13825
13550
13741
13550
13626
13503
13512
13599
13613
13874
13901
14439
14601
15107
15021
15439
15223
15487
15157
15229
14787
14636
14000
13651
13111
12709
12367
12006
11918
11704
11984
11897
12147
11949
12293
12095
12409
12170
12465
12205
12412
12308
12380
12258
12167
12153
12100
12233
12055
12238
12055
12321
12083
12444
12238
12664
12562
12894
12775
12999
12846
12915
12867
12830
12808
12800
12629
12771
12746
12890
13272
14231
16024
16492
15553
10800
10646
11451
12571
12611
13066
12922
13204
13132
13426
13362
13621
13670
13803
13875
13792
14048
14019
14403
14306
14738
14671
15189
15071
15526
15347
15589
15391
15462
15264
15100
14833
14401
14048
13537
13471
12980
12983
12613
12820
12429
12647
12368
12675
12454
12667
12524
12706
12653
12697
12721
12697
12824
12597
12716
12538
12804
12462
12736
12476
12753
12496
12835
12720
13064
12763
13059
12821
13163
13045
13391
13292
13512
13458
13479
13403
13264
13215
12965
13029
12753
12999
12831
13261
13334
14574
15702
16680
15575
11594
10637
11760
12602
13083
13258
13379
13611
13528
13685
13546
13905
13765
14149
14034
14546
14464
14814
14690
14949
14859
15187
15393
15588
15784
15847
16036
15883
15976
15603
15678
15081
14878
14147
14044
13373
13270
12796
12836
12603
12699
12613
12664
12741
12662
12787
12633
12717
12857
12840
12745
12833
12676
12891
12701
12938
12647
12945
12641
12882
12531
12765
12553
12655
12396
12549
12492
12615
12777
12826
13051
12946
13161
12896
13133
12781
12998
12618
12979
12710
12980
12817
13255
13564
14654
16283
16767
15347
11080
11271
12044
13042
13073
13447
13173
13535
13298
13696
13492
13863
13751
14002
13838
13966
13940
13924
14054
14077
14436
14430
14984
14956
15443
15273
15656
15366
15596
15192
15123
14479
14229
13414
13372
12734
12784
12404
12424
12155
12295
12241
12203
12265
12242
12430
12276
12545
12262
12557
12213
12540
12214
12522
12178
12390
12041
12234
12079
12251
12212
12313
12498
12445
12602
12395
12695
12632
13198
12943
13396
13101
13537
13185
13456
13053
13128
12991
13205
13214
13153
13333
13413
14430
15534
17607
17491
15228
11171
12089
12568
13618
13428
13750
13509
13796
13749
13797
13743
13720
13971
13854
14046
13781
14170
13975
14772
15323
15371
15844
15733
16205
15862
16271
15631
15687
15108
15107
14183
13829
13043
12815
12401
12138
11979
11767
11976
11782
12209
11926
12347
11962
12410
12222
12870
12513
12883
12525
12891
12554
12680
12482
12493
12397
12225
12370
12194
12508
12392
12948
12529
12916
12459
12748
12200
12623
12256
12630
12381
12576
12485
12664
12818
12960
14710
16753
17527
16216
11322
10155
11661
12042
13202
13024
13531
13252
13568
13305
13440
13261
13789
13379
13754
13575
13873
13854
14067
14226
14348
14710
14665
15104
14852
15254
14828
15303
14740
15011
14250
14300
13557
13389
12807
12603
12308
12206
12194
11962
12137
11925
12388
11998
12417
12095
12619
12204
12734
12467
12813
12351
12666
12398
12509
12285
12299
12286
12208
12558
12499
12926
12703
13126
12721
13194
12844
13247
12787
13176
12820
13096
12967
13166
13353
13666
14972
17068
18814
17354
12323
11469
12687
12912
13638
13336
13802
13410
13923
13451
13863
13391
13896
13629
14159
13961
14214
14208
14285
14431
14577
14903
14864
15288
15206
15648
15255
15542
14945
15191
14470
14494
13654
13644
12985
12989
12638
12557
12358
12189
12414
12102
12400
12080
12473
12062
12608
12202
12713
12347
12781
12465
12800
12572
12765
12575
12671
12695
12533
12725
12531
12964
12674
13219
12856
13391
12921
13379
12771
13136
12675
12966
12800
12937
12930
12957
13200
13445
13867
15891
18202
17918
12989
11234
12052
12412
12960
12657
13109
12679
13102
12584
13072
12648
13166
12755
13126
12876
13235
13215
13440
13638
13756
14132
14171
14689
14642
15158
14760
15170
14646
14989
14364
14488
13646
13602
12862
12754
12369
12317
12239
12083
12269
12038
12364
12001
12434
12013
12488
12035
12554
12230
12787
12406
12765
12481
12680
12621
12733
12836
12785
13084
12858
13171
12863
13369
13050
13704
13300
13783
13384
13779
13212
13378
12837
13200
12689
13093
12673
13085
12745
13104
13136
13978
15990
17909
17321
12045
11624
12117
13151
12871
13286
12785
13139
12622
12956
12490
12903
12662
13067
13082
13362
13508
13610
13798
13746
14158
14020
14593
14361
14955
14611
15044
14598
14980
14524
14752
14237
14189
13749
13595
13447
13303
13254
12838
12983
12614
12995
12602
13123
12751
13258
12855
13322
13026
13403
13168
13370
13257
13361
13362
13220
13128
13429
13347
13564
13630
13674
13817
13626
13939
13565
13836
13320
13717
13216
13603
13072
13432
13069
13506
13243
14691
16882
18003
17640
12307
11208
11878
12873
13003
13578
13345
13929
13522
13916
13487
13884
13481
13769
13527
13761
13689
13833
13992
14031
14449
14460
14983
14970
15572
15304
15811
15332
15674
15087
15126
14273
14070
13330
13036
12563
12395
12329
12120
12331
12118
12477
12167
12635
12263
12756
12423
12919
12578
12970
12677
13287
12807
13210
12716
13095
12698
13019
12832
13164
13093
13241
13225
13062
13148
12796
12948
12506
12798
12375
12897
12517
13111
12755
13887
15009
17576
18548
15677
11447
11838
12499
12833
13190
13057
13449
13120
13545
13076
13600
13218
13697
13391
13799
13532
13874
13809
14044
14163
14273
14669
14721
15164
14897
15402
15006
15436
14888
15138
14361
14387
13561
13506
12908
12946
12635
12554
12570
12455
12564
12298
12583
12275
12493
12561
12744
12515
12725
12416
12828
12380
12813
12273
12751
12347
12733
12368
12874
12625
12918
12847
12919
12874
12773
12970
12737
13048
12704
13125
12734
13310
12895
13625
14405
17032
18303
18100
12350
11804
12189
12853
13069
13034
13224
13039
13357
13013
13405
13003
13370
12982
13496
13131
13576
13304
13782
13721
14134
14242
14547
14893
14972
15324
15122
15530
15098
15416
14644
14678
13717
13717
12915
13038
12415
12606
12354
12666
12250
12661
12306
12674
12500
12810
12730
12826
12919
12829
13034
12786
13131
12718
13096
12568
13040
12493
12972
12670
13203
12819
13173
12953
13126
12997
12919
12929
12774
13067
12791
13109
12789
13391
13087
14627
16375
18812
18184
13202
11546
12352
12659
13125
13126
13257
13377
13225
13456
13186
13610
13219
13648
13159
13720
13538
14134
13823
14414
14295
14807
14851
15311
15427
15508
15654
15486
15629
15124
15164
14275
14278
13374
13322
12784
12921
12368
12744
12234
12724
12213
12670
12269
12714
12368
12673
12543
12680
12585
12563
12666
12489
12785
12503
12891
12444
12843
12394
12907
12383
12783
12266
12685
12390
12845
12839
13041
13122
13127
13244
12998
13195
12766
13172
12760
13223
12816
13402
13000
13524
13501
15182
17119
19031
17630
12571
12116
12575
13232
13154
13522
13279
13714
13233
13671
13211
13704
13270
13753
13396
13851
13632
13933
13991
14268
14302
14948
14869
15300
15185
15382
15253
15064
15047
14513
14380
13502
13351
12488
12615
11932
12311
11811
12330
12012
12442
12137
12395
12212
12278
12307
12275
12411
12200
12502
12167
12615
12190
12711
12234
12740
12272
12772
12390
12771
12532
12845
12778
12890
12984
12904
13110
12804
13111
12818
13175
12862
13456
13059
13614
13147
13579
13219
13533
13191
13287
13129
13179
13232
13116
13402
13098
14170
15128
17562
18034
15710
11530
12539
12870
13571
13205
13705
13261
13718
13270
13651
13286
13611
13333
13577
13440
13588
13685
13700
13982
13900
14386
14391
14948
14808
15385
15078
15532
15038
15385
14759
14657
13916
13687
13152
12830
12653
12436
12482
12221
12548
12227
12677
12243
12746
12363
12810
12416
12870
12559
12895
12714
12921
12834
12844
12911
12821
12997
12740
12989
12764
13110
12759
13153
12754
13203
12806
13154
12781
13127
12876
13100
12874
12926
13001
13301
13177
13469
13368
13506
13544
13489
13580
13333
13537
13138
13537
13150
13667
13299
13854
13687
14825
16345
18558
17872
13350
12071
12573
13097
13221
13379
13166
13464
13125
13454
13102
13530
13092
13570
13203
13716
13479
13894
13723
14062
14122
14365
14613
14787
15220
15164
15529
15273
15644
15128
15326
14416
14360
13447
13449
12708
12745
12388
12525
12345
12351
12325
12229
12443
12177
12484
12169
12574
12209
12716
12258
12697
12337
12867
12544
12912
12489
12943
12528
12869
12476
12827
12631
12839
12738
12784
12823
12752
12903
12657
12926
12603
12977
12536
13011
12549
12942
12512
12982
12711
13210
13050
13368
13271
13303
13377
13220
13424
13108
13362
13042
13506
13210
13739
13480
14265
14330
16537
18143
18177
13545
12583
13081
13649
13840
13716
13971
13634
13902
13551
13946
13544
14066
13764
14313
13967
14372
14121
14454
14350
14632
14801
15039
15371
15407
15783
15755
15696
15672
15576
15144
14872
14087
13883
13107
13166
12483
12702
12187
12510
12092
12518
12149
12369
12098
12196
12081
12151
12282
12143
12375
12137
12505
12162
12673
12298
12753
12303
12732
12399
12801
12499
12792
12590
12735
12635
12551
12646
12523
12756
12493
12847
12465
12918
12493
12890
12455
12906
12445
12719
12439
12775
12835
13027
13081
13092
13204
13080
13326
13003
13403
12949
13326
12818
13347
13015
13542
13517
14444
16657
18023
15156
11938
11783
12947
13083
13422
13233
13377
13389
13421
13513
13336
13616
13391
13792
13455
13971
13646
14241
13911
14457
14167
14733
14641
15131
15167
15429
15491
15487
15539
15261
15238
14516
14382
13568
13610
12896
13136
12521
12849
12347
12626
12307
12548
12406
12516
12522
12570
12759
12538
12825
12508
12881
12421
12805
12374
12787
12316
12721
12302
12600
12323
12581
12499
12599
12646
12588
12716
12505
12880
12587
12891
12974
13179
12980
13202
12928
13410
13229
13761
13318
13755
13343
13800
13385
13666
13299
13414
13165
13233
13219
13196
13498
13511
14598
15798
17743
17020
13153
11216
12454
12863
13516
13232
13657
13346
13529
13445
13594
13601
13585
13861
13709
14051
13773
14203
13899
14398
14031
14606
14395
15102
14991
15474
15297
15506
15395
15331
15145
14710
14484
13830
13718
12988
13070
12425
12686
12187
12565
12176
12621
12325
12659
12404
12853
12483
12924
12590
12988
12752
12959
12866
13000
13012
12839
12983
12776
13042
12717
13123
12723
13161
12720
13150
12719
13118
12800
13167
12972
13144
12881
12958
13097
13158
13430
13219
13574
13310
13713
13256
13648
13147
13456
13001
13409
13121
13486
13343
13640
14425
15781
17495
17399
13845
11116
12237
12827
13566
13185
13714
13312
13744
13330
13677
13403
13747
13555
13733
13742
13816
13968
13921
14220
14080
14593
14459
15116
15210
15576
15450
15709
15295
15536
14881
15026
14192
14182
13253
13227
12638
12760
12346
12387
12277
12242
12261
12094
12271
12051
12423
12083
12548
12130
12626
12275
12719
12371
12796
12510
12794
12644
12850
12843
12878
12965
12838
13036
12788
13115
12728
13088
12594
12989
12602
13089
12836
13317
13060
13353
13215
13373
13250
13220
13244
13081
13309
13072
13407
13107
13653
13634
15007
16472
17898
15641
11487
11280
12538
13035
13341
13265
13708
13408
13690
13521
13707
13642
13710
13824
13724
13970
13772
14172
13893
14381
14147
14715
14463
15100
14909
15340
15066
15225
14929
14928
14582
14221
13926
13393
13371
12820
13001
12477
12839
12390
12830
12359
12677
12228
12527
12223
12459
12308
12423
12335
12287
12393
12144
12252
11938
12240
11858
12293
11861
12302
11916
12314
12048
12505
12293
12576
12542
12691
12821
12885
13121
13101
13447
13139
13513
13117
13357
12854
13332
12923
13241
12890
13353
13171
14676
16154
17534
15880
11448
11047
12452
13237
13673
13872
13928
14153
14004
14259
14001
14397
14051
14469
14012
14479
14253
14777
14532
14974
14768
15133
15072
15244
15342
15173
15288
15085
15349
14926
15058
14409
14459
13564
13604
12860
12987
12404
12649
12316
12578
12536
12715
12730
12666
12954
12797
13217
12893
13318
12943
13385
12956
13509
13046
13459
13137
13416
13235
13415
13211
13187
13492
13276
13680
14007
13757
13667
13645
13577
13595
13253
13510
13177
13500
13163
14229
15469
17618
16591
14394
9560
10583
11377
12401
12521
12572
12755
12684
12887
12677
13187
12843
13463
13029
13722
13280
13910
13634
14280
14054
14483
14551
14843
15073
15106
15445
15200
15633
15131
15449
14639
14905
13896
14000
13027
13302
12634
12842
12404
12651
12498
12506
12604
12488
12826
12505
12926
12501
13046
12503
13108
12497
13044
12511
12883
12436
13054
12470
13100
12680
13253
12870
13334
13003
13161
13139
12921
13003
12615
13003
12522
13209
12623
13441
12882
14748
15759
17294
16321
12258
9951
11375
12029
12661
12894
12912
13115
12765
13327
12898
13596
12969
13693
13111
13837
13216
13904
13491
14142
13893
14408
14492
14811
15191
15204
15584
15262
15717
15071
15505
14445
14686
13571
13904
12881
13239
12546
12889
12409
12616
12416
12412
12494
12345
12707
12334
12833
12316
13044
12693
12953
12667
13117
12539
13055
12405
12975
12245
12891
12282
12949
12506
13044
12681
12903
12621
12640
12649
12519
12883
12551
13131
12648
13443
13353
14945
16053
17875
15714
11525
11019
12373
12710
13194
13147
13286
13457
13276
13523
13134
13678
13187
13840
13267
14001
13364
14191
13683
14384
14030
14699
14595
15104
15131
15308
15478
15190
15454
14864
15154
14238
14409
13370
13736
12788
13263
12582
13082
12597
12971
12659
12929
12513
13118
12580
12995
12715
13034
12882
12937
13020
12783
13051
12671
13111
12508
13125
12507
13217
12625
13380
12876
13528
13063
13486
13101
13242
13018
13048
13102
12898
13203
12966
13290
12972
13417
13568
15244
16688
18007
14133
11514
11512
12774
12806
13207
13032
13217
13157
13115
13294
13106
13497
13098
13545
13084
13699
13262
13939
13482
14129
13885
14506
14395
14982
15015
15234
15230
15131
15294
14857
14885
14017
14002
13081
13355
12661
12888
12462
12873
12350
12919
12394
12962
12430
12982
12495
12932
12550
12853
12643
12795
12793
12717
12880
12549
12869
12486
12938
12409
12986
12431
12953
12399
12870
12340
12829
12540
12984
12960
13159
13201
13184
13444
13223
13532
13090
13524
13020
13598
13031
13578
13162
13882
13689
14916
16139
17877
17256
13272
12111
12799
13764
13708
14163
13752
14212
13605
14159
13567
14131
13709
14303
13823
14331
14051
14382
14206
14299
14083
14689
14467
14963
14905
15108
15080
14941
15023
14539
14577
13711
13690
12731
12887
11981
12431
11800
12229
11720
12164
11856
12197
12065
12234
12302
12185
12375
12022
12399
12038
12531
12081
12778
12360
13015
12554
13106
12712
13216
12881
13186
12977
12970
12945
12859
13062
12775
13226
12845
13381
12855
13454
12924
13649
13282
13766
13382
13766
13474
13763
13548
13521
13464
13350
13717
13434
13841
13432
14110
13982
15186
16077
17362
14415
11801
11726
13199
13117
13807
13365
13977
13553
13995
13587
13880
13747
13866
13871
13781
14006
13701
14172
13806
14423
13914
14648
14176
14870
14335
14822
14282
14595
14167
14311
13925
13632
13258
12718
12619
12044
12250
11679
12122
11504
12035
11493
12107
11655
12239
11905
12475
12241
12542
12469
12524
12680
12638
12971
12606
12982
12455
12969
12393
12957
12355
12938
12389
12910
12480
12898
12709
12903
12812
12929
13148
13380
13107
13384
13253
13356
13446
13360
13749
13548
13998
13587
14095
13543
14125
13483
13895
13191
13620
13079
13449
13244
13634
13786
14909
16288
17470
17523
13416
11793
12116
13530
13294
13788
13208
13817
13294
13730
13303
13681
13392
13550
13524
13642
13752
13660
13971
13762
14302
14027
14819
14539
15287
14958
15508
15004
15350
14761
14955
14402
14218
13766
13413
13090
12580
12616
12140
12425
11862
12298
11721
12332
11812
12397
12009
12625
12199
12779
12270
12841
12315
12838
12441
12840
12541
12760
12655
12710
12807
12643
12901
12660
13053
12634
13128
12650
13226
12639
13135
12773
13291
13057
13533
13307
13620
13556
13607
13585
13399
13574
13185
13595
13127
13640
13171
13748
13393
14673
15766
17791
17033
14983
10495
11484
12382
13096
13498
13414
13800
13578
14036
13625
14176
13705
14307
13777
14398
14020
14587
14289
14717
14594
15013
15109
15280
15644
15724
15916
16228
16057
15952
15738
15138
14796
13944
13858
12950
13133
12414
12803
12130
12483
11998
12495
12031
12405
12165
12458
12434
12515
12616
12493
12798
12493
12845
12361
12909
12468
12994
12508
13093
12714
13194
12878
13258
12987
13172
13077
13068
13072
12819
13102
12852
13331
12942
13451
13074
13667
13172
13624
13066
13334
12860
13170
13038
13296
13220
13475
13848
14606
16558
17131
17368
12663
11960
12172
13419
13267
13777
13387
13993
13506
13997
13446
13929
13534
13966
13633
14020
13823
14101
14106
14188
14421
14462
14948
14940
15557
15342
15959
15461
15874
15213
15401
14548
14535
13717
13598
12994
12951
12758
12724
12829
12611
12893
12555
12952
12493
13051
12605
13167
12741
13258
12904
13381
13086
13417
13219
13323
13248
13132
13169
12872
13052
12589
12943
12463
12933
12383
12866
12284
12733
12329
12818
12555
13085
12966
13139
13212
13260
13463
13202
13400
12967
13091
13087
13109
12916
13213
13026
13979
14537
16712
16799
15752
11102
11657
12000
13122
12955
13276
13175
13421
13408
13421
13574
13472
13778
13493
13975
13628
14220
13823
14413
14011
14654
14432
15073
14961
15471
15374
15548
15415
15264
15228
14736
14574
13725
13696
12839
13024
12256
12478
11750
12112
11627
12040
11675
12007
11782
11980
12017
12077
12242
12045
12337
11998
12406
11916
12424
11852
12395
11907
12421
12016
12440
12082
12576
12148
12700
12347
12778
12318
12630
12378
12657
12698
12754
12836
12664
12926
12550
12810
12319
12816
12342
12921
12431
13023
12643
13242
13221
14447
15711
16906
16237
12103
11286
11946
13045
13025
13561
13215
13789
13362
13938
13456
13993
13543
13947
13622
13949
13754
13988
14009
14102
14394
14380
14861
14758
15439
15165
15754
15275
15811
15175
15479
14699
14598
13817
13740
13285
13221
12974
12745
12752
12490
12714
12288
12680
12467
12626
12443
12749
12470
12908
12493
12988
12465
13034
12623
13121
12633
13137
12784
13043
12794
12937
12839
12808
12833
12551
12764
12409
12906
12636
13263
12776
13301
12856
13428
12975
13341
12943
13188
12969
13166
13192
13338
13720
13786
15082
16274
17723
16801
12987
11178
12577
12922
13719
13239
13661
13344
13649
13446
13594
13529
13503
13680
13478
13849
13593
14113
13806
14394
14107
14866
14629
15338
15150
15721
15507
15816
15428
15881
15153
15161
14239
14054
13374
13106
12725
12455
12354
11987
12138
11769
12275
11890
12437
12073
12640
12175
12734
12352
12820
12460
12715
12502
12686
12611
12550
12639
12409
12656
12270
12604
12066
12522
11950
12497
12125
12800
12409
12867
12529
12831
12617
12726
12666
12614
12787
12634
13011
12711
13327
13035
14490
15365
17319
16786
13184
10624
11899
12515
13373
13302
13496
13492
13566
13687
13543
13995
13708
14131
13658
14072
14066
14439
14197
14685
14402
15080
14721
15426
15117
15764
15327
15674
15198
15327
14768
14543
14062
13658
13331
12808
12832
12358
12646
12157
12606
12094
12614
12141
12662
12235
12698
12414
12803
12647
12868
12857
12875
12991
12817
13101
12782
13110
12550
12940
12432
12952
12486
13099
12707
13154
12843
13212
12973
13103
12992
12960
13078
12951
13304
13042
13504
13150
13756
14245
16182
17144
17857
13613
10921
11457
12671
13093
13571
13258
13797
13425
13866
13736
14001
13858
13899
14061
13990
14292
14033
14531
14248
14894
14608
15391
15157
15899
15630
16205
15917
16216
15863
15819
15363
14915
14568
14008
13860
13207
13329
12672
12958
12394
12853
12369
12841
12393
12864
12529
12834
12592
12801
12759
12780
12911
12775
12918
12514
12822
12375
12871
12451
13093
12721
13306
12879
13306
12917
13145
12834
13001
12926
12904
13083
12961
13230
13056
13710
14706
17252
17362
15504
10444
11238
11812
13103
12974
13479
13008
13582
13127
13623
13269
13688
13473
13713
13627
13723
13812
13759
14124
13913
14475
14222
14922
14672
15320
14947
15485
14964
15340
14819
14811
14174
13824
13297
12974
12828
12456
12587
12164
12502
12004
12473
12001
12517
12089
12687
12325
12736
12370
12721
12463
12585
12496
12499
12588
12428
12629
12343
12901
12578
13135
12710
13246
12659
13126
12588
12985
12629
13010
12806
13033
13047
13500
13583
15215
16914
17584
16526
11520
11044
11856
12877
13001
13482
13085
13660
13069
13530
13002
13550
13170
13694
13345
13771
13613
13920
13943
14100
14333
14397
14890
14755
15374
15040
15614
15103
15550
14853
