12566
12622
12601
12554
12408
12414
12172
12269
12085
12361
12153
12409
12000
12156
11943
12250
12202
12505
12443
12635
12545
12604
12694
12587
12618
12407
12604
12359
12653
12485
12876
12799
13693
14331
16438
16969
15340
11770
11792
12255
12582
12707
12700
12860
12771
13004
12798
13094
12928
13291
13098
13458
13364
13710
13615
13906
13993
14276
14433
14629
14924
15029
15221
15044
15213
14844
14835
14165
13991
13348
13309
12809
12851
12578
12745
12498
12763
12535
12766
12542
12739
12594
12671
12648
12657
12794
12691
12785
12597
12821
12626
12887
12630
12941
12765
13040
12806
13037
12875
13001
12841
12895
12919
12972
13124
13100
13402
13344
13638
13382
13710
13435
13656
13326
13502
13266
13461
13279
13379
13366
13569
14073
14782
16336
17225
16180
12038
12181
12558
13214
13076
13427
13206
13419
13164
13386
13269
13412
13387
13418
13456
13457
13673
13662
13959
13906
14351
14516
14932
15061
15347
15167
15350
15019
15137
14568
14492
13921
13876
13357
13353
13040
13074
12929
12894
12883
12813
12883
12785
12928
12709
12911
12669
12965
12686
12992
12784
13008
12742
12952
12812
12943
12874
12903
12963
12883
12941
12728
12929
12750
12958
12740
13150
12952
13344
13094
13241
13024
13162
12970
13046
12991
13051
13160
13153
13375
13267
14211
15219
16836
16791
14483
10788
11849
12374
13233
13215
13490
13468
13596
13601
13899
13641
13888
13755
13847
13785
13865
13951
13965
14231
14238
14663
14651
15191
15107
15526
15277
15492
15160
15212
14694
14368
13788
13492
13149
12812
12663
12441
12483
12205
12378
12157
12489
12212
12490
12259
12593
12424
12682
12621
12846
12677
12749
12738
12760
12810
12662
12790
12583
12863
12563
12846
12510
12824
12562
12983
12818
13104
13057
13265
13197
13262
13225
13101
13133
12999
13245
13013
13359
13137
13563
13590
15411
16725
17429
15080
11645
11842
12841
13105
13538
13430
13704
13554
13710
13689
13829
13827
13852
14027
13957
14158
14004
14373
14193
14635
14568
15121
15103
15616
15590
15898
15692
15727
15529
15262
14874
14365
14056
13497
13416
12947
13030
12666
12836
12442
12718
12448
12632
12437
12609
12502
12607
12616
12642
12696
12610
12761
12593
12845
12580
12850
12576
12894
12638
12931
12584
12734
12589
12818
13142
13647
13867
14063
14260
14324
14189
14191
14066
13998
14046
13973
14165
14035
14328
14243
15137
15904
17741
18189
16744
12585
12994
13378
13959
13982
14126
14138
14072
14137
14127
14272
14050
14294
14072
14307
14026
14341
14128
14493
14425
14871
14985
15343
15461
15621
15676
15584
15673
15461
15363
14761
14553
13899
13759
13167
13193
12829
13014
12710
12843
12666
12778
12718
12775
12764
12725
12859
12697
12941
12758
13115
13099
13101
12963
12975
12905
12945
12977
13180
13137
13244
13215
13253
13263
13437
13565
13720
13850
13963
14072
14030
14013
13849
13936
13799
13821
13700
13809
13767
13845
13860
14388
15344
17123
18021
16396
12484
12513
13107
13460
13587
13515
13599
13482
13503
13265
13282
13184
13336
13264
13326
13334
13395
13340
13376
13496
13562
13745
13813
14095
14071
14266
14110
14134
13857
13724
13235
12906
12483
12220
11945
11827
11759
11708
11770
11787
11848
11785
11979
11960
12150
12120
12339
12272
12371
12281
12409
12369
12510
12390
12551
12469
12633
12521
12531
12491
12531
12512
12403
12395
12371
12496
12411
12598
12604
12803
12788
12964
12852
12886
12785
12831
12854
12863
12778
12715
12761
12877
13197
13680
15078
16302
16123
12235
11145
11678
12416
12374
12535
12943
13323
13544
13528
13617
13648
13875
14069
14424
14607
14884
14914
15208
15465
15797
15948
16249
16388
16536
16566
16578
16494
16213
15928
15331
14738
14155
13498
12880
12526
12129
12130
12195
12382
12408
12582
12383
12347
12066
11937
11832
11895
11822
11777
11771
11732
11903
11924
12120
12032
12236
12164
12396
12306
12469
12367
12432
12340
12415
12477
12617
12782
12853
12994
12905
12991
12812
12885
12760
12940
12792
12926
12856
13066
13014
13217
14086
15697
16767
16767
13186
11188
12026
12625
13177
13222
13428
13409
13543
13483
13665
13599
13751
13682
13868
13850
13965
14010
14249
14350
14646
14834
15187
15448
15648
15858
15908
15919
15748
15666
15105
14657
14059
13758
13249
13123
12822
12825
12660
12746
12702
12783
12818
12881
12954
12881
12960
12932
13026
12891
12947
12795
12917
12887
13028
12923
12934
12831
12873
12747
12801
12795
12838
12939
12963
13099
13052
13089
12871
12903
12654
12633
12419
12467
12354
12468
12444
12689
13020
14334
16020
16244
15402
11109
10931
11824
12558
12975
13096
13199
13392
13505
13578
13756
13762
13884
14001
13969
14182
14089
14305
14228
14590
14552
15011
15035
15489
15424
15680
15569
15683
15476
15325
14934
14494
14192
13796
13684
13346
13400
13117
13273
12992
13224
12910
13058
12825
13051
12957
13030
12920
13007
13037
12993
12994
12824
12964
12804
12981
12733
12977
12753
12904
12649
12808
12665
12810
12793
13034
13034
13124
13168
13153
13206
13054
13118
12905
13090
12901
13148
12958
13306
13244
14097
15734
16994
16642
13078
11354
12279
12752
13241
13230
13452
13477
13555
13615
13617
13738
13663
13782
13594
13927
13803
13994
13925
14255
14222
14611
14689
15071
15187
15424
15353
15332
15297
15055
14785
14276
13993
13378
13242
12754
12793
12503
12678
12385
12525
12356
12514
12460
12552
12580
12602
12680
12664
12792
12711
12910
12740
12955
12673
12846
12553
12749
12564
12747
12546
12569
12440
12518
12533
12561
12762
12820
13017
12974
13142
13194
13181
13055
13140
12954
13093
12896
13116
12928
13285
13208
14216
15240
16781
16687
13610
11384
12054
12728
13078
13267
13279
13448
13326
13537
13312
13523
13339
13619
13695
13719
13775
13801
13965
13904
14168
14277
14604
14801
15237
15272
15478
15360
15373
15037
14829
14335
13947
13467
13140
12921
12707
12678
12564
12662
12509
12655
12536
12686
12540
12656
12538
12623
12497
12584
12472
12407
12528
12629
12880
12945
13014
12954
13027
13043
13195
13196
13312
13239
13330
13206
13369
13259
13528
13429
13616
13488
13604
13543
13540
13345
13206
13095
13042
13057
12956
13073
13083
13350
13983
15267
16786
17272
14628
12037
12296
12929
13260
13431
13457
13486
13496
13447
13536
13442
13553
13502
13656
13597
13756
13712
13925
13865
14153
14166
14534
14891
15253
15523
15134
15176
15006
14998
14813
14643
14201
14035
13664
13590
13304
13403
13223
13359
13277
13371
13317
13487
13424
13532
13420
13532
13299
13247
13074
12928
12826
12775
12735
12562
12624
12487
12652
12494
12672
12555
12660
12560
12556
12360
12526
12536
12751
12894
12903
12928
12899
12968
12810
12876
12705
12856
12687
12833
12713
12908
12881
13019
13698
15257
16673
16951
13526
11296
11755
12226
12730
12788
12952
12882
13046
12978
13149
13045
13312
13244
13438
13397
13576
13665
13845
13982
14149
14404
14630
15025
15194
15398
15322
15481
15222
15118
14682
14384
13900
13709
13212
13116
12786
12829
12662
12729
12570
12749
12732
12770
12734
12665
12741
12644
12735
12651
12839
12737
12862
12727
12845
12680
12851
12738
12817
12639
12668
12638
12712
12747
12798
12941
12921
13150
13034
13173
13031
13054
12874
13004
12848
12935
12832
12942
12994
13134
14125
15832
16610
16404
12839
10460
11435
11997
12667
12728
12967
12882
13058
12854
12989
12943
13106
13131
13290
13321
13578
13781
14135
14208
14519
14646
15030
15302
15506
15697
15808
15793
15620
15500
15075
14781
14263
14126
13620
13634
13346
13433
13131
13292
13058
13142
13106
13104
13125
13156
13293
13296
13380
13290
13435
13260
13410
13249
13412
13192
13391
13262
13298
13226
13129
13027
12996
12942
12861
13066
13048
13197
13108
13263
13091
13237
13040
13193
13057
13212
13170
13263
13339
13519
13977
15280
16826
16515
15506
11350
11724
12398
13093
13273
13498
13481
13627
13501
13688
13577
13740
13682
13874
13826
14017
14048
14234
14344
14496
14694
14827
15109
15190
15411
15294
15354
15094
15138
14674
14388
13765
13472
13058
12833
12630
12596
12492
12403
12392
12352
12459
12348
12475
12396
12588
12459
12657
12582
12669
12593
12725
12618
12676
12584
12593
12564
12580
12644
12627
12741
12638
12818
12675
12847
12691
12907
12875
13145
13051
13223
13136
13103
13019
12973
12885
12845
12830
12873
12877
12961
13108
13501
14594
15989
16516
15594
11818
11603
12424
12818
13186
13147
13362
13347
13503
13497
13644
13672
13748
13798
13839
13930
13902
14076
14047
14272
14302
14635
14717
15149
15106
15317
15189
15313
15064
14863
14497
14161
13781
13444
13295
13044
13020
12812
12887
12692
12818
12665
12810
12671
12871
12781
12945
12849
12945
12915
12951
12944
12908
12944
12838
12922
12822
12984
12847
12984
12829
13001
12877
13028
12971
13108
12968
13085
12999
13258
13255
13428
13373
13434
13367
13269
13206
13090
13122
13073
13186
13161
13330
13332
13676
14367
15943
16992
17105
13585
12157
12523
13102
13301
13376
13454
13404
13440
13381
13491
13422
13623
13535
13800
13757
14032
14003
14265
14265
14506
14553
14778
15027
15194
15380
15337
15393
15198
15136
14699
14463
13920
13743
13303
13269
12992
12938
12709
12685
12537
12554
12574
12538
12583
12491
12579
12486
12610
12682
12787
12766
12829
12749
12753
12578
12725
12606
12778
12610
12837
12690
12812
12708
12761
12667
12749
12761
12843
13027
13014
13187
13194
13346
13192
13266
13123
13289
13148
13317
13177
13373
13305
13576
13783
14601
15927
17098
16909
13331
12215
12597
13229
13278
13486
13392
13579
13428
13666
13622
13797
13701
13794
13797
13899
13980
14066
14233
14292
14560
14663
15015
15123
15435
15304
15444
15167
15195
14818
14569
14035
13726
13131
12992
12615
12587
12413
12492
12407
12438
12460
12464
12524
12565
12700
12536
12538
12464
12635
12516
12682
12528
12671
12522
12654
12615
12700
12652
12662
12686
12716
12714
12579
12646
12625
12814
12836
13076
13075
13319
13273
13388
13160
13165
13015
13055
13116
13168
13159
13180
13363
13450
14338
15336
16784
16804
14021
11812
12467
12867
13292
13277
13489
13489
13597
13542
13614
13692
13678
13753
13752
13810
13797
14020
13973
14236
14386
14696
14838
15149
15213
15431
15354
15443
15239
15166
14716
14350
13927
13572
13245
12950
12868
12724
12815
12687
12752
12729
12880
12788
12892
12847
12981
12815
12900
12842
12770
12711
12734
12766
12725
12802
12690
12757
12668
12780
12661
12806
12688
12762
12687
12913
12933
13180
13161
13328
13348
13270
13204
13084
13132
13151
13374
13204
13274
13244
13419
13583
14555
15840
17049
16875
14118
11808
12612
13284
13830
13942
13987
13959
13963
13832
13702
13642
13536
13527
13379
13532
13290
13386
13395
13596
13583
13907
14031
14390
14424
14630
14522
14537
14474
14267
13929
13452
13178
12771
12578
12220
12246
12147
12301
12177
12414
12254
12397
12338
12537
12499
12630
12553
12634
12643
12664
12756
12677
12828
12769
12878
12736
12908
12742
12893
12738
12887
12815
12938
12754
12860
12908
12971
13170
13232
13333
13329
13453
13268
13335
13127
13316
13110
13317
13262
13522
13483
13789
13945
14956
16182
17478
17004
13436
12140
12597
12940
13129
13167
13189
13257
13274
13453
13377
13579
13467
13600
13477
13676
13519
13707
13624
13863
13956
14153
14415
14680
14869
14966
15092
14981
14997
14742
14565
14070
13745
13190
13023
12684
12736
12570
12658
12561
12589
12535
12592
12576
12560
12666
12645
12786
12673
12804
12721
12852
12664
12826
12741
12963
12873
12965
12832
12936
12881
12942
12946
12884
12888
12948
12854
12933
13079
13192
13327
13374
13460
13451
13554
13280
13393
13363
13447
13288
13418
13279
13543
13512
14328
15362
16859
17282
14932
12047
12288
13006
13262
13455
13403
13589
13479
13686
13559
13702
13671
13888
13782
13869
13933
13979
13990
14019
14271
14394
14678
14768
15092
15192
15452
15201
15288
15029
14922
14425
14250
13745
13456
13142
12957
12811
12668
12570
12341
12356
12165
12327
12282
12433
12269
12444
12401
12484
12419
12639
12549
12682
12539
12788
12737
12754
12708
12755
12691
12795
12902
12947
13047
13065
13122
12984
12965
12728
12564
12430
12659
12578
12869
12864
13212
13203
14401
15894
17087
16574
13569
10713
11872
12591
13130
13263
13322
13466
13346
13479
13446
13754
13655
13998
13962
14289
14118
14446
14370
14694
14653
14984
15196
15505
15832
15969
16116
15912
16000
15674
15622
14936
14656
13944
13836
13315
13386
13025
13137
12855
12971
12719
12957
12702
12907
12684
12900
12854
12957
12956
12964
13034
12921
12948
12780
12946
12680
12887
12639
12871
12541
12752
12514
12738
12478
12574
12512
12639
12681
12819
13030
13073
13222
13017
13175
12914
13105
12851
13137
12883
13162
12937
13332
13468
14255
15074
16906
16997
14079
11762
12187
13005
13099
13374
13162
13431
13131
13463
13187
13573
13317
13608
13482
13798
13710
13891
13907
14025
14212
14277
14601
14601
15033
14924
15123
15059
15125
14779
14692
14059
13852
13128
13050
12461
12624
12172
12338
12050
12276
12173
12296
12248
12299
12375
12315
12553
12436
12637
12352
12624
12352
12710
12428
12743
12467
12780
12546
12752
12625
12653
12583
12627
12769
12763
13022
12965
13349
13130
13431
13097
13342
12984
13236
12913
13210
13093
13312
13282
13505
14338
15610
17137
17203
13826
11375
12375
12923
13723
13511
13959
13666
13954
13656
13878
13653
13839
13670
13984
13776
14134
14045
14364
14340
14616
14696
14925
15205
15300
15511
15383
15558
15195
15289
14654
14535
13778
13665
13028
13051
12675
12757
12564
12599
12488
12458
12470
12343
12541
12391
12682
12485
12767
12467
12826
12539
12847
12543
12854
12558
12716
12625
12709
12707
12826
13043
13043
13263
13044
13273
13018
13288
12903
13199
12954
13275
12997
13260
13248
13566
14631
16480
17012
16464
11886
10629
11926
12425
13153
13023
13463
13380
13646
13535
13836
13539
13837
13581
13923
13674
14055
13824
14260
14263
14658
14807
15152
15329
15545
15647
15519
15613
15264
15227
14558
14413
13599
13488
12900
12928
12440
12570
12261
12375
12249
12271
12232
12232
12377
12288
12529
12347
12668
12402
12751
12486
12816
12536
12766
12433
12676
12464
12735
12781
12955
13008
12986
13034
12860
13060
12745
13013
12795
13084
12836
13182
12900
13345
13658
15137
16568
17081
15431
11107
15008
14926
15121
14634
14769
14300
14492
14068
14157
13874
14092
13900
14024
14045
14196
14390
14539
14863
14857
15175
14946
15103
14675
14794
14170
14105
13351
13175
12645
12567
12251
12283
12204
12185
12215
12149
12320
12147
12372
12150
12450
12184
12543
12295
12646
12452
12721
12492
12700
12526
12559
12526
12530
12552
12480
12723
12575
12887
12600
12833
12465
12723
12384
12691
12453
12761
12679
12879
12901
13138
14029
15431
16894
16813
12201
11611
12320
12915
13214
13193
13386
13272
13533
13353
13664
13391
13714
13468
13855
13626
13980
13937
14304
14337
14616
14845
15138
15438
15453
15653
15515
15719
15331
15346
14670
14555
13855
13815
13255
13311
12934
13017
12759
12786
12654
12590
12615
12535
12719
12491
12684
12451
12795
12539
12888
12591
12871
12595
12856
12602
12721
12562
12541
12567
12551
12753
12788
13119
13003
13394
13121
13381
13028
13232
12887
13213
12950
13304
13060
13433
13235
13961
14587
16517
17405
16373
11908
11950
12585
13096
13352
13353
13573
13429
13743
13505
13844
13622
13940
13665
14040
13810
14097
14021
14333
14306
14493
14681
14898
15139
15161
15366
15155
15342
14885
14952
14259
14145
13395
13259
12630
12634
12262
12286
12071
12158
12129
12123
12202
12087
12256
12073
12381
12163
12481
12201
12600
12328
12668
12478
12687
12541
12748
12657
12760
12675
12578
12680
12518
12696
12999
13080
13106
13223
13159
13235
12929
13113
12806
13085
12832
13206
13036
13388
13258
13816
14451
16248
17275
16558
12288
11903
12650
13127
13542
13462
13759
13507
13835
13532
13900
13621
13958
13680
13876
13706
13945
13919
14130
14221
14422
14782
14962
15424
15360
15668
15381
15592
15152
15235
14610
14446
13744
13595
13101
13097
12829
12716
12597
12637
12752
12580
12790
12558
12761
12436
12750
12459
12788
12520
12827
12538
12729
12458
12805
12500
12804
12524
12756
12569
12725
12618
12684
12641
12652
12731
12617
12815
12639
12930
12847
13228
13056
13365
13093
13374
13108
13338
13052
13208
13171
13206
13182
13160
13434
13612
14498
15358
16874
16572
13374
11612
12499
12997
13306
13451
13399
13408
13537
13582
13580
13701
13750
13868
14006
14262
14335
14432
14505
14640
14831
15048
15256
15516
15770
15955
16140
16171
16182
16062
15859
15382
14955
14462
14064
13677
13518
13305
13226
12945
12911
12820
12662
12516
12390
12302
12210
12098
12001
11985
11867
11913
11776
11891
11784
11887
11810
11919
11901
11970
11997
12063
12102
12151
12219
12242
12376
12274
12387
12259
12382
12364
12620
12706
12862
12837
12999
12988
13073
13040
13081
13013
12940
12952
12912
12974
12962
13277
13509
14180
14783
16556
16867
14424
12036
12584
13058
13384
13399
13457
13398
13414
13471
13497
13633
13639
13745
13768
13937
13943
14114
14151
14377
14472
14792
14858
15155
15172
15399
15351
15488
15344
15246
14870
14522
14134
13737
13452
13166
13075
12869
12908
12752
12886
12771
12993
12882
12943
12875
12893
12785
12796
12699
12691
12673
12679
12739
12730
12802
12743
12863
12797
12972
12936
13064
12967
13073
13044
13133
13058
13175
13096
13093
13098
13159
13228
13355
13496
13509
13660
13616
13684
13582
13670
13490
13481
13370
13539
13477
13551
13685
14078
15649
16821
16569
14512
11084
11884
12536
13085
13333
13353
13445
13407
13537
13480
13616
13588
13778
13743
13924
13897
14040
14031
14260
14308
14551
14754
14946
15200
15306
15500
15461
15475
15229
15098
14654
14346
13712
13448
13089
12915
12629
12599
12504
12460
12413
12334
12400
12328
12436
12416
12546
12497
12700
12583
12693
12610
12717
12636
12796
12764
12778
12746
12695
12654
12545
12561
12524
12662
12740
12981
12982
13151
13122
13287
13186
13147
13145
13236
13081
13201
13153
13286
13289
13496
14330
15899
16750
16694
14062
11287
12098
12738
13242
13332
13432
13384
13595
13529
13592
13511
13608
13597
13757
13674
13821
13840
13963
14078
14258
14490
14686
14933
15037
15271
15318
15382
15230
15165
14757
14446
13849
13559
13048
12785
12541
12450
12367
12333
12353
12308
12392
12442
12586
12569
12687
12659
12843
12777
12842
12767
12908
12785
12812
12715
12746
12713
12846
12836
12930
12876
12937
12905
12979
12889
12810
12869
12831
12967
12931
13116
13119
13267
13117
13195
13061
13126
13019
13123
13087
13196
13234
13307
13470
13951
14989
16195
16598
15304
11838
11955
12747
13081
13406
13396
13620
13530
13610
13544
13593
13556
13634
13689
13681
13792
13779
13929
13955
14144
14183
14518
14635
15023
15122
15319
15177
15268
15096
14940
14563
14198
13807
13405
13185
12877
12822
12681
12735
12617
12618
12511
12689
12658
12784
12641
12747
12609
12654
12532
12722
12661
12779
12725
12761
12740
12802
12850
12759
12819
12729
12861
12775
12871
12746
12895
12669
12717
12610
12782
12804
12965
12931
13011
13058
13090
13103
12998
13047
12996
13145
13065
13191
13136
13438
13469
14359
15217
16572
16839
14897
11967
12390
12987
13360
13426
13441
13587
13514
13677
13614
13735
13601
13780
13701
13872
13792
14020
14039
14166
14239
14453
14669
14913
15147
15362
15389
15443
15339
15115
14793
14366
13926
13460
13458
12737
12494
12449
12573
12387
12463
12389
12526
12353
12494
12520
12589
12717
12808
12908
12901
12948
12887
12931
12763
12826
12670
12775
12625
12694
12639
12740
12747
12836
12702
12769
12721
12777
12724
12698
12699
12626
12722
12673
12886
12918
13219
13266
13515
13317
13250
13157
13201
13199
13234
13181
13309
13373
13647
13966
14553
15612
16464
16488
12902
12165
12630
13274
13465
13590
13616
13706
13610
13646
13675
13777
13738
13789
13762
13912
13950
14025
14180
14284
14532
14669
15112
15220
15500
15611
15730
15532
15490
15194
14943
14376
14017
13626
13348
13037
12840
12777
12751
12702
12581
12639
12543
12578
12544
12686
12610
12688
12604
12661
12573
12629
12547
12534
12537
12520
12494
12559
12621
12595
12662
12610
12709
12709
12734
12708
12848
12708
12760
12735
12873
12970
13088
13072
13139
13116
13074
12986
13090
13092
13129
13243
13164
13256
13335
13527
13931
14842
15987
16647
15543
11723
11649
12382
12916
13176
13227
13233
13231
13340
13341
13364
13519
13516
13594
13586
13764
13736
13889
13921
14098
14284
14571
14775
15097
15220
15349
15398
15383
15334
15122
14854
14439
14066
13662
13327
13073
12932
12730
12651
12520
12609
12525
12550
12557
12599
12636
12677
12803
12818
12866
12803
12891
12910
13062
12978
13087
13076
13158
13075
13241
13215
13339
13226
13255
13172
13194
13123
13196
13179
13257
13269
13348
13431
13362
13266
13258
13321
13249
13312
13333
13489
13470
13763
14067
15425
16852
16867
15950
11850
11722
12453
13006
13276
13315
13384
13504
13486
13564
13619
13746
13672
13818
13801
13978
13994
14174
14191
14433
14557
14872
15073
15274
15479
15655
15759
15677
15600
15291
15021
14511
14042
13488
13316
13043
13010
12762
12738
12667
12557
12449
12385
12417
12442
12493
12521
12373
12432
12509
12476
12478
12408
12525
12579
12676
12567
12722
12600
12653
12514
12608
12514
12618
12581
12554
12586
12579
12635
12703
12815
12730
12812
12769
12830
12760
12762
12661
12773
12711
12809
12791
12872
12976
13249
14595
16279
15852
15311
11168
10916
11868
12700
13193
13236
13554
13559
13728
13726
13975
14022
14149
14120
14243
14316
14347
14421
14562
14817
14848
15043
15036
15253
15236
15351
15152
15139
14983
14913
14465
14036
13477
13231
12791
12727
12674
12572
12528
12608
12766
12809
12853
12970
12994
12988
12948
13039
13110
13006
13135
13077
13082
12890
12918
12803
12926
12770
12785
12716
12767
12791
12758
12826
12825
12988
13026
13252
13175
13416
13368
13504
13349
13401
13202
13365
13272
13316
13285
13354
13440
13626
14518
15738
16463
15528
13985
10991
11957
12687
13461
13619
13852
13878
14094
14074
14156
14177
14245
14356
14388
14452
14643
14716
14797
14888
14947
15154
15317
15673
15714
15902
15812
15851
15550
15449
14898
14471
13895
13507
13057
12848
12615
12553
12490
12420
12422
12441
12480
12363
12547
12403
12564
12395
12531
12425
12517
12393
12454
12399
12442
12423
12419
12447
12435
12470
12383
12504
12462
12541
12383
12534
12395
12526
12420
12581
12521
12659
12633
12733
12794
12815
12875
12861
12918
12868
12946
12857
12990
12857
12935
12797
12987
12847
12928
12857
13037
12880
12981
12859
12855
12673
12713
12630
12703
12774
12857
12896
12855
12957
12884
12974
12885
12961
12787
12914
12837
13088
13156
13640
14060
16261
17570
16818
13243
12528
12868
13130
13291
13307
13451
13386
13633
13553
13761
13667
13780
13628
13767
13771
13929
13946
14139
14279
14401
14679
14833
15087
15138
15380
15356
15543
15337
15286
14930
14700
14150
13805
13351
13178
12937
12792
12741
12687
12708
12653
12768
12739
12778
12813
12844
12800
12876
12802
12856
12719
12877
12762
12870
12757
12879
12714
12827
12774
12838
12760
12820
12830
12854
12920
12891
12958
12923
13095
13019
13167
13151
13376
13262
13437
13364
13484
13371
13518
13494
13670
13809
13805
13888
13793
13825
13699
13750
13571
13609
13408
13530
13409
13602
13749
14146
14167
15354
17348
17536
14091
12474
12855
13167
13339
13240
13353
13216
13331
13228
13378
13361
13517
13499
13660
13679
13922
13951
14231
14259
14529
14625
14930
15156
15418
15548
15642
15742
15593
15517
15141
14820
14245
13934
13443
13295
12948
12962
12758
12822
12681
12692
12611
12636
12612
12552
12620
12567
12667
12563
12687
12544
12728
12556
12747
12608
12808
12631
12762
12685
12718
12668
12679
12752
12750
12778
12694
12773
12678
12798
12689
12838
12680
12830
12707
12877
12697
12680
12645
12799
12922
13036
13125
13143
13203
13145
13225
13025
13044
12858
13021
13062
13139
13233
13663
13989
15035
16839
17134
13964
12017
12393
13128
13296
13456
13537
13571
13574
13493
13493
13480
13622
13557
13690
13622
13844
13787
14078
14129
14456
14614
15010
15253
15633
15853
15939
15974
15914
15840
15535
15203
14640
14233
13688
13478
13117
13060
12835
12868
12764
12863
12769
12861
12793
12819
12830
12806
12826
12787
12877
12700
12806
12671
12764
12627
12708
12569
12632
12557
12612
12562
12618
12571
12767
12681
12726
12695
12688
12647
12739
12760
12741
12696
12594
12691
12748
13024
12989
13179
13126
13270
13171
13268
13125
13117
13020
13124
13097
13127
13282
13465
14235
15213
16867
16771
13802
11496
12223
12933
13438
13452
13612
13519
13603
13562
13603
13590
13623
13624
13669
13750
13746
13874
13914
14206
14282
14597
14740
15144
15286
15648
15715
15814
15674
15619
15369
15029
14605
14082
13633
13190
12938
12649
12660
12458
12498
12500
12608
12549
12668
12593
12739
12639
12712
12562
12659
12546
12667
12653
12762
12803
12832
12870
12895
12979
12863
12917
12844
12898
12757
12846
12721
12822
12679
12718
12556
12688
12686
12906
13008
13110
13173
13186
13262
13157
13193
13012
13013
12882
13062
12968
13159
13229
13709
14433
15949
16976
16266
12105
11230
12131
12889
13232
13251
13462
13396
13482
13343
13516
13381
13523
13421
13579
13574
13773
13818
13998
14144
14509
14687
15055
15214
15518
15626
15688
15668
15489
15387
15058
14741
14164
13785
13251
13063
12656
12619
12356
12367
12264
12338
12301
12433
12439
12475
12496
12456
12514
12434
12623
12545
12639
12547
12722
12635
12785
12652
12816
12717
12802
12714
12731
12656
12616
12703
12735
12904
12995
13121
13066
13248
13094
13179
12992
13042
12945
13154
13013
13126
13065
13267
13566
15043
16912
16717
15296
10481
10671
11712
12786
13106
13402
13335
13570
13497
13660
13550
13710
13598
13793
13727
13940
14000
14237
14367
14631
14780
15065
15342
15493
15691
15670
15705
15524
15489
15136
14966
14406
14155
13627
13471
13058
12974
12672
12614
12472
12501
12555
12618
12734
12686
12764
12694
12893
12779
12969
12807
12891
12705
12880
12781
12863
12806
12887
12963
13065
13163
13145
13140
12993
13011
12817
12924
12821
13059
12965
13159
13120
13496
14055
15672
17165
16833
14648
10401
11151
12492
12983
13278
13341
13474
13562
13566
13675
13658
13830
13762
13933
13887
14100
14047
14317
14262
14574
14670
15029
15271
15598
15695
15711
15687
15535
15407
15009
14637
13984
13649
13082
12910
12579
12562
12344
12393
12288
12329
12254
12339
12387
12447
12507
12510
12636
12527
12614
12551
12751
12634
12678
12385
12477
12357
12540
12595
12734
12757
12901
12926
12905
12907
12762
12810
12737
12862
12788
13014
12934
13200
13241
13974
16018
17681
16267
12197
11879
12640
12976
13167
13111
13196
13152
13204
13197
13187
13236
13213
13327
13337
13501
13466
13660
13700
14020
14129
14473
14667
15053
15121
15256
15220
15172
15051
14823
14534
14066
13687
13240
13034
12679
12637
12392
12554
12366
12533
12428
12560
12465
12534
12498
12576
12592
12573
12645
12610
12735
12660
12672
12584
12764
12647
12918
12938
13118
13089
13208
13126
13083
13051
12951
12883
12862
12949
12921
13062
13279
13384
14017
15024
17031
17812
14594
11808
12145
12950
13016
13203
13070
13201
13085
13267
13164
13249
13191
13248
13240
13301
13414
13478
13687
13770
14078
14143
14552
14670
15065
15014
15187
14945
15008
14788
14631
14183
13840
13440
13097
12870
12623
12580
12438
12530
12396
12604
12463
12628
12493
12708
12514
12607
12483
12572
12508
12570
12606
12589
12583
12457
12489
12398
12548
12504
12840
12770
12995
12860
13016
12858
12967
12729
12810
12670
12851
12725
12924
12936
13207
13484
14173
15849
17472
16691
12182
11784
12557
13284
13336
13557
13503
13681
13568
13804
13698
13852
13822
13990
13993
14087
14152
14262
14486
14592
14898
15031
15454
15545
15879
15851
16066
15812
15889
15504
15306
14776
14377
13815
13501
13272
13105
12985
12779
12756
12654
12756
12626
12774
12695
12768
12638
12738
12594
12608
12510
12546
12600
12628
12638
12621
12627
12533
12548
12473
12645
12737
12837
12885
12936
12823
12780
12594
12500
12388
12492
12519
12736
12749
13006
13029
14061
15628
17444
17464
14294
10432
11406
12120
12810
13073
13197
13343
13389
13486
13509
13684
13672
13863
13845
14093
14072
14268
14369
14618
14768
14977
15219
15550
15814
15869
15977
15839
15932
15675
15497
15073
14687
14120
13760
13453
13236
13102
12946
12841
12699
12783
12670
12818
12651
12772
12678
12742
12668
12712
12584
12560
12459
12561
12449
12517
12372
12542
12633
12758
12814
12825
12815
12729
12793
12690
12791
12721
12862
12738
12886
12894
13094
13967
15520
16791
17060
13670
10478
11332
12054
12587
12644
12796
12839
13051
13027
13115
13054
13213
13157
13361
13388
13552
13698
13860
13982
14107
14351
14538
14864
15014
15212
15181
15247
15045
15022
14626
14352
13808
13586
13216
13020
12808
12769
12679
12624
12619
12623
12672
12594
12668
12574
12713
12630
12765
12712
12870
12791
12849
12696
12814
12677
12878
12871
13079
13147
13328
13269
13229
13144
13035
12957
12915
12991
12947
13054
12999
13230
13229
14283
15697
17238
17304
12955
11266
12101
12649
13042
13108
13202
13261
13211
13254
13255
13437
13344
13510
13430
13660
13587
13808
13775
14080
14171
14442
14609
14876
14997
15153
15195
15138
15066
14760
14564
13984
13698
13138
12986
12614
12581
12309
12358
12289
12452
12397
12461
12536
12553
12882
12938
13023
12952
12971
12917
12880
12840
12729
12763
12634
12778
12720
12925
12884
13111
12942
13017
12863
12902
12734
12772
12696
12749
12800
12802
12998
13073
13993
15518
17448
17462
13026
11466
12284
12731
13128
13114
13324
13231
13361
13320
13369
13449
13436
13483
13513
13678
13699
13964
13971
14222
14240
14643
14774
15203
15309
15564
15485
15495
15433
15314
15017
14577
14190
13730
13491
13097
13014
12806
12855
12635
12776
14073
14174
13975
13734
13499
13244
13183
12954
12960
12735
12838
12629
12772
12585
12670
12426
12531
12415
12595
12707
12730
12709
12659
12721
12681
12725
12568
12642
12608
12765
12666
12844
12798
13045
13281
14263
15948
17532
16605
12048
11609
12273
12863
13009
13187
13132
13291
13138
13305
13163
13369
13268
13449
13397
13537
13524
13674
13766
13933
14091
14319
14672
14878
15187
15245
15402
15237
15301
14984
14796
14182
13885
13445
13186
12922
12957
12767
12854
12645
12752
12706
12722
12682
12735
12742
12736
12772
12697
12832
12695
12840
12723
12854
12705
12842
12735
12904
12765
12843
12767
12797
12691
12744
12784
13011
13218
13138
13263
13176
13353
13217
13277
13091
13189
13040
13151
13152
13249
13249
13363
13940
15026
16878
17824
15800
11932
12211
12785
13390
13352
13521
13415
13560
13470
13557
13457
13538
13526
13592
13633
13717
13776
13828
14075
14193
14517
14809
15136
15342
15578
15545
15617
15449
15383
14934
14648
14052
13694
13194
13051
12744
12702
12604
12576
12588
12642
12638
12546
12664
12637
12772
12763
12931
12760
12852
12666
12862
12778
12869
12715
12790
12710
12738
12726
12684
12824
12801
12896
12852
12936
12771
12891
12807
12977
12944
13238
13150
13193
13172
13257
13299
13252
13217
13142
13144
13085
13228
13221
13422
13475
13992
14903
16573
17066
16210
11684
11701
12438
13122
13297
13577
13457
13535
13367
13425
13367
13473
13404
13453
13372
13399
13491
13576
13683
13820
14009
14114
14467
14646
14949
14938
15104
15006
15110
14804
14621
14077
13883
13385
13271
12941
12865
12717
12657
12510
12410
12310
12301
12372
12301
12496
12395
12698
12551
12837
12691
12889
12675
12831
12622
12719
12568
12588
12607
12613
12643
12412
12713
12355
12748
12574
13067
12848
13343
13166
13598
13462
13604
13486
13645
13500
13524
13464
13749
13603
13808
13935
14638
15833
17399
18021
15867
12446
12185
13144
13313
13709
13514
13840
13733
13892
13922
13997
14119
14033
14191
14061
14233
14092
14361
14162
14577
14582
15069
15087
15604
15495
15813
15787
15763
15574
15269
14826
14282
13835
13206
13033
12634
12791
12489
12517
12402
12427
12395
12496
12448
12519
12559
12592
12605
12600
12659
12643
12681
12577
12632
12639
12751
12656
12713
12716
12849
12806
12845
12797
12874
12873
13103
13108
13287
13230
13414
13288
13304
13253
13450
13502
13644
13657
13690
13758
13753
13811
13694
13818
13660
13785
13731
13784
13861
14080
14557
15336
17104
18349
17489
13425
13032
13462
13955
13977
14151
14138
14276
14296
14514
14562
14693
14775
14826
14887
14906
15011
14934
15101
15179
15346
15363
15656
15799
16114
16232
16426
16415
16396
16244
15996
15613
15118
14789
14405
14146
13749
13585
13315
13113
12816
12829
12646
12659
12477
12366
12228
12329
12378
12492
12374
12485
12414
12412
12364
12314
12340
12264
12298
12265
12339
12318
12389
12270
12364
12323
12457
12341
12435
12320
12364
12315
12288
12278
12270
12215
12186
12226
12170
12186
11966
12131
12130
12345
12340
12486
12442
12539
12595
12690
12607
12518
12426
12390
12431
12426
12584
12645
13326
14298
16359
17022
14320
11459
11741
12251
12695
12855
13118
13204
13303
13307
13278
13257
13192
13291
13309
13391
13456
13512
13576
13683
13761
13986
14190
14532
14674
14947
14975
15072
14938
14904
14565
14179
13642
13231
12744
12450
12208
12133
12012
11939
11871
11858
11916
11921
11944
11860
12034
12061
12169
12116
12369
12269
12445
12410
12563
12442
12643
12583
12655
12600
12665
12680
12686
12734
12752
12887
12780
12901
12755
12837
12770
12933
12851
12878
12907
12961
13062
12952
13085
13086
13362
13391
13529
13472
13607
13618
13812
13839
13946
13841
13947
13790
13790
13743
13851
14391
15456
17264
18155
16167
12369
12353
12832
13280
13354
13562
13547
13709
13667
13837
13825
13911
13914
14015
13937
13987
13959
13985
14096
14199
14427
14603
14978
15148
15455
15548
15707
15584
15569
15325
15064
14546
14046
13561
13230
12887
12677
12561
12447
12347
12317
12418
12348
12505
12500
12679
12588
12726
12673
12757
12701
12792
12767
12847
12864
12835
12885
12893
12970
12915
12971
13009
13067
13071
13095
13139
13193
13067
13166
12925
12946
12841
12951
12911
13123
13081
13186
13177
13256
13226
13226
13182
13065
13120
13091
13182
13196
13451
13455
14317
15734
17794
18355
15563
12019
12410
13103
13575
13642
13714
13794
13750
13821
13760
13848
13770
13850
13847
14046
14153
14357
14233
14303
14390
14525
14691
15010
15188
15332
15448
15369
15343
15132
14968
14563
14237
13706
13397
13008
12859
12643
12628
12518
12581
12595
12686
12636
12730
12689
12719
12687
12719
12731
12729
12765
12746
12838
12741
12803
12739
12818
12789
12886
12739
12699
12615
12710
12607
12540
12466
12445
12478
12630
12854
12843
12881
12756
12828
12708
12728
12500
12511
12438
12584
12633
12701
12705
12583
13725
15966
17159
16931
12594
10242
11442
12279
13059
13210
13349
13352
13486
13496
13599
13596
13727
13811
13899
13979
14041
14175
14198
14405
14508
14767
14957
15302
15582
15893
15857
15929
15810
15723
15349
14959
14329
13926
13355
13163
12955
12791
12594
12455
12370
12355
12373
12369
12375
12382
12435
12537
12725
12643
12773
12725
12842
12808
12865
12731
12707
12655
12616
12527
12541
12640
12715
12949
13003
13168
13136
13263
13186
13201
12978
12974
12830
12969
12940
13001
13115
13131
13886
15756
18166
18967
15724
12162
12290
12673
13026
12966
13110
12998
13125
13072
13157
13189
13213
13274
13280
13380
13594
13740
13861
14018
14153
14447
14683
14936
15073
15239
15201
15289
15098
15073
14653
14332
13839
13470
13065
12834
12621
12558
12508
12454
12508
12498
12574
12539
12648
12574
12675
12585
12648
12556
12598
12491
12603
12615
12640
12593
12613
12553
12528
12603
12681
12899
12998
13168
13204
13339
13252
13302
13161
13171
13018
13088
13010
13055
13080
13141
13273
13761
15145
17459
18962
16853
12500
12292
13010
13246
13396
13359
13496
13459
13627
13550
13726
13595
13690
13627
13778
13709
13866
13951
14265
14467
14863
15017
15366
15523
15679
15798
15810
15801
15699
15442
14934
14524
13940
13603
13171
13027
12721
12687
12463
12556
12418
12548
12482
12597
12579
12632
12663
12586
12598
12486
12571
12435
12557
12437
12525
12385
12538
12438
12597
12637
12912
12967
13072
13104
13029
13047
12927
12854
12686
12782
12702
12849
12798
13042
13017
13761
14919
16943
18063
15533
11461
12254
12842
13200
13188
13342
13355
13349
13342
13266
13333
13292
13370
13260
13403
13397
13537
13486
13770
13895
14214
14422
14764
14909
15034
14999
14932
14868
14716
14507
14036
13690
13238
13060
12688
12600
12392
12401
12248
12393
12326
12451
12443
12500
12502
12503
12519
12519
12563
12523
12540
12533
12712
12585
12704
12504
12592
12485
12635
12707
12987
12958
13076
13002
12971
12915
12866
12823
12751
12859
12770
12895
12886
13168
13480
14512
16294
18161
17290
12286
11558
12380
12876
13134
13219
13348
13360
13397
13452
13477
13553
13508
13655
13617
13823
13768
13928
13984
14174
14295
14549
14773
15002
15212
15280
15350
15292
15329
15123
15008
14522
14187
13703
13475
13090
12944
12702
12674
12618
12615
12589
12620
12712
12688
12747
12715
12814
12685
12672
12589
12682
12565
12609
12443
12473
12356
12475
12636
12813
12918
12945
12993
12879
12934
12843
12944
12951
13088
13110
13244
13302
13481
13906
15309
17183
18417
16509
11795
11838
12633
13121
13371
13392
13492
13563
13551
13570
13597
13751
13694
13803
13716
13851
13792
13997
14017
14243
14333
14642
14866
15128
15228
15279
15289
15131
15022
14754
14390
13895
13603
13155
12935
12639
12586
12377
12426
12348
12483
12497
12599
12598
12609
12654
12606
12652
12670
12734
12677
12710
12578
12705
12572
12612
12612
12902
12947
13048
13011
12994
12893
12949
12837
12958
12917
12957
13010
13062
13224
13275
14547
16479
17634
17522
12751
11045
12103
12700
13211
13266
13436
13479
13591
13605
13675
13669
13742
13848
13899
13969
13965
14131
14196
14391
14430
14684
14862
15199
15268
15435
15400
15374
15217
15046
14682
14249
13806
13331
13006
12686
12569
12405
12412
12350
12379
12264
12385
12261
12355
12332
12400
12439
12515
12522
12571
12601
12595
12689
12673
12829
12858
13036
12987
12941
12942
12963
12700
12773
12655
12759
12629
12734
12738
12927
13393
14930
16801
17580
15886
10991
11268
11986
12581
12753
12927
12961
13100
13056
13171
13154
13369
13340
13465
13497
13631
13748
13906
14086
14218
14518
14719
15059
15254
15435
15440
15540
15335
15263
14890
14609
14087
13735
13339
13032
12729
12582
12474
12436
12454
12452
12544
12495
12613
12523
12691
12665
12840
12827
12908
12847
12995
12947
13031
13093
13152
13223
13261
13278
13333
13240
13148
13034
12930
12944
12954
13105
13102
13315
13391
14434
16143
17752
17672
12977
11699
12330
12789
13000
12978
13067
13045
13033
13116
13119
13308
13262
13363
13321
13482
13484
13690
13700
13904
14045
14437
14683
15001
15234
15415
15396
15282
15187
14867
14560
14062
13683
13203
12998
12637
12617
12454
12550
12440
12467
12448
12563
12655
12748
12777
12784
12828
12756
12828
12719
12735
12586
12682
12590
12795
12796
13047
13064
13165
13041
13112
12867
12757
12839
12958
12940
12381
12927
12756
13099
12463
14514
17024
18812
17136
12545
12279
12856
13097
13210
13163
13300
13301
13407
13362
13427
13425
13387
13455
13461
13537
13527
13695
13734
13998
14161
14471
14631
14985
15046
15147
15160
15177
14960
14750
14342
13833
13423
13025
12804
12559
12554
12446
12491
12376
12551
12545
12664
12599
12657
12623
12685
12680
12738
12814
12824
12864
12810
12907
12874
12899
12892
12882
12834
12813
12693
12805
12794
13013
13006
13121
13005
13133
13066
13084
12954
12931
12858
12919
12907
12930
13023
13117
13148
13744
15428
17985
18966
15553
12235
12348
12903
13121
13271
13320
13420
13400
13455
13500
13543
13617
13622
13735
13723
13819
13810
13989
13979
14228
14320
14708
14905
15168
15225
15317
15331
15345
15184
14853
14453
13915
13539
13116
12934
12718
12695
12537
12634
12541
12596
12471
12515
12509
12614
12541
12631
12509
12611
12586
12601
12608
12658
12680
12680
12683
12627
12689
12628
12661
12576
12702
12621
12744
12614
12730
12698
12830
12798
12907
12902
12953
12996
12928
12964
12942
13027
12914
13000
12942
13189
13197
13317
13289
13421
13413
13452
13362
13378
13317
13361
13386
13404
13497
13660
13942
14272
15715
18300
19001
15327
12887
13057
13568
13624
13700
13713
13747
13747
13752
13791
13811
13859
13825
13913
13845
14006
14050
14139
14231
14444
14579
14848
14997
15320
15350
15538
15460
15470
15284
14990
14500
14022
13558
13173
12897
12670
12600
12525
12576
12515
12587
12469
12543
12438
12480
12368
12403
12355
12418
12336
12350
12419
12438
12479
12488
12564
12536
12651
12630
12743
12694
12802
12701
12823
12741
12811
12810
12885
12834
12897
12902
12931
12954
12978
13043
13041
13101
13023
13107
12987
13030
13014
13168
13337
13485
13470
13549
13562
13668
13651
13698
13495
13485
13333
13317
13318
13469
13600
14228
15204
17398
18428
15837
12449
12468
13071
13174
13229
13112
13195
13110
13121
13078
13137
13133
13211
13321
13389
13459
13452
13628
13708
13939
14005
14351
14485
14868
15049
15353
15392
15433
15375
15234
14860
14372
13886
13398
13135
12839
12668
12456
12473
12347
12362
12251
12308
12245
12332
12238
12274
12267
12335
12353
12299
12386
12446
12461
12420
12505
12457
12585
12598
12744
12750
12834
12734
12851
12749
12822
12723
12839
12748
12903
12861
12922
12926
13021
13032
13003
13013
13018
13111
13095
13383
13388
13502
13398
13548
13469
13531
13386
13318
13223
13298
13383
13430
13567
13614
14798
16507
17481
17540
13204
11021
12125
12749
13300
13322
13482
13485
13611
13621
13701
13730
13821
13818
13837
13962
14021
14173
14237
14428
14501
14786
14923
15332
15566
15855
15848
15858
15767
15682
15437
15078
14661
14107
13638
13352
13029
12855
12754
12650
12589
12510
12599
12510
12579
12539
12685
12626
12788
12763
12868
12814
12866
12840
12896
12790
12747
12765
12742
12796
12739
12763
12702
12788
12696
12785
12646
12824
12824
13036
13100
13205
13236
13293
13325
13318
13331
13225
13192
13085
13114
13077
13217
13233
13465
14156
15912
17994
18189
14326
12101
12366
12888
13063
13124
13245
13246
13332
13325
13392
13367
13500
13449
13556
13497
13624
13668
13900
13973
14177
14295
14646
14797
15082
15193
15299
15234
15131
14944
14603
14163
13701
13374
12977
12810
12624
12637
12468
12566
12423
12520
12480
12566
12497
12560
12583
12595
12609
12592
12609
12575
12640
12642
12775
12704
12800
12735
12784
12717
12850
12773
12845
12825
12813
12695
12757
12877
13042
13222
13282
13454
13445
13558
13412
13495
13366
13433
13338
13362
13303
13409
13484
13798
14534
16101
18177
18209
14076
12224
12897
13353
13424
13409
13426
13406
13420
13335
13395
13329
13467
13466
13613
13560
13669
13625
13762
13795
13964
14167
14416
14698
14919
15069
15065
15131
15042
14917
14503
14185
13650
13363
12948
12831
12571
12507
12405
12402
12368
12374
12412
12400
12462
12411
12488
12403
12509
12473
12572
12517
12701
12668
12768
12691
12771
12768
12779
12796
12812
12853
12759
12788
12747
12843
12819
12908
12767
12825
12725
12842
12926
13221
13247
13360
13261
13384
13311
13344
13178
13135
13136
13162
13212
13285
13456
13568
14377
15578
17359
17418
13746
11796
12495
13004
13329
13331
13465
13421
13439
13373
13385
13445
13488
13597
13583
13656
13651
13791
13765
13966
14052
14343
14509
14853
14994
15296
15379
15375
15401
15290
15076
14704
14288
13784
13465
13046
12981
12808
12692
12514
12633
12479
12531
12459
12526
12526
12560
12570
12626
12626
12638
12675
12606
12668
12659
12831
12900
13030
12972
13102
13038
13101
13118
13212
13049
13216
13155
13312
13161
13199
13287
13451
13577
13526
13558
13488
13616
13535
13569
13361
13304
13138
13207
13010
13086
13083
13317
14138
15206
16615
16833
13912
11035
11782
12622
13198
13252
13457
13370
13494
13413
13507
13405
13515
13406
13529
13542
13646
13728
13814
13953
14105
14310
14567
14911
15200
15540
15562
15783
15616
15684
15245
15146
14484
14175
13501
13311
12801
12778
12495
12643
12388
12494
12266
12385
12211
12407
12392
12472
12475
12511
12554
12524
12602
12582
12768
12625
12863
12671
12901
12707
12957
12789
12912
12733
12933
12905
13105
13314
13443
13544
13509
13520
13295
13344
13069
13218
13023
13236
12954
13229
13253
13634
14700
16490
17344
17030
12356
11098
12145
12951
13510
13447
13673
13589
13856
13585
13839
13644
13920
13793
14039
13919
14112
14148
14302
14426
14636
14865
14974
15317
15377
15672
15750
15732
15544
15465
14997
14788
14140
13906
13350
13312
12865
12845
12527
12685
12444
12537
12462
12545
12553
12546
12709
12652
12841
12644
12706
12595
12628
12549
12602
12534
12582
12572
12603
12664
12773
12807
12860
12858
12753
12740
12692
12726
12617
12825
12775
12918
12841
13124
13260
14704
16639
17428
16664
11904
10168
11450
12354
12881
13079
13096
13235
13146
13223
13158
13292
13293
13441
13428
13573
13620
13838
14018
14214
14454
14830
15056
15322
15418
15544
15619
15547
15456
15249
14966
14422
14068
13635
13348
13051
12985
12791
12821
12660
12728
12640
12688
12707
12754
12782
12727
12799
12711
12814
12726
12844
12595
12762
12599
12792
12601
12894
12766
13017
12987
13146
13034
13019
12900
12848
12831
12668
12837
12677
12866
12783
13223
13971
15581
16709
17263
13597
10901
11612
12538
12902
13115
13238
13277
13335
13274
13474
13387
13636
13409
13720
13555
13887
13883
14143
14070
14507
14470
14976
14993
15444
15269
15515
15269
15364
15093
14776
14272
13848
13465
13074
12975
12640
12670
12409
12555
12201
12532
12222
12465
12175
12397
12395
12666
12489
12548
12520
12463
12526
12394
12496
12237
12500
12281
12605
12493
12894
12678
13059
12783
12898
12736
12773
12594
12501
12555
12870
13086
13069
13369
13601
14613
16120
17989
16704
12641
12117
13063
13338
13635
13597
13797
13705
13850
13902
14060
13982
14136
14078
14156
14187
14200
14244
14253
14424
14330
14691
14612
14966
14812
15073
14686
14839
14401
14282
13734
13478
12951
12683
12491
12325
12280
12175
12327
12234
12555
12325
12625
12433
12773
12544
12860
12625
12814
12581
12652
12456
12505
12493
12516
12675
12612
12842
12644
12902
12708
12963
12571
12779
12505
12794
12591
12866
12753
13052
13096
13891
15063
17086
18011
14653
12049
12195
13029
13013
13413
13133
13441
14939
15146
14919
14764
14745
14525
14603
14441
14713
14587
14970
14803
15209
14931
15240
14898
14996
14544
14390
13865
13513
13061
12678
12464
12216
12257
12063
12300
12013
12317
12031
12442
12126
12561
12305
12695
12440
12690
12496
12726
12663
12677
12685
12513
12616
12485
12818
12684
13068
12746
13083
12736
13152
12765
13036
12674
12867
12678
12869
12731
12879
13043
13034
13846
14680
17061
17828
15465
11801
12504
12831
13510
13280
13700
13309
13708
13336
13697
13322
13628
13280
13636
13472
13729
13664
13825
13962
14171
14552
14652
15143
15110
15600
15292
15683
15284
15518
14801
14811
14071
13969
13397
13366
13031
13013
12934
12891
12995
12799
13099
12742
13108
12729
13152
12738
13155
12693
13006
12695
13012
12856
12962
12789
12865
12886
12693
12804
12519
12774
12469
12876
12626
13104
12853
13238
13003
13328
13092
13159
13016
12884
12891
12836
12949
12795
13066
13082
13777
14639
16541
17149
14858
11141
11844
12311
13038
12790
13171
13015
13242
13057
13308
13253
13430
13499
13528
13667
13619
13917
13820
14212
14116
