12989
13101
13110
13023
13014
12778
12988
12680
12895
12587
12921
12541
12916
12609
12981
12710
13026
12792
12987
12880
12995
13003
12932
12982
12826
13110
13013
13449
13146
13576
13252
13646
13331
13587
13250
13393
13114
13293
13246
13311
13388
13411
14265
15087
16829
17097
15237
11396
12133
12505
13450
13276
13745
13399
13752
13512
13835
13604
13803
13737
13767
13808
13768
13950
13809
14203
13918
14469
14271
14920
14827
15423
15301
15587
15263
15541
15125
15173
14492
14295
13719
13644
13418
13281
13066
12826
12850
12622
12775
12556
12813
12490
12829
12531
12853
12600
12928
12755
13033
12866
12986
12887
12885
12813
12740
12761
12572
12757
12419
12713
12387
12693
12352
12699
12308
12714
12386
12651
12506
12847
12927
13210
13221
13288
13351
13233
13473
13161
13346
12859
13270
12852
13325
12999
13621
13429
14579
15569
17048
16614
12939
11505
12207
13013
13160
13496
13243
13407
13535
13628
13491
13639
13462
13933
13563
14008
13622
14164
13733
14276
13972
14530
14396
14931
15093
15377
15343
15321
15356
15080
15037
14361
14269
13525
13585
12838
12994
12373
12695
12325
12679
12424
12578
12461
12562
12611
12492
12543
12339
12656
12381
12756
12382
12719
12408
12736
12447
12722
12514
12697
12694
12868
12829
12834
12916
12763
12939
12779
13055
12893
13388
13089
13480
13201
13459
13199
13366
13117
13294
13247
13439
13276
13574
13464
13769
14662
16170
17399
17405
13994
11203
12218
12806
13560
13452
13826
13677
14031
13722
13991
13797
13993
13818
13981
13920
14024
14064
14179
14452
14435
14759
14710
15237
15166
15604
15382
15669
15270
15405
14990
14867
14321
14030
13565
13239
12956
12635
12623
12340
12370
12139
12452
12178
12542
12276
12581
12321
12613
12455
12699
12549
12612
12542
12521
12542
12432
12614
12459
12660
12408
12718
12444
12827
12772
13105
12972
13294
12999
13201
12899
13070
12681
12868
12738
12918
12804
12915
12989
13452
14808
16576
17308
15444
10856
10873
12024
12380
12978
12822
13210
13033
13291
13078
13301
13238
13387
13452
13527
13669
13724
14046
14043
14456
14432
15012
15017
15570
15450
15759
15383
15421
14972
14836
14419
14119
13687
13292
13099
12735
12747
12367
12417
12140
12457
12154
12488
12295
12595
12266
12507
12449
12586
12482
12502
12516
12495
12487
12749
12639
12827
12881
12886
12899
12747
12890
12729
13036
12864
13240
12988
13302
13052
13339
13007
13209
12940
13068
13001
13118
13149
13178
13379
13268
14325
15700
17817
17781
14061
11594
12437
12757
13311
13159
13529
13425
13598
13520
13617
13664
13612
13818
13711
13983
13851
14235
14033
14441
14264
14856
14761
15328
15323
15717
15581
15772
15619
15497
15213
14762
14436
13837
13648
13105
13215
12683
12913
12477
12755
12348
12717
12519
12901
12542
12946
12605
12908
12536
12850
12631
12872
12711
12821
12771
12798
12902
12680
12838
12526
12791
12418
12924
12730
13311
13013
13409
13105
13492
13164
13214
13008
13052
13028
13038
13170
13024
13360
13228
14091
14836
17225
17974
16278
12000
12390
12702
13271
13277
13561
13360
13341
13326
13234
13346
13139
13416
13158
13560
13256
13734
13461
13948
13728
14223
14150
14680
14737
15078
15098
15162
15133
14985
15016
14490
14002
13679
13335
12922
12850
12589
12739
12341
12612
12249
12671
12291
12693
12352
12697
12377
12646
12440
12623
12532
12630
12736
12679
12793
12625
12947
12657
12988
12618
12972
12479
12891
12615
13199
12935
13215
12985
13230
13145
13207
13206
13021
13182
12963
13264
12907
13320
12966
13566
13413
14674
15936
17735
16673
12534
11686
12537
12937
13154
13267
13216
13445
13218
13551
13147
13578
13187
13665
13308
13840
13466
13943
13732
14356
14207
14937
14755
15410
15262
15629
15439
15671
15356
15222
14893
14425
14164
13518
13477
12848
13108
12578
12909
12370
12797
12325
12718
12348
12690
12465
12640
12550
12564
12589
12453
12625
12390
12744
12424
12898
12452
12930
12471
12901
12474
12813
12461
12822
12687
12952
12977
13061
13152
13084
13267
12977
13258
12863
13332
12909
13386
12861
13261
13022
13740
14230
16212
17474
17021
12243
11528
12385
12849
13258
13145
13549
13452
13559
13455
13646
13409
13767
13460
13907
13496
14064
13688
14326
14019
14623
14438
14986
14985
15262
15245
15200
15130
14880
14864
14294
14302
13486
13548
12635
12682
11920
12234
11650
11985
11606
11878
11681
11966
11888
11973
12135
11981
12205
11910
12367
11937
12431
12003
12549
12041
12532
12049
12408
12049
12377
12221
12514
12602
12695
12842
12659
12909
12494
12799
12279
12787
12233
12794
12373
12979
12648
13193
13586
14985
16781
17252
12266
11475
11996
13071
13076
13271
13291
13405
13582
13418
13764
13454
14001
13610
14230
13849
14435
14051
14660
14396
14926
14868
15405
15423
15740
15810
15775
15858
15561
15684
15081
15151
14289
14409
13549
13766
13009
13349
12734
12996
12611
12866
12644
12742
12690
12599
12762
12510
12798
12364
12783
12296
12801
12315
12852
12256
12795
12429
12762
12434
12716
12646
12816
13026
12997
13262
12968
13289
12931
13446
12893
13297
13091
13385
12982
13438
12961
13607
13470
14820
16090
17938
16303
12002
11517
12577
13070
13222
13356
13283
13555
13327
13644
13237
13752
13275
13778
13344
13915
13542
14029
13813
14283
14226
14586
14738
14913
15155
15144
15376
15022
15391
14830
15008
14212
14277
13518
13603
13028
13186
12828
13015
12789
12843
12873
12844
12981
12778
13103
12821
13135
12752
13119
12744
13181
12746
13049
12766
12957
12789
13020
13024
13120
13235
13350
13150
13277
13059
13092
13144
13089
13363
13180
13432
13339
13895
14790
16990
17567
17798
12877
11510
12256
13127
13375
13597
13692
13732
13762
13600
13794
13603
13954
13710
14036
13770
14169
14038
14416
14247
14666
14693
15072
15116
15363
15441
15400
15423
15163
15155
14630
14584
13930
13873
13253
13274
12728
12899
12513
12672
12403
12602
12525
12671
12687
12717
12896
12784
12998
12757
13013
12763
13033
12558
12923
12524
12869
12695
13142
12821
13292
12853
13236
12852
13145
12757
13031
12852
13021
12898
13093
13329
13477
14616
16084
17507
16916
12588
11108
12368
12582
13274
12901
13357
13092
13392
13103
13364
13280
13392
13496
13461
13702
13482
13897
13620
14112
13810
14493
14320
15078
14732
15231
14820
15087
14633
14618
14229
13932
13505
12988
12932
12438
12629
12167
12570
12102
12616
12166
12715
12199
12663
12319
12615
12357
12644
12645
12661
12729
12608
12905
12849
12728
12842
12888
12787
13201
13015
13470
13059
13545
12961
13403
12793
13332
12880
13393
13022
13448
13262
13665
13973
14769
16786
18401
17399
12472
12442
12630
13548
13025
13605
13036
13591
13039
13458
13058
13457
13221
13440
13367
13445
13621
13520
13946
13768
14378
14021
14724
14348
15141
14579
15051
14470
14881
14306
14360
13787
13641
13255
12996
12938
12587
12837
12433
12913
12392
13016
12490
13050
12467
13069
12551
13025
12480
13126
12586
13242
12729
13166
12698
12966
12556
12751
12711
12832
13097
12933
13201
12755
13282
12741
13262
12603
13055
12441
13060
12636
13115
12759
13261
13231
14056
15604
17583
17630
12771
11747
11941
12990
12706
13431
12950
13457
12981
13466
13097
13517
13181
13518
13434
13634
13757
13784
14090
13912
14401
14227
14896
14649
15400
14999
15573
15081
15421
14870
14917
14293
14153
13624
13340
13085
12740
12909
12591
12882
12488
12801
12722
12933
12672
12956
12540
12912
12460
12919
12466
12885
12443
12933
12603
12848
12562
12787
12762
12871
13064
13049
13394
13218
13574
13180
13560
13006
13371
12945
13342
12967
13377
13173
13548
13629
14987
17014
17841
17210
11809
11396
12120
13133
13121
13594
13327
13724
13410
13717
13437
13634
13621
13741
13652
13636
13862
13863
14197
14072
14552
14524
15014
14967
15368
15188
15378
14987
15030
14904
14702
14215
13817
13450
13198
12939
12858
12631
12585
12515
12456
12494
12468
12535
12545
12720
12618
12813
12645
12779
12636
12781
12538
12656
12474
12608
12499
12667
12640
12822
12911
13022
13126
13016
13035
12790
12908
12682
12850
12700
12891
12623
12940
12947
13202
14277
16261
16990
16821
12257
10281
11479
12184
12789
12807
13197
13121
13457
13286
13569
13398
13713
13584
13859
13921
14167
14197
14399
14648
14829
15038
15118
15514
15518
15845
15623
15783
15415
15369
14829
14685
13905
13689
13118
12992
12569
12647
12420
12381
12229
12337
12333
12273
12315
12285
12455
12362
12598
12416
12626
12469
12633
12429
12623
12413
12496
12381
12400
12319
12513
12685
12770
12925
12902
12971
12814
12977
12780
13026
12869
13118
13002
13224
13190
13538
14611
16627
17410
17117
12334
11096
12057
12554
13091
13073
13327
13201
13388
13253
13488
13408
13720
13564
13777
13721
13836
13812
14029
14177
14356
14598
15006
15174
15425
15548
15530
15527
15338
15189
14647
14483
13862
13763
13261
13295
12911
12979
12643
12789
12602
12724
12625
12657
12729
12720
12785
12728
12982
12867
13070
12852
13123
12895
13176
12848
13032
12789
12977
12815
13048
13028
13195
13214
13241
13320
13251
13421
13154
13363
13087
13351
13101
13431
13284
13529
14193
16194
17398
17905
13886
11579
12188
12665
13128
13162
13479
13407
13654
13431
13728
13603
13951
13711
14036
13899
14265
14089
14430
14372
14810
14845
15187
15221
15570
15581
15568
15475
15349
15187
14583
14249
13577
13423
12907
12977
12559
12726
12443
12590
12374
12492
12339
12468
12527
12549
12666
12643
12810
12614
12862
12588
12921
12644
12955
12627
12936
12630
12926
12665
12859
12810
12817
12808
13030
13169
13145
13334
13106
13409
13187
13532
13222
13509
13349
13693
13454
13694
13600
14047
14947
16830
17916
17425
12806
11931
12713
12945
13340
13398
13497
13406
13595
13372
13642
13311
13682
13315
13664
13283
13766
13495
13888
13747
14207
14298
14761
14930
15065
15261
15188
15327
14877
14914
14149
14071
13198
13245
12540
12760
12316
12698
12347
12468
12230
12308
12233
12188
12246
12019
12309
12080
12511
12102
12544
12142
12641
12161
12609
12186
12586
12177
12460
12324
12538
12463
12443
12574
12473
12839
12550
12925
12512
12989
12418
12942
12590
13153
12751
13261
13003
13497
13065
13605
13089
13496
13108
13437
13222
13482
13473
13657
13958
14281
15908
17900
18507
14532
12814
12544
13437
13058
13570
13095
13495
13145
13504
13266
13397
13345
13438
13611
13463
13762
13459
13917
13612
14294
13977
14789
14539
15267
14967
15494
15132
15452
15108
15013
14567
14187
13925
13374
13457
12919
13234
12674
13129
12582
13156
12563
12995
12509
12990
12665
12962
12785
12930
12891
12852
12988
12781
13208
12801
13283
12994
13143
12956
13251
12889
13292
12820
13326
12745
13333
12762
13275
12807
13248
12880
13186
13012
13172
13094
13037
13226
13028
13439
13093
13625
13081
13607
13008
13584
13033
13544
12970
13415
13097
13449
13280
13519
13928
14070
15865
17570
17814
13422
12642
12466
13374
12844
13509
12999
13581
13082
13573
13263
13508
13344
13486
13573
13544
13838
13656
14163
13889
14603
14209
14981
14628
15516
15146
15816
15432
15808
15296
15306
14307
14415
13537
13565
12928
13048
12691
12692
12625
12476
12688
12312
12638
12182
12753
12186
12809
12203
12803
12225
12835
12382
12851
12501
12824
12711
12806
12832
12688
12979
12667
13040
12528
13176
12656
13243
12624
13271
12770
13364
12881
13308
13063
13291
13133
13119
13238
13002
13238
12757
13267
12842
13509
12887
13555
12859
13539
12965
13487
12979
13337
12989
13181
13113
13095
13351
13360
14231
14205
16641
17195
16447
12128
12890
13100
13836
13305
14010
13357
14009
13362
14018
13520
14138
13715
14184
13959
14208
14201
14297
14538
14423
14981
14759
15483
15140
15898
15307
15999
15289
15824
14995
15203
14272
14207
13526
13322
12976
12732
12805
12416
12712
12165
12662
12073
12741
12050
12722
12057
12694
12090
12600
12095
12407
12097
12245
12271
12286
12541
12293
12715
12216
12827
12223
13009
12358
13098
12367
13020
12460
12957
12682
13075
12857
12999
13006
13215
12724
13164
12876
13246
13302
13218
13496
13204
13702
13229
13757
13057
13699
12924
13582
12889
13562
13153
14185
14281
15943
16953
16652
12707
11816
12853
13172
13847
13365
14042
13363
14099
13326
13999
13312
13960
13372
13878
13588
13893
13781
13891
14008
13917
14390
14171
14937
14615
15452
14840
15528
14793
15351
14530
14796
13987
14007
13294
13254
12920
12760
12823
12598
12874
12387
12854
12234
12912
12265
13006
12342
12944
13887
14244
13969
13779
13656
13335
13504
13046
13465
12822
13361
12666
13250
12576
13104
12467
12986
12584
13160
13025
13274
13178
13203
13282
13026
13341
12820
13226
12728
13344
12724
13417
12994
14040
14859
17186
16777
15897
10885
10948
12010
12785
13320
13214
13574
13214
13648
13137
13722
13149
13782
13252
13875
13365
13858
13704
14131
14020
14290
14500
14732
15136
15080
15614
15220
15701
15123
15542
14732
14886
13874
13901
13152
13215
12363
12849
12179
12505
11980
12314
12000
12394
12179
12312
12357
12293
12476
12258
12584
12243
12816
12311
12837
12221
12754
12242
12676
12257
12728
12500
12778
12651
12636
12600
12315
12554
12370
12754
12405
13001
12566
13184
12895
14206
15450
17354
16521
14418
9993
10901
11797
12490
12940
12872
13225
13070
13440
12979
13529
13086
13692
13366
13950
13629
14221
13996
14443
14376
14813
15014
15266
15620
15671
16017
15647
16120
15480
15402
15003
14872
14097
14046
13274
13434
12722
13058
12446
12876
12386
12795
12438
12752
12667
12909
12813
12782
12941
12792
13038
12618
12985
12435
12904
12438
12896
12478
13053
12713
13058
12804
12984
12902
13012
12840
12708
12911
12670
12918
12638
13132
12900
13553
14416
16767
16948
17141
12049
10957
11748
12635
13001
13153
13304
13204
13366
13091
13390
13052
13423
13029
13489
13182
13649
13399
13798
13679
14067
14089
14493
14728
15250
15204
15579
15332
15422
15123
14783
14441
13789
13634
13053
13131
12617
12772
12211
12572
12089
12449
12245
12598
12355
12640
12547
12773
12752
12779
12900
12720
12934
12587
12865
12486
12925
12590
13114
12737
13217
12879
13236
13007
13255
13001
13054
13034
13021
13097
13026
13357
13193
13770
14564
16829
17509
17934
12799
12036
12274
13151
13206
13580
13475
13620
13630
13608
13732
13580
13887
13675
14105
13803
14310
13910
14445
14365
14976
14812
15496
15241
15848
15426
15868
15370
15611
15073
14999
14266
13999
13556
13208
13096
12757
12880
12527
12855
12356
12761
12240
12727
12211
12661
12284
12729
12328
12681
12489
12763
12721
12733
12739
12544
12781
12419
12867
12504
13126
12713
13274
12798
13294
12816
13228
12788
13018
12786
12991
12984
12981
13214
13152
13756
14368
16764
18187
18045
12867
12409
12327
13289
12992
13482
13170
13478
13216
13334
13319
13272
13173
13566
13415
13627
13546
13577
13782
13716
14218
14131
14781
14472
15228
14840
15421
14829
15249
14482
14503
13728
13627
13028
12920
12663
12476
12465
12165
12477
12126
12579
12103
12676
12096
12632
12122
12729
12213
12659
12205
12525
12250
12448
12405
12416
12625
12403
12717
12380
12897
12357
12977
12349
12960
12435
13006
12531
13104
12867
13329
13154
13311
13261
13241
13427
13144
13451
12951
13390
12843
13383
12768
13482
13121
14315
14544
17712
17977
16329
12291
12855
12716
13499
13231
13680
13461
13710
13681
13702
13835
13680
14085
13712
14216
13635
14220
13653
14394
13856
14664
14305
15028
14839
15366
15260
15515
15451
15287
15261
14678
14565
13596
13708
12828
13209
12417
12937
12198
12751
12219
12724
12382
12674
12523
12652
12636
12508
12696
12388
12763
12246
12800
12191
12899
12278
12921
12287
12899
12368
12874
12509
12771
12601
12724
12779
12672
12948
12576
12790
12978
12992
12908
12964
12597
13108
12681
13398
12791
13530
12869
13589
12924
13507
12926
13393
12904
13223
13046
13137
13254
13345
13975
13705
15489
17166
17977
13820
12694
12420
13431
12944
13568
13088
13511
13167
13473
13353
13393
13433
13313
13608
13264
13879
13416
14178
13694
14580
14129
15049
14639
15442
15096
15590
15265
15486
15284
15129
14956
14305
14244
13413
13662
12785
13353
12616
13272
12546
13190
12491
12996
12509
13035
12365
13010
12349
12920
12393
12847
12471
12725
12565
12600
12739
12574
12907
12504
13011
12387
13108
12428
13136
12464
13203
12572
13208
12681
13149
12847
13065
12987
13002
13127
12863
13190
12778
13446
13033
13832
13164
13782
13080
13801
13133
13620
13101
13427
13117
13306
13356
13487
13796
13897
14574
15391
17483
16723
13635
11781
13100
12909
13679
13112
13704
13240
13606
13361
13569
13519
13334
13567
13360
13792
13256
13911
13761
14074
13954
14470
14236
15098
14696
15461
14833
15519
14768
15313
14450
14597
13708
13572
12976
12827
12586
12274
12426
12126
12575
12075
12720
12052
12803
12154
12814
12169
12795
12221
12708
12394
12701
12524
12635
12685
12614
12881
12505
12973
12389
13051
12438
13101
12500
13213
12620
13152
12722
13171
12836
13004
12844
12939
13120
13128
13584
13298
13799
13282
13851
13072
13675
13015
13589
13139
13684
13257
13675
13627
14216
15620
17637
17289
15425
11226
12105
12819
13470
13813
13643
14086
13730
14189
13700
14389
13830
14416
13859
14426
13944
14538
14247
14715
14638
15007
15136
15308
15662
15656
16092
15652
16091
15434
15927
15003
15215
14176
14273
13444
13599
12884
12953
12561
12567
12434
12361
12496
12237
12643
12281
12765
12186
12731
12157
12752
12142
12713
12190
12596
12226
12504
12238
12372
12290
12123
12290
12012
12485
12157
12694
12266
12956
12389
12876
12513
13004
12440
12946
12349
12972
12493
13179
12859
14491
15978
16733
16289
12001
10246
11184
12333
12672
13299
13025
13665
13250
13805
13252
13689
13178
13691
13342
13682
13528
13819
13858
14080
14314
14369
14880
14848
15481
15264
15806
15376
15888
15196
15415
14512
14452
13732
13608
13029
12920
12717
12525
12490
12267
12449
12020
12433
12007
12513
11985
12542
12061
12631
12282
12741
12404
12765
12582
12777
12754
12726
12932
13038
12910
13217
13194
13221
13412
13193
13456
13020
13390
12885
13390
12883
13332
12885
13361
13119
13756
14652
16808
17045
16891
12195
11041
12270
12790
13414
13102
13779
13324
13903
13472
13988
13501
13969
13558
13982
13787
14144
13989
14260
14499
14571
14909
14860
15419
15267
15889
15467
15990
15437
15769
14960
14970
14076
13881
13210
13151
12794
12637
12499
12353
12465
12162
12489
11985
12536
12112
12652
12205
12705
12289
12796
12387
13017
12488
12938
12398
12783
12379
12754
12459
12659
12633
12785
12884
12886
13123
12844
13203
12696
13166
12660
13225
12878
13366
12865
13452
13470
14832
16525
17487
16870
12065
11612
12168
13001
12942
13424
13125
13671
13192
13750
13289
13726
13298
13751
13437
13671
13560
13852
13913
14058
14468
14537
15086
14964
15600
15438
15919
15391
15793
15056
15122
14327
14218
13416
13249
12851
12816
12655
12453
12541
12244
12477
12089
12439
12289
12468
12316
12622
12311
12730
12310
12837
12402
12874
12388
12936
12520
12993
12602
12828
12634
12729
12829
12822
13081
12917
13318
13020
13369
12898
13283
12752
13166
12739
13232
12882
13258
13021
13242
13826
15320
16782
17168
14441
11222
11982
12189
13083
12700
13242
12826
13307
12945
13393
13065
13463
13290
13475
13458
13530
13600
13543
13824
13780
14320
14174
14876
14732
15457
15123
15677
15259
15631
15032
14941
14301
14059
13212
13469
12977
13113
12750
12870
12757
12738
12780
12605
12821
12595
12923
12547
12991
12542
13019
12572
13099
12554
12937
12562
12886
12720
12940
12787
12805
12926
12755
13041
12826
13188
12691
13149
12660
13120
12778
13299
13002
13448
13207
13446
13291
13447
13385
13283
13207
12939
13240
12981
13336
13064
13589
13475
14718
16011
17447
16864
13049
11949
12606
13053
13416
13505
13418
13581
13424
13738
13427
13716
13381
13818
13490
13995
13829
14306
14020
14640
14278
14933
14770
15493
15239
15703
15417
15730
15439
15320
14928
14536
14145
13655
13561
12953
13151
12560
12916
12417
12931
12383
12799
12339
12720
12339
12634
12362
12572
12527
12521
12603
12427
12631
12232
12612
12207
12695
12110
12623
12092
12680
12258
12720
12358
12707
12490
12677
12611
12686
12837
12727
13072
12790
13284
12797
13304
12765
13316
12781
13349
12884
13330
12891
13181
12970
13197
13260
13575
13254
13583
13319
13484
13365
13317
13398
13122
13454
13067
13603
13298
14279
14225
16581
17989
18133
13629
13059
12999
13670
13513
13716
13818
13742
13892
13589
13908
13425
13927
13398
14017
13417
14068
13529
14173
13789
14409
14207
14774
14734
15051
15200
15242
15427
15119
15327
14588
14623
13577
13680
12627
12958
12198
12577
11971
12385
11991
12284
12136
12235
12202
12090
12346
11981
12479
12051
12636
12094
12729
12055
12696
12166
12776
12231
12882
12230
12912
12368
12955
12451
12933
12535
12870
12691
12761
12775
12748
13011
12722
13168
12687
13359
12796
13418
12816
13492
12909
13511
12994
13462
13109
13539
13430
13663
13736
13610
13979
13686
14220
13725
14296
13631
14123
13402
14027
13467
14114
13785
14552
14463
16182
18504
18831
15306
13157
13699
13627
14151
13634
14260
13567
14180
13543
14194
13607
14189
13723
14057
13765
13937
13884
13942
14187
14085
14282
14830
14904
15143
15426
15322
15640
15179
15569
14754
14929
13820
14002
12929
13204
12441
12821
12260
12606
12309
12511
12408
12407
12539
12363
12708
12225
12727
12195
12843
12163
12818
12183
12855
12280
12849
12499
12902
12576
12669
12634
12658
12924
12632
13051
12602
13140
12569
13203
12524
13252
12667
13302
12693
13233
12804
13197
13028
13196
13112
13008
13193
12908
13335
12784
13347
12726
13509
13003
13785
13123
13769
13284
13919
13274
13990
13245
13853
13251
13821
13381
13820
13832
14292
15166
17425
18290
15028
12977
12730
13776
13275
14043
13388
14119
13464
14083
13494
14008
13608
13923
13730
13847
13898
13806
14119
13864
14437
13967
14768
14361
15311
14835
15723
15132
15719
15067
15409
14748
14631
13987
13583
13274
12876
12970
12475
12918
12308
12945
12255
12963
12202
12945
12365
12940
12390
12792
12458
12751
12671
12701
12838
12675
13102
12698
13284
12791
13236
13133
13445
13002
13443
12880
13430
12718
13324
12588
13236
12582
13191
12581
13025
12748
13062
13010
13086
13224
13076
13410
12980
13564
12973
13581
12915
13709
13090
13877
13318
13969
13465
13839
13433
13601
13437
13361
13451
13158
13521
13070
13698
13510
14656
15659
17260
15227
12281
11565
12803
12750
13231
13044
13279
13198
13070
13219
12995
13427
12944
13555
12923
13613
12942
13671
13067
13796
13447
14237
14068
14633
14692
15436
14946
15543
15002
15173
14670
14419
13957
13434
13176
12592
12852
12191
12646
12022
12655
11996
12655
12066
12692
12196
12731
12379
12710
12537
12624
12702
12652
12962
12646
13135
12602
13141
12544
13149
12452
13082
12465
13091
12636
13043
12763
12983
12939
13086
13188
13024
13314
12923
13384
12887
13540
12998
13822
13231
13880
13332
13875
13465
13764
13443
13534
13405
13406
13537
13312
13712
13508
15055
16057
17436
16336
13279
10892
12452
12804
13794
13388
14000
13441
14044
13525
14038
13665
14068
13885
14180
14233
14305
14570
14538
14945
14690
15387
15059
15871
15568
16303
15839
16486
15888
16200
15533
15595
14944
14589
14019
13567
13472
12939
13049
12498
12955
12321
12888
12296
12944
12314
12879
12456
12893
12516
12840
12701
12843
12868
12759
12908
12533
12937
12468
12965
12388
12934
12287
12961
12442
13078
12750
13234
12841
13103
13014
13087
13070
12774
12623
12972
12739
12900
12974
12911
13278
13730
15731
16624
16711
14020
10666
10893
12389
12485
13358
13033
13520
13286
13619
13512
13642
13779
13640
13925
13550
14069
13638
14253
13729
14509
14077
14890
14516
15330
15135
15748
15508
15716
15531
15379
15135
14487
14300
13469
13560
12756
13086
12334
12758
11954
12538
12028
12485
12027
12402
12206
12485
12401
12364
12519
12352
12709
12292
12756
12234
12870
12181
12718
12177
12732
12305
12965
12448
13169
12602
13127
12516
12920
12376
12675
12589
12763
12707
12699
12862
12732
13265
14064
16335
16183
16236
10813
10730
11087
12349
12333
12872
12648
13094
12854
12962
12969
13011
13159
12894
13376
13143
13713
13152
13904
13512
14209
13796
14627
14373
15060
14992
15401
15293
15386
15214
14848
14671
13912
13922
13139
13352
12551
13053
12416
12966
12309
12770
12262
12676
12419
12695
12517
12552
12594
12389
12692
12421
12795
12621
12675
12563
12725
12443
12857
12423
13048
12695
13339
12764
13395
12872
13418
12871
13197
12935
13198
13060
13254
13484
13359
13795
13859
15333
16627
18014
16812
12774
11766
13054
13031
13720
13517
13979
13783
14009
13966
13983
14195
14089
14385
14045
14479
14002
14655
14185
14839
14457
15247
14929
15605
15465
15881
15607
15740
15583
15337
15146
14494
14325
13472
13558
12731
13133
12389
12812
12105
12467
11934
12377
11997
12306
12028
12621
12071
12543
12142
12474
12257
12490
12441
12434
12526
12308
12694
12257
12682
12188
12763
12145
12840
12367
12881
12359
12839
12412
12604
12364
12408
12389
12307
12516
12275
12702
12454
13057
13403
15719
16405
17163
12615
11519
11662
12691
12751
13095
13070
13216
13258
13159
13412
13149
13599
13155
13662
13200
13909
13463
14217
13794
14413
14147
14771
14820
15306
15384
15505
15583
15377
15445
14887
14867
13913
13963
12951
13254
12493
12777
12247
12703
12091
12695
12240
12801
12298
12827
12338
12797
12490
12712
12608
12659
12767
12638
12854
12577
13073
12607
13137
12651
13191
12611
13119
12650
13164
12758
13184
12896
13081
13111
13238
13451
13310
13743
13417
13893
13442
13986
13441
13864
13280
13788
13329
13825
13559
14068
14163
15049
16612
17599
17462
13123
12485
12640
13634
13518
14184
13753
14350
13896
14339
13826
14291
13971
14247
14064
14154
14163
14202
14315
14897
14858
15229
15426
15682
15914
15769
16084
15651
16075
15434
15597
14595
14678
13625
13726
12873
13047
12413
12556
12242
12328
12258
12216
12305
12054
12355
11909
12389
11929
12497
11928
12496
11886
12455
11942
12369
11977
12365
12188
12335
12386
12328
12547
12269
12690
12311
12894
12366
13016
12527
13261
12714
13182
12592
13096
12719
12957
12785
12931
13095
12949
13199
12930
13355
12862
13387
12819
13394
12682
13277
12720
13272
12860
13605
13538
15004
16166
17963
15790
12360
11932
12702
12921
13060
13116
13073
13305
12941
13371
12906
13503
12917
13603
13088
13714
13132
13744
13399
14012
13837
14316
14362
14679
14913
14976
15335
15082
15520
14971
15240
14218
14372
13339
13642
12745
13163
12588
12935
12590
12867
12621
12688
12734
12545
12913
12578
13101
12579
13224
12704
13334
12661
13308
12727
13299
12849
13247
12990
13270
13107
13120
13189
13004
13361
13405
13330
13491
13577
13396
13630
13275
13790
13262
13835
13220
13922
13299
13955
13330
13770
13238
13622
13395
13754
13615
13709
13774
13575
13859
13366
13809
13145
13632
12929
13597
12967
13648
13211
14099
14307
17229
17961
15949
12678
12581
13104
13059
13453
13086
13633
13084
13695
13056
13699
13073
13781
13237
13824
13399
13824
13611
13911
13920
13951
14317
14239
14810
14591
15316
14776
15418
14757
15343
14406
14617
13596
13637
12623
13123
12283
12832
12192
12707
12219
12589
12299
12483
12439
12388
12538
12293
12652
12144
12728
12075
12711
12027
12786
12134
12873
12350
12913
12464
12899
12673
12808
12784
12700
13012
12680
13084
12540
13222
12567
13196
12494
13270
12542
13171
12646
13174
12712
13159
13045
13238
13403
13325
13633
13199
13674
13092
13717
12970
13593
12844
13539
12883
13556
13115
13834
13730
14707
16912
17643
15221
12261
12793
12849
13649
13137
13555
13580
13883
13535
14055
13507
14199
13444
14128
13468
14258
13686
14366
13917
14534
14349
14852
14965
15268
15613
15624
16105
15665
16102
15266
15586
14404
14617
13482
13824
12876
13285
12638
12973
12550
12722
12567
12531
12611
12308
12662
12256
12788
12242
12888
12202
12922
12273
12918
12418
12996
12538
12939
12719
12898
12871
12779
12901
12589
12976
12584
13151
12506
13119
12480
13083
12464
13116
12607
13005
12691
13090
13053
13533
13092
13596
13177
13515
13239
13327
13192
12989
13081
12775
13156
12727
13346
13222
14189
14891
16872
15963
12718
11279
12522
12770
13338
13216
13439
13458
13354
13556
13237
13764
13321
13933
13302
14070
13382
14229
13630
14443
14083
14858
14678
15321
15360
15685
15852
15748
16052
15527
15790
14786
15005
13876
14190
13170
13585
12718
13205
12552
12978
12565
12803
12590
12572
12618
12441
12759
12361
12865
12432
13034
12473
13188
12488
13191
12769
13352
12799
13550
12932
13591
13021
13579
12998
13501
13174
13508
13401
13408
13557
13465
13934
13699
14268
13770
14513
13892
14642
13981
14670
13941
14467
13985
14434
14156
14430
14491
14964
15945
17036
18311
17223
13508
12298
13644
13484
14361
13749
14319
13639
14129
13644
14011
13831
13947
13913
13800
14036
13715
14263
13848
14478
13920
14714
14297
15230
14803
15650
15246
15756
15370
15517
15116
14857
14468
13863
13726
14117
13846
13703
13550
13194
13213
12699
13041
12316
12676
11939
12421
11694
12218
11575
12064
11510
11879
11566
11777
11628
11563
11748
11713
12104
11861
12438
11845
12463
11862
12497
11763
12192
11534
11969
11488
11864
11549
11735
11872
11997
13287
14932
16250
15415
11620
8776
10566
10887
12118
11767
12531
12172
12753
12416
12719
12551
12836
12924
12936
13228
13128
13734
13424
14151
13741
14543
14186
15080
14771
15535
15135
15527
15574
14839
15009
13975
13904
13022
13046
12523
12585
12301
12180
12302
12087
12463
12007
12502
12087
12755
12204
12849
12319
13077
12523
12949
12523
12905
12609
12700
12591
12655
12955
12579
13047
12732
13141
12476
13084
12501
13010
12391
12972
12517
12940
12618
12987
12943
14227
16072
16819
16584
12337
10211
10844
12327
12311
13119
12704
13420
12949
13497
13043
13571
13388
13705
13669
13841
13976
14105
14560
14472
15191
14913
15807
16028
16675
16763
17394
17175
17783
17268
17693
16784
17071
16170
16397
15660
15865
15319
15357
15192
15058
14951
14721
15000
14586
15085
14644
15149
14695
15202
14651
15220
14692
15142
14705
15004
14661
14858
14751
14757
14931
14744
15118
14629
14986
14344
14859
14262
14823
14313
14937
14503
15098
14932
16338
17863
18975
18804
14204
12854
13425
14356
14340
14995
14580
15342
14893
15559
15100
15692
15377
15992
15794
16197
16138
16437
16449
17276
17215
17786
17959
18576
18949
19218
19573
19425
19896
19542
19872
19120
19385
18615
19079
18416
19052
18669
19313
19073
19429
19355
19720
19946
20063
20465
20365
20901
20636
21266
20821
21622
21126
21662
21135
21836
21397
21996
21801
22175
22142
22403
22488
22421
22582
22110
22465
21948
22489
21738
22242
21593
22224
21557
22713
23767
25252
25027
20768
18318
18560
18881
18675
18698
17972
18202
17458
17684
16758
17039
16132
16223
15503
15828
15008
15394
14609
15028
14362
14798
14279
14627
14338
14406
14135
13867
13687
13072
12878
11845
11737
10714
10860
9970
10275
9522
9968
9352
9638
9192
9434
9206
9268
9242
9258
9356
8980
9206
8802
9350
8796
9351
8801
9351
8861
9412
9036
9465
9150
9463
9274
9291
9246
9040
9212
8861
9259
8754
9313
8702
9377
9033
9770
10067
12182
13194
13401
8669
7431
8049
8690
9129
9061
9620
9384
9892
9508
10186
9635
10274
9871
10481
10070
10885
10416
11068
10723
11445
11049
11731
11581
12092
11983
12121
12059
11941
11875
11231
11202
10431
10591
9816
10276
9642
10198
9652
10218
9883
10367
10076
10453
10401
10514
10568
10526
10810
10428
10884
10516
11073
10635
11196
10752
11337
10803
11443
11046
11486
11091
11393
11250
11417
11721
11551
11963
11669
12142
11631
12249
11682
12157
11539
12177
11680
12240
11888
12389
12322
13350
14767
16353
16872
13123
10905
10972
11953
12020
12318
12238
12615
12204
12699
12252
12934
12448
13037
12502
13093
12679
13275
13019
13380
13401
13810
14035
14280
14677
14520
14950
14550
14955
14238
14354
13405
13504
12614
12859
12123
12370
11965
12259
11987
12048
12085
12074
12297
12102
12444
12013
12464
11959
12597
11999
12600
12083
12625
12211
12679
12334
12744
12622
12723
12776
12700
12903
12637
13033
12564
13087
12589
13161
12576
13229
12772
13404
13003
13476
13229
13521
13253
13907
13367
13771
13349
13574
13331
13416
13454
13382
13838
13871
14855
15702
17678
17063
13716
11800
12904
12872
13651
13228
13704
13385
13649
13452
13455
13506
13360
13633
13352
13767
13288
13921
13429
14128
13683
14459
14041
14827
14629
15251
15073
15340
15210
15060
14805
14248
14145
13311
13383
12564
12954
12184
12812
12130
12726
12131
12632
12213
12675
12356
12604
12558
12527
12623
12452
12841
12427
12974
12379
13050
12515
13061
12715
13183
12598
13151
12486
13172
12491
13136
12517
13022
12564
13022
12726
12991
12887
12907
13024
12821
13169
12683
13244
12737
13368
12711
13357
12677
13170
12501
13054
12611
13170
12986
13244
13290
13269
13462
13169
13588
13113
13658
13081
13740
13063
13751
13164
13920
13867
15210
16823
18345
15972
12493
12466
12801
13307
13056
13568
13091
13756
13126
13804
13141
13778
13153
13774
13279
13827
13526
13848
13694
13894
14039
14562
14458
15081
15021
15270
15348
15299
15431
14860
14921
13903
14013
12971
13354
12428
12948
12188
12722
12136
12663
12256
12601
12392
12523
12532
12393
12703
12347
12823
12287
12913
12270
13025
12330
13056
12431
13086
12604
13121
12716
12928
12766
12843
12873
12676
12973
12622
13176
12591
13257
12570
13373
12683
13365
12726
13364
12853
13328
12968
13249
13132
13084
13149
12866
13309
12878
13625
13098
13763
13112
13816
13148
13834
13181
13826
13018
13743
13055
13776
13229
14015
13920
14750
16195
18315
17754
13801
13056
13159
13865
13481
14114
13458
14164
13445
14180
13509
14207
13631
14258
13730
14125
13871
14130
14171
14241
14599
14503
15150
15000
15988
15534
16409
15811
16632
15844
16273
15265
15309
14388
14322
13652
13541
13330
13084
13217
12792
13297
12734
13328
12666
13362
12611
13402
12723
13388
12775
13267
12821
13179
13084
13219
13346
13201
13553
13171
13374
13592
13645
13545
13804
13405
13935
13369
14035
13316
14007
13283
14005
13330
13985
13443
13914
13440
13760
13576
13667
13741
13607
13875
13383
13883
13306
14122
13461
14283
13502
14225
13503
14130
13508
13956
13532
13772
13642
13683
13842
13760
14676
14494
16678
17302
17300
12673
12892
12645
13637
13024
13607
13096
13485
13160
13426
13403
13351
13499
13180
13680
13236
13841
13233
14057
13452
14284
13712
14711
14298
15098
14926
15651
14944
15569
14756
15078
14164
14137
13375
13174
12807
12572
12626
12275
12643
12126
12687
12027
12723
12040
12693
11990
12640
12038
12546
12068
12425
12184
12313
12288
12135
12324
12044
12451
11914
12466
11890
12587
11920
12569
11922
12514
11993
12537
12194
12527
12350
12499
12634
12411
12693
12321
12853
12306
12854
12158
12808
12152
12940
12470
13161
12712
13122
12758
13013
12835
12735
12686
12423
12841
12470
13004
12586
13619
13456
15576
16059
15755
11307
11648
11668
13002
12446
13305
12693
13305
12761
13283
13089
13410
13337
13371
13549
13347
13825
13391
14028
13491
14273
13773
14746
14308
15219
14816
15522
15087
15511
15138
15117
14726
14190
13973
13225
13279
12450
12890
12157
12836
12064
12801
12116
12793
12246
12816
12419
12767
12626
12758
12769
12583
12800
12496
12956
12447
13038
12280
12940
12260
12856
12291
12858
12316
12807
12523
12761
12618
12737
12813
12958
12588
12924
12835
12884
13021
12933
13285
12948
13386
12885
13429
12740
13324
12628
13199
12600
13251
12823
13451
13775
15470
16981
16411
14634
10067
11008
11618
12852
12664
13392
12854
13597
13023
13634
13077
13624
13248
13702
13502
13819
13934
14021
14335
14203
14852
14634
15434
15103
15972
15556
16314
15683
16222
15566
15778
15015
14871
14250
13946
13560
13166
13167
12636
12895
12323
12882
12213
12839
12252
12898
12300
12871
12380
13072
12395
13019
12425
12984
12390
12756
12366
12576
12227
12342
12389
12256
12597
12419
12971
12487
13075
12388
12997
12304
12786
12225
12837
12427
12901
12671
12928
13040
13641
15395
16880
16605
14806
10816
10543
12175
12338
13412
12983
13715
13246
13797
13365
13754
13524
13776
13848
13867
14044
13894
14289
13884
14549
14146
14974
14593
15536
15231
15805
15337
15800
15437
15580
15055
14798
14342
13677
13396
12757
12861
12276
12313
12273
12328
12057
12387
11981
12525
11969
12635
12117
12777
12216
12750
12249
12815
12423
12604
12326
12386
12380
12276
12591
12426
12921
12549
13118
12644
13211
12451
12892
12301
12815
12318
12780
12549
12863
12923
13497
14853
16506
17002
15530
11211
10656
12157
12239
13157
12676
13397
12935
13472
13129
13504
13304
13699
13623
13659
13839
13780
14145
13798
14270
13977
14746
14429
15326
15050
15716
15334
15809
15309
15449
14922
14750
13804
13827
13080
13108
12682
12762
12650
12631
12656
12386
12759
12428
12964
12542
13111
12537
13124
12550
13090
12555
12978
12616
12960
12706
12851
12806
12766
12971
12811
13180
12854
13299
12677
13177
12548
13079
12461
13021
12558
12972
12747
13140
12971
13885
15395
16573
17223
13722
11162
11361
12520
12446
13320
12853
13579
13071
13598
13213
13632
13363
13703
13599
13712
13905
13750
14112
13913
14466
14190
14904
14568
15484
15283
15819
15284
15784
15054
15308
14313
14342
13329
13439
12654
12836
12489
12663
12411
12369
12492
12329
12539
12209
12582
12140
12618
12045
12720
12145
12761
12260
12736
12236
12529
12264
12458
12404
12502
12707
12646
13061
12778
13365
12833
13376
12694
13274
12711
13235
12815
13266
12973
13306
13274
13831
14839
16601
17808
16318
12337
11764
12866
12803
13564
13176
13836
13230
13819
13467
13916
13601
13819
13688
13796
13906
13827
13860
14329
14366
14604
14815
14922
15443
15372
15912
15494
15939
15277
15653
14643
14540
13516
13531
12929
13124
12657
12779
12632
12590
12593
12467
12613
12309
12681
12225
12842
12279
12858
12298
12841
12311
12796
12332
12641
12400
12597
12538
12582
12686
12401
12636
12232
12759
12235
12876
12499
13167
12621
13312
12942
13291
12853
13201
13004
13126
13069
13097
13362
13076
13494
13651
15019
16052
17413
15881
12382
11600
12744
12865
13393
13057
13680
13138
13670
13159
13545
13280
13499
13384
13480
13515
13462
13762
13670
14194
13978
14622
14406
15131
14792
15448
15055
15440
14949
15123
14473
14218
13651
13364
13169
12797
12851
12446
12757
12344
12870
12342
12925
12351
12885
12370
12741
12418
12758
12530
12675
12650
12657
12818
12625
12926
12560
12991
12518
13080
12450
12892
12337
12908
12442
12924
12613
12979
12807
13008
13024
13009
13199
13001
13389
12996
13514
13026
13471
13456
13863
13474
13916
13423
13954
13351
13851
13280
13752
13217
13587
13182
13550
13519
13771
14282
14993
16503
16928
16321
12149
12477
12610
13647
13145
13799
13307
13834
13427
13845
13497
13837
13644
13826
13925
13897
14155
13856
14269
13998
14592
14259
15086
14548
15382
14964
15584
15117
15589
15204
15191
14522
14150
13692
13151
13060
12547
12790
12182
12636
11963
12651
12036
12678
12065
12575
12072
12470
12177
12357
12308
12594
12145
12605
12179
12515
12371
12581
12582
12490
12700
12326
12760
12309
12852
12276
12912
12279
12964
12357
12888
12349
12846
12478
12811
12670
12779
12790
12678
12963
12522
12979
12470
13190
12547
13269
12668
13213
12710
13236
12914
13414
13196
13494
13454
13479
13580
13277
13581
13002
13576
13061
13714
13158
13989
13662
14896
15798
18013
17309
13623
12274
12868
13212
13292
13604
13297
13681
13205
13736
13116
13868
13215
13905
13479
14018
13370
14097
13511
14178
13698
14609
14253
14986
14796
15370
15240
15458
15477
15311
15196
14539
14554
13606
13738
12799
13243
12440
13059
12282
12822
12293
12820
12387
12681
12483
12610
12639
12487
12717
12358
12939
12464
13113
12421
13061
12470
13187
12569
13192
12610
13011
12623
12874
12709
12822
12905
12624
12965
12635
13268
12778
13516
12912
13630
12929
13577
13018
13603
13142
13615
13265
13485
13410
13410
13577
13272
13279
13660
13692
13871
13977
13814
14165
13827
14383
13749
14376
13604
14188
13463
14158
13551
14236
13979
14825
15380
17999
18752
16131
13195
12982
13741
13408
14037
13461
14184
13461
14221
13599
14252
13653
14217
13766
14189
13971
14174
14194
14182
14498
14305
14989
14660
15467
15003
15861
15173
15861
15065
15526
14675
14742
13829
13688
13027
12776
12634
12392
12635
12193
12648
12066
12716
12018
12744
11984
12640
11949
12565
12024
12775
12114
12876
12174
12835
12238
12748
12336
12713
12530
12669
12741
12529
12902
12486
12969
12358
13044
12358
13112
12415
13173
12475
13066
12512
12977
12621
12863
12724
12739
12873
12669
13061
12581
13094
12492
13248
12743
13529
12901
13636
12975
13548
13009
13371
12984
13112
13013
12935
13076
12815
13513
13548
14491
15787
17820
16092
12972
11826
12947
12724
13309
13048
13451
13199
13279
13313
13193
13446
13136
13579
13111
13755
13477
13760
13540
13994
13677
14411
13987
14844
14381
15200
14705
15401
14871
15212
14580
14475
13739
13348
12991
12518
12549
12100
12461
11956
12574
11984
12614
11983
12633
11996
12528
12123
12598
12281
12527
12458
12466
12555
12418
12693
12325
12727
12229
12657
12012
12605
12066
12686
12263
12717
12343
12715
12498
12688
12719
12750
12875
12657
13036
12658
13086
12546
13163
12652
13255
12721
13190
12711
13191
12930
13384
13387
13566
13613
13880
13580
13891
13595
13669
13583
13531
13673
13394
13808
13611
14729
14740
16978
17162
15853
11918
12511
12624
13426
13203
13585
13352
13429
13399
13291
13527
13258
13686
13283
13844
13361
14102
13572
14249
13779
14474
14174
14868
14742
15250
15270
15491
15655
15539
15755
15149
15263
14273
14401
13289
13595
12658
13126
12356
12928
12336
12819
12457
12777
12642
12637
12740
12446
12789
12284
12829
12215
12958
12211
12981
12259
13044
12412
13202
12519
13238
12477
13192
12514
13157
12677
13167
12878
13172
13135
13096
13267
13061
13507
13060
13634
12974
13689
12984
13895
13366
14011
13436
14080
13674
14017
13647
13706
13660
13512
13722
13436
13933
13601
14701
15198
17449
16883
16584
11410
11976
12317
13462
13421
13786
13720
13756
13747
13483
13784
13399
13956
13309
13962
13317
14138
13512
14228
13717
14429
14121
14776
14755
15244
15349
15410
15587
15332
15640
15018
14711
14341
13983
13343
13353
12686
13048
12329
12893
12155
12761
12108
12811
12244
12811
12418
12854
12617
12757
12784
12670
12802
12568
13018
12515
13005
12358
12991
12306
12926
12221
12801
12293
12846
12599
12992
12812
13031
13143
12986
13149
12754
13117
12521
13058
12467
13190
12569
13251
12847
14172
15298
17116
16321
14497
10299
11058
12153
12696
13368
13131
13763
13278
13902
13248
13936
13323
13969
13474
14033
13690
14164
13976
14754
14390
15019
14773
15432
15407
15866
15938
15994
16114
15717
15864
15095
15169
14051
14167
13061
13372
12435
12825
12210
12530
12070
12302
12051
12259
12340
12243
12444
12189
12622
12152
12709
12137
12722
12062
12656
11992
12553
12055
12504
12160
12602
12593
12732
12823
12766
12938
12543
12923
12331
12888
12332
13002
12458
12991
12490
13251
13749
15697
16754
16862
14273
10450
11288
11989
12997
12847
13410
13039
13763
13216
13783
13413
13980
13532
14121
13607
14367
13901
14582
14176
14867
14658
15265
15227
15647
15789
15866
16002
15711
15975
15310
15322
14287
14395
13312
13540
12657
12991
12305
12687
12214
12413
12151
12211
12207
12070
12273
12039
12570
12084
12622
12101
12680
12134
12722
12028
12502
12043
12516
12136
12498
12509
12607
12715
12576
12831
12472
12883
12302
12847
12259
12890
12380
13004
12440
13148
12860
14255
15699
16949
17138
13127
11147
11670
12639
13255
13236
13361
13546
13384
13624
13164
13664
13173
13763
13236
13921
13417
14103
13631
14258
14022
14639
14603
15036
15212
15333
15484
15178
15465
14839
15138
14199
14329
13181
13433
12536
12881
12172
12569
12127
12478
12365
12537
12450
12384
12590
12321
12781
12291
12828
12357
13001
12324
12953
12381
12928
12414
12859
12499
12813
12695
12851
13054
13054
13428
13096
13524
12978
13499
12803
13345
12642
13236
12667
13271
12869
13608
13064
14411
15097
17434
17841
15690
11572
12124
12565
13096
13323
13164
13487
13092
13569
13079
13718
13174
13872
13202
13814
13321
13968
13587
14091
13945
14317
14556
14699
15137
15101
15601
15243
15719
15063
15502
14549
14717
13614
13821
12964
13236
12592
12770
12519
12591
12537
12369
12602
12313
12726
12189
12796
12228
12867
12252
12895
12344
12945
12438
12919
12594
12882
12729
12867
12969
12848
13127
12767
13290
12761
13319
12647
15065
14676
15022
14468
14527
14111
13956
13724
13358
13487
13014
13331
12700
13313
13082
14488
15499
17327
15900
12066
11127
12153
12370
12885
12857
12967
13159
12896
13208
12798
13316
12807
13461
12901
13581
13019
13792
13409
14001
13745
14317
14210
14639
14844
14956
15239
14998
15343
14801
15045
14051
14245
13114
13368
12485
12855
12146
12547
12100
12412
12249
12429
12464
12418
12723
12378
12859
12362
12988
12373
13027
12382
13004
12588
13205
12661
13354
12659
13258
12607
13185
12665
13228
12816
13161
12994
13070
13061
12919
13150
12706
13062
12627
13241
12760
13579
12886
13486
12976
13605
13135
13509
13082
13233
13097
13099
13237
13058
13387
13100
13847
13927
15647
16659
17970
14131
12333
12246
13390
13278
13711
13484
13694
13625
13594
13783
13519
13932
13548
14095
13560
14259
13648
14399
13927
14713
14380
15062
14843
15476
15475
15711
15761
15695
15777
15252
14896
14595
14050
13523
13280
12733
12918
12228
12692
12039
12667
11966
12620
11977
12573
12032
12531
12131
12482
12331
12428
12455
12330
12644
12294
12739
12222
12786
12150
12892
12311
13019
12308
12891
12423
12861
12478
12747
12656
12766
12924
12739
13048
12636
13196
12640
13279
12643
13290
12655
13317
12762
13357
12985
13531
13338
13661
13587
13568
13701
13497
13862
13298
13734
13126
13783
13117
13750
13203
14089
13977
15911
17328
17014
12314
12645
12520
13426
12999
13439
13203
13367
13189
13133
13351
13053
13414
12962
13502
12942
13676
13074
13812
13210
14020
13634
14373
14170
14798
14753
15046
15059
15027
15182
14644
14636
13685
13850
12768
13158
12268
12846
12114
12696
12163
12711
12290
12631
12480
12642
12668
12541
12800
12502
12989
12427
13120
12510
13325
12642
13346
12734
13364
12910
13420
12992
13266
13051
13038
13126
12872
13229
12803
13302
12712
13423
13027
13400
13030
13493
12953
13630
12956
13679
12958
13631
12971
13592
12977
13455
13136
13541
13528
13529
13685
13453
13823
13389
13914
13285
13902
13115
13817
13146
13829
13326
14112
14078
15025
17083
18412
16583
12938
12842
12915
13449
13016
13654
13018
13704
13022
13771
13124
13850
13226
13730
13352
13783
13535
13714
13834
13817
14224
14081
14821
14517
15441
14967
15788
15114
15770
14987
15368
14445
14460
13571
13459
13063
12851
12378
12840
12351
12644
12378
12460
12506
12370
12642
12247
12765
12197
12836
12172
12907
12216
12936
12313
12963
12419
12904
12528
12768
12628
12659
12772
12564
12947
12479
13024
12432
13164
12515
13277
12684
13403
12768
13380
12879
13315
12997
13233
13123
13105
13272
13041
13517
13045
13597
12833
13381
12633
13419
12821
13527
13007
13675
13243
13664
13377
13472
13366
13191
13375
13020
13481
13036
13843
13608
14623
15621
17733
16265
12535
12122
13374
12883
13674
13058
13808
13214
13734
13323
13703
13528
13711
13728
13668
13938
13606
