12233
12267
12137
12125
11987
12037
12062
11939
12102
11884
12083
11884
12206
12004
12488
12344
12652
12398
12698
12485
12593
12370
12337
12351
12399
12437
12313
12547
12558
12964
13620
15712
17441
17697
13226
12457
12738
13436
13416
13592
13463
13468
13422
13388
13456
13309
13428
13320
13605
13390
13619
13396
13819
13705
14105
14080
14590
14662
15120
15225
15375
15491
15497
15492
15165
14987
14429
14122
13579
13433
12873
12850
12407
12419
12094
12315
12059
12302
12026
12315
12091
12280
12108
12244
12070
12227
12310
12295
12325
12243
12430
12301
12553
12430
12749
12488
12744
12497
12908
12927
13236
13133
13355
13264
13369
13312
13086
13119
13008
13077
12931
13160
12978
13369
13195
14222
15572
18044
18068
14314
12839
13591
13964
14047
14090
13992
14013
13805
13928
13681
13868
13639
13877
13637
14022
13831
14133
14177
14545
14622
14953
15216
15453
15779
15851
16112
15981
16041
15961
15705
15220
14791
14249
13937
13337
13250
12759
12729
12350
12448
12115
12286
11992
12165
12087
12205
12163
12175
12232
12206
12318
12223
12405
12309
12483
12240
12365
12063
12232
11994
12227
12196
12491
12441
12674
12547
12544
12490
12302
12288
12091
12298
12115
12328
12202
12510
12317
13540
14832
16834
17280
13683
11260
12210
12816
13257
13315
13302
13518
13572
13717
13672
14039
13961
14225
14028
14412
14298
14550
14499
14959
14915
15422
15464
15984
16033
16413
16348
16467
16290
16299
16035
15491
15008
14504
14235
13630
13381
12896
12816
12392
12446
12124
12278
12091
12291
12174
12335
12241
12279
12291
12201
12150
12033
12162
11923
12124
11911
12198
12136
12446
12269
12578
12328
12555
12457
12395
12339
12390
12450
12505
12594
12501
12772
12697
14132
15967
17448
17385
13025
11563
12684
12942
13406
13295
13558
13622
13784
13872
13890
14002
13901
14082
14192
14300
14361
14504
14530
14851
14885
15266
15384
15861
15827
16269
16052
16366
16029
15932
15347
14901
14217
13654
13055
12625
12387
11751
11458
10931
11044
10680
10876
10634
11026
10913
11269
11140
11436
11411
11754
11742
11805
11745
11629
11713
11594
11859
11942
12486
12423
12857
12599
12774
12560
12654
12517
12637
12617
12634
12819
12746
13101
13230
14739
16551
18357
17254
13201
12879
13682
13801
14230
14042
14325
14288
14410
14306
14679
14458
14688
14564
14681
14640
14728
14876
14870
15197
15111
15597
15565
16120
15908
16309
15920
16191
15722
15720
15002
14690
13973
13598
13112
12717
12514
12131
12158
11704
11865
11475
11781
11359
11770
11467
11822
11603
11941
11720
11915
11824
11919
11828
11858
12006
11952
12284
12192
12650
12440
12846
12529
12845
12419
12673
12469
12822
12594
12794
12695
12941
13013
13460
14595
16630
18413
16495
12962
12774
13599
13423
13640
13417
13714
13357
13681
13291
13639
13199
13575
13325
13653
13416
13652
13580
13761
13864
14041
14343
14391
14770
14630
14970
14651
14877
14459
14613
13803
13790
13128
13006
12458
12520
12261
12298
12219
12125
12190
12016
12212
12054
12443
12239
12592
12268
12597
12263
12671
12353
12626
12438
12492
12297
12508
12372
12730
12854
12872
12926
12963
13058
12929
12999
12819
13037
12897
13220
13175
13496
13346
13709
13681
14571
16244
18679
17958
14228
13831
14492
14603
14769
14726
14614
14519
14335
14288
14121
14223
14070
14145
13881
14133
13995
14279
13924
14158
14080
14321
14289
14430
14510
14554
14602
14459
14381
14127
13876
13301
13080
12519
12371
12049
12112
11814
12027
11909
12143
11959
12229
12575
13123
13622
13641
13853
14307
15913
17596
18122
19260
20788
21618
23871
24458
24392
23952
24454
24465
24473
24740
24817
24876
24994
25228
25346
25203
25097
25112
25118
25425
25582
25630
25648
25688
25705
25722
25669
23624
13395
5869
1120
12
14
9
12
13
11
13
12
12
12
12
10
11
14
11
11
11
11
13
8
12
12
9
10
12
11
10
10
12
9
10
9
10
13
12
11
10
11
11
11
11
15
12
15
52
1846
2723
3571
4052
4885
5210
5928
6310
6907
7294
7818
8266
8730
9354
9819
10423
10612
11109
11149
11621
11805
12207
12151
12675
12829
13162
13372
13948
14445
16147
18840
20654
21919
19097
20468
22326
24473
25544
25647
25671
25686
25694
25699
25705
25706
25701
25700
25693
25695
25691
25687
25682
25683
25686
25687
25686
25683
25680
25679
25680
25675
25666
25661
25647
25637
25614
25580
25521
24963
23271
21568
19985
17752
15133
12092
8649
5796
3169
1290
13
12
11
10
8
11
10
10
10
8
8
10
10
10
9
10
9
12
12
12
10
11
11
11
572
1384
2083
2470
3035
3532
4118
4604
5763
7982
9502
10327
6396
4886
5795
7129
7671
8417
8700
9395
9669
10146
10462
11216
11313
11842
11802
12274
12527
12988
13400
13858
14471
15019
15956
16708
17975
18847
20360
21565
23511
25028
25549
25597
25631
25648
25655
25661
25666
25666
25672
25667
25668
25670
25666
25668
25666
25670
25666
25662
25660
25658
25651
25646
25643
25635
25620
25607
25585
25551
25446
24350
23067
21383
20128
17809
15784
12537
9704
6347
3922
1505
14
11
10
11
10
9
11
10
9
10
11
11
11
12
10
9
10
10
11
12
11
12
110
1086
2111
2652
3250
3655
4241
4473
5239
5383
6244
6390
7403
7650
8627
8735
9555
9637
10182
10218
10514
10432
10363
10316
10178
10425
10252
10742
10584
11254
11079
11764
11616
12318
12221
12746
12675
13172
13213
13652
13915
14324
14828
15304
16248
16964
18558
19889
22452
24728
25337
25396
25426
25440
25452
25456
25457
25457
25460
25464
25464
25464
25466
25465
25463
25467
25468
25470
25467
25466
25466
25463
25465
25461
25466
25466
25467
25459
25428
25388
25284
24361
22147
20404
17874
14562
10461
5833
1998
12
10
10
9
8
10
10
9
9
11
10
11
10
8
9
9
10
11
9
9
10
10
8
9
10
10
9
9
8
8
10
11
9
12
10
18
1173
2582
2799
3773
3945
4894
5069
5890
6106
6935
7265
7867
8350
8814
9361
9662
10322
10387
11007
10874
11591
11541
12327
12259
12940
12919
13604
13833
14727
16608
19838
21780
23445
21910
24327
25399
25453
25478
25492
25495
25498
25496
25499
25502
25505
25498
25497
25497
25501
25497
25501
25502
25500
25504
25503
25499
25499
25501
25500
25495
25493
25489
25486
25479
25471
25450
25426
25352
24701
22127
20406
17591
14434
10174
5978
2122
12
10
8
9
6
7
10
6
11
8
7
8
11
10
8
10
9
9
10
7
10
8
7
9
8
9
9
8
9
8
10
10
11
102
2611
5297
6836
7453
4475
2292
3346
4991
5632
6760
6960
7982
8170
9001
9280
10014
10303
10809
11225
11601
12075
12293
12963
13150
13948
14165
15313
15884
17417
18479
21227
23217
25336
25429
25468
25485
25500
25505
25507
25506
25508
25509
25506
25508
25506
25508
25505
25507
25512
25509
25509
25508
25504
25504
25503
25505
25499
25496
25493
25493
25487
25479
25472
25460
25440
25409
25321
24263
22502
20601
18586
15609
12425
8161
4668
1116
10
15
8
9
7
10
8
10
8
6
10
8
7
12
11
10
8
8
9
9
8
6
6
6
9
8
11
10
9
10
10
11
707
2064
3244
3692
4617
5121
6066
6576
7198
7721
8196
8659
8857
9298
9264
9168
9208
9332
9336
9700
9836
10350
10450
11061
11118
11691
11730
12329
12334
12835
12996
13509
13733
14258
14686
15314
16049
16846
18059
19188
21083
22966
25288
25423
25469
25489
25504
25506
25508
25511
25507
25514
25510
25510
25510
25511
25511
25509
25508
25512
25510
25510
25507
25509
25504
25506
25502
25500
25504
25500
25497
25484
25468
25451
25420
25372
25183
23641
22270
20262
18105
14762
11314
6748
3160
30
9
11
9
8
9
9
10
10
8
10
7
9
9
10
8
10
11
10
7
8
7
9
10
8
9
8
10
8
9
9
10
10
11
570
2310
2786
3703
3962
4824
5033
5827
6094
6663
7044
7549
8041
8596
9218
9545
10139
10321
10847
10785
11279
11150
11752
11755
12356
12401
12986
13138
13782
14479
15753
18231
21012
22392
20841
23187
25330
25438
25472
25490
25497
25501
25501
25504
25503
25502
25502
25504
25499
25504
25502
25501
25501
25499
25505
25501
25499
25502
25500
25498
25497
25495
25488
25481
25480
25473
25463
25436
25397
25146
23271
21056
19055
15969
12387
7996
3861
441
10
9
8
10
11
5
9
8
9
8
9
8
7
10
9
9
9
8
8
9
10
8
8
8
7
6
8
8
8
9
8
13
60
1474
2305
3025
3435
4232
4555
5413
5826
6950
7810
9864
11322
11576
7541
6896
8059
9333
10062
10528
11146
11468
12045
12178
12760
12860
13464
13584
14339
14628
15614
16268
17609
18846
20836
23106
25321
25423
25464
25482
25490
25492
25492
25490
25496
25494
25495
25497
25497
25494
25493
25496
25495
25495
25494
25495
25494
25493
25494
25490
25487
25489
25482
25481
25469
25460
25448
25424
25392
25302
24615
22593
21135
18647
15981
12049
7945
3600
279
11
10
9
7
9
5
9
9
9
11
10
7
9
10
9
10
8
9
8
8
7
8
9
8
8
10
11
9
11
10
9
11
11
872
2285
3200
3800
4381
5028
5518
6234
6571
7357
7653
8430
8668
9492
9752
10566
10931
11707
12103
12717
12948
13337
13677
13976
14403
14621
15092
15466
15821
16274
16979
17718
18951
20186
22079
23990
25365
25434
25471
25484
25491
25492
25498
25499
25499
25504
25502
25508
25507
25507
25500
25504
25502
25503
25501
25503
25503
25497
25493
25496
25492
25489
25487
25479
25470
25462
25443
25411
25349
24628
22815
20813
18846
15793
12512
8055
4376
667
10
11
7
8
8
12
9
9
6
8
7
11
8
9
9
8
9
7
9
7
8
9
8
9
11
7
9
10
10
10
12
44
1842
2631
3676
4116
5011
5554
6397
7093
7855
8498
9249
9455
9925
10051
10214
10244
10248
10367
10292
10518
10519
11006
11057
11582
11544
12113
12138
12693
12752
13291
13472
14018
14345
14953
15574
16365
17425
18529
20149
21766
24304
25379
25456
25485
25500
25510
25512
25513
25517
25518
25518
25518
25518
25518
25514
25518
25514
25515
25517
25518
25516
25515
25516
25512
25511
25511
25508
25503
25497
25490
25480
25466
25443
25405
25304
24196
22759
21707
20957
19607
17263
10442
4761
662
11
10
9
10
10
8
9
8
8
8
7
8
12
9
9
9
9
11
10
6
9
8
7
6
9
12
9
9
9
10
10
9
13
338
1570
2003
2779
3042
3902
4235
5018
5306
6066
6377
7100
7486
8053
8452
8871
9372
9651
10227
10312
10844
10867
11495
11523
12119
12136
12728
12799
13336
13494
14025
14371
14917
15530
16230
17242
18128
19674
21165
23576
25332
25456
25496
25516
25527
25531
25536
25535
25537
25537
25537
25539
25537
25537
25536
25536
25536
25538
25538
25537
25533
25533
25528
25527
25526
25523
25520
25512
25505
25495
25481
25454
25424
25308
24360
22654
21134
19069
16421
13337
9429
5876
2518
188
8
10
9
8
11
8
9
7
7
8
9
7
10
11
9
6
8
11
8
7
7
7
9
9
8
11
9
9
9
9
10
12
990
2314
2698
3518
3730
4602
4869
5734
6042
6769
7040
7634
8031
8468
8838
9159
9766
10159
10756
10817
11362
11357
11951
11875
12346
12230
12732
12791
13347
13597
14151
14707
15484
17156
19411
22464
24505
23754
25414
25509
25539
25556
25564
25570
25570
25575
25575
25577
25579
25583
25580
25585
25587
25589
25589
25588
25585
25585
25583
25580
25582
25577
25581
25576
25573
25563
25559
25544
25523
25472
25183
22673
20740
18237
15514
11962
8099
4446
1369
9
11
8
8
8
8
8
9
10
8
7
6
7
7
8
9
8
10
7
9
8
7
8
10
10
8
12
10
11
9
91
1770
2749
3413
4109
4523
5187
5375
6049
6288
7006
7239
8048
8385
9787
10704
12658
12662
10843
7825
9727
10951
12096
12413
12980
13311
13698
13987
14196
14657
14965
15703
16082
17091
17826
19377
20584
22644
24466
25510
25580
25614
25632
25648
25658
25664
25666
25669
25669
25668
25671
25674
25674
25670
25670
25668
25665
25662
25664
25653
25653
25645
25636
25622
25602
25567
25474
24673
22922
21735
19765
18038
15285
12693
9098
6405
3581
1757
22
11
9
10
7
8
5
7
9
6
6
8
7
5
7
8
7
9
6
9
11
249
3580
3863
137
9
10
11
308
1960
2770
3645
4130
4990
5170
6001
6223
7150
7497
8655
9173
10171
10544
11194
11612
12132
12569
12856
13313
13547
13848
13567
13841
13278
13201
12348
12336
11786
11955
11787
12232
12075
12421
12551
12725
12905
12945
13132
13134
13570
13414
13781
13475
13686
13691
14243
14188
14713
14610
15133
15230
15520
15543
15840
16254
16465
16964
17004
17401
17171
17388
17117
17633
17497
18020
17750
18173
18064
18650
18836
19837
22426
23379
22283
19112
17800
18556
18804
19099
19264
19447
19618
19480
19577
19281
19567
19330
19569
19068
19577
19321
19637
19494
19788
19584
19857
19964
20089
20047
19828
19828
19315
19183
18576
18335
17390
17145
16369
16235
15572
15595
15140
15130
14785
14595
14286
14120
13953
13727
13611
13327
13387
13031
13135
12700
12788
12357
12536
12098
12283
12021
12071
11857
11952
11917
12012
12096
12153
12359
12231
12428
12115
12371
11984
12170
11747
11985
11735
11984
11823
11997
11827
12649
13490
15427
14466
13357
10375
10523
11138
11701
12087
12067
12201
12254
12608
12490
12904
12699
13151
12968
13347
13146
13490
13327
13656
13727
14017
13728
13626
13907
14092
14338
14136
14267
13934
13982
13330
13326
12702
12836
12367
12225
12026
12310
12258
12254
12215
12398
12456
12401
12341
12296
12622
12347
12609
12394
12764
12490
12640
12326
12636
12441
12653
12501
12599
12687
12848
13054
13070
13271
13342
13350
13292
13187
13043
13048
13019
13211
12979
13258
12976
13558
13527
14781
16479
16274
14844
11952
11194
11882
12429
12722
12957
13121
13353
13327
13586
13406
13761
13586
13958
13733
14107
13880
14262
14230
14293
14254
14616
14739
14846
14950
14807
14842
14624
14641
14180
14160
13558
13473
12881
12964
12594
12764
12476
12607
12453
12576
12570
12637
12693
12725
12885
12766
12968
12680
12946
12681
13064
12602
12556
12458
12772
12635
12910
12667
12972
12723
12827
12696
12850
12990
13267
13159
13067
12865
12905
12894
12729
12967
12366
12565
12394
13060
13325
14770
16224
15571
14374
11967
11456
12182
12710
13070
13256
13426
13778
13708
13928
13689
13977
13785
14049
13954
14380
14301
14399
14447
14971
15162
15456
15456
15566
15656
15421
15580
15417
15528
15015
15232
14659
14839
14208
14366
13717
14172
14021
14108
13920
14077
14012
14044
14080
14085
14232
14168
14473
14358
14336
14445
14568
14343
14562
14188
14395
14138
14285
13939
14157
13893
14391
14243
14413
14354
14583
14548
14489
14611
14343
14658
14345
14475
14241
14546
14318
14610
14659
15601
16294
17886
16068
15180
12975
12853
13373
14018
14203
14260
14348
14134
14632
14221
14383
14125
14351
14067
14321
14068
14303
14201
14378
14348
14352
14497
14531
14656
14582
14594
14155
14474
13731
13743
13288
13190
12557
12622
12036
12251
12362
12456
12079
12259
12045
12518
12313
12353
12141
12309
12277
12236
12162
12020
12339
12184
12105
11832
12398
12100
12232
11977
12312
12117
12521
12264
12321
12203
12435
12410
12452
12704
12094
12329
12356
12402
12043
12442
12225
12297
12076
13230
14182
12676
11349
9438
9458
10241
11101
11559
11716
12088
12249
12244
12591
12448
12794
12665
13033
12791
13089
13015
13565
13619
13899
14053
14320
14463
14492
14270
14390
14524
14173
14528
13882
13747
13369
13197
12930
13174
12686
12918
12541
12913
12625
12999
12591
13257
12871
13142
12989
13042
13293
13239
13146
13048
13145
13288
13193
13016
13159
12905
13521
13112
13435
13274
13529
13280
13350
13273
13355
13114
13166
13128
13136
13442
13381
13566
13819
14734
15400
15111
13265
11688
11050
12077
12842
13596
13489
13781
14240
14236
14187
14031
14294
14103
14662
14527
14855
14534
14845
14984
15316
15001
15469
15376
15759
15568
15609
15212
15451
14989
15025
14256
13995
13782
13502
13269
12956
13482
13045
13070
12755
12851
12707
13230
12668
12941
13035
13105
12610
12900
12932
13118
12751
12636
12703
12631
13061
12935
12783
12667
13361
12977
13014
12918
13200
12626
12949
12891
12942
12752
12767
12651
13090
13584
14467
14880
12609
11936
10178
11334
11639
12642
12751
13191
13059
13554
13171
13288
13261
13413
13279
13356
13664
13403
13573
13725
14017
13905
14573
14471
14771
14726
14766
14568
14831
14223
14073
13489
13479
12836
12882
12385
12450
12359
12381
12113
12210
12555
12340
12558
12444
12706
12575
12669
12654
13032
12596
13035
12784
13340
13074
13221
13086
13331
13284
13209
13340
13365
13361
12939
13226
13076
13253
12927
13401
13298
13537
13483
14738
15548
13895
12680
10892
11540
12349
12898
12962
13438
13361
13656
13333
13864
13446
13865
13743
14036
13682
14104
14207
14485
14499
14627
14903
15367
15137
15607
15328
15153
15053
15028
14638
14124
13858
13270
13374
12760
12916
12540
12564
12560
12690
12650
12568
12449
12842
12562
12860
12787
12634
12899
12580
12869
12571
12929
12570
12844
12545
12920
12880
13254
12704
13140
13049
13119
12859
12766
12812
12792
13167
12982
12946
13006
13667
13670
14566
15695
15267
13971
12286
11831
12436
12939
13581
13448
13805
13848
13921
13985
13697
14145
14067
14076
13878
14403
14148
14396
14471
14902
14475
14911
15044
15183
14629
14786
14605
14700
13998
13813
13522
13211
12665
12502
12579
12300
12331
12200
12382
12231
12589
12185
12363
12117
12562
12354
12638
12399
12728
12775
12628
12737
12775
12843
12767
12869
12705
13106
13060
13348
13052
13445
13204
13631
13318
13555
13230
13168
12862
12942
13152
13155
13114
13157
13700
14590
16408
15026
14301
11786
12200
12281
12975
12784
13197
13191
13359
13280
13248
13316
13262
13188
13393
13253
13663
13664
13766
13887
13969
14132
13786
14113
13851
14014
13775
13866
13497
13697
13005
13036
12541
12684
12424
12394
12306
12212
12323
12349
12309
12278
12510
12298
12547
12419
12666
12656
12990
12823
13040
12672
12927
13064
13100
13274
13267
13339
13047
13246
13336
13511
13142
13459
13131
13501
13166
13584
13360
13979
14210
14586
15855
16297
14954
13803
12765
13126
13821
13729
14040
13922
14475
14216
14562
14254
14644
14420
14842
14539
14712
14492
15046
14735
15265
15265
15421
15529
15719
15442
15142
15038
14520
14360
13840
13755
12886
12829
12194
12255
11831
12605
12098
12111
11899
12196
11931
11562
11402
11530
11731
11462
11475
11172
11389
11065
11435
11224
11593
11362
11760
11508
11579
11529
11598
11518
11534
11392
11483
11493
11894
11724
11251
11726
11708
12302
13020
13670
12433
11429
9752
10583
11206
11409
11751
12224
12588
12397
12600
12604
12697
12782
12671
12811
12933
12967
13294
13370
13750
13399
13932
13755
14472
14429
14282
13556
13754
13268
12827
12181
11852
11332
11654
12389
12589
12752
12159
12224
12018
12504
12048
11879
11970
12492
13120
13098
12891
13115
12569
13557
13664
13408
12910
13546
13303
14008
13714
13644
14191
13697
13889
13834
12898
12460
14242
14406
14361
13999
14126
15978
16039
16471
15846
12383
11952
14440
14610
13392
13157
13844
12727
13751
14727
15049
14592
14236
13042
12905
13054
13431
12462
13186
15269
16113
15792
13072
13324
12595
14467
12876
12644
13805
14549
13657
12231
12062
12648
12168
13477
13319
13037
12335
12349
11044
12512
13640
15021
15292
13331
11869
12147
12270
11476
13448
15689
14131
15645
13273
10798
12924
11877
13752
14627
15816
15978
13993
12868
11691
14619
13477
12575
12982
14633
15495
18410
17810
14561
12066
11268
13758
14078
14242
14287
14214
14063
13246
13626
14520
15401
16230
14293
15774
14728
12920
13527
15334
15961
15823
14905
16948
16213
16522
14153
13543
13841
14733
14980
14491
13634
14634
15470
10976
10513
12067
12483
13821
14682
14922
16418
15304
13567
15562
15114
10085
10479
12333
13084
14198
14621
14547
12798
12928
13083
11574
12839
13326
11506
13311
14353
13482
12362
12909
12376
12881
12279
12564
12889
14886
15346
17312
16731
13429
10112
11452
13038
13326
14661
15094
15721
11037
11573
13176
13739
14039
14952
16869
15216
13999
12486
12465
13954
14121
13759
15108
16181
15068
15510
15754
14854
12994
12912
13794
13753
14336
13354
12654
12416
12325
12312
11140
11730
11612
12717
13362
14178
12361
12765
12536
12238
11505
11684
12465
13338
12313
13340
12723
12090
12521
13265
12465
12992
12805
13296
14097
12966
12058
11974
12577
12487
13567
14457
13827
12751
14064
15490
15848
14723
10708
11056
12123
14315
13133
13017
12647
13217
13485
14375
14926
11846
13881
15390
12990
12561
13952
14851
15004
12628
13152
15847
15886
15903
14292
15648
16275
12739
13718
14445
12586
14405
13103
11536
13386
15116
12654
10565
12952
12901
12412
14213
12834
12858
13092
12926
13168
11808
12424
13001
12934
13589
12903
13123
11949
11923
12802
13285
12736
12023
13016
14294
13151
12490
12791
12834
11954
11666
13780
11808
12140
11326
14017
13301
14712
12869
10431
11769
10571
12210
14562
14302
18444
14623
6124
7856
8874
11388
16405
15721
14962
13564
10918
12278
9270
16332
12250
12381
11787
14871
11958
12832
15300
13403
11639
11961
12788
12283
14209
11607
12095
9022
10458
12467
12165
9813
12204
12311
13351
11525
11983
10600
12936
14656
10675
11343
12305
13536
13402
11928
14906
11427
10780
11256
11157
12854
13314
15308
15360
12499
10875
12597
11490
13723
13550
13031
14863
14222
13023
11927
14185
15111
15420
15754
13964
12221
11997
12441
13378
13336
13994
13485
13332
13063
13056
12905
12508
12333
13720
14547
14278
14260
13898
14199
14117
14414
14728
15082
14770
15015
14564
14513
14258
14177
13826
13886
13950
14011
14006
13709
13679
13254
13178
13088
13282
12898
13213
13147
13462
13185
13400
13194
13373
13224
13274
13157
12815
12563
11874
11738
11285
11367
11109
11628
11605
12103
12157
12790
12722
13137
12884
12880
12837
13049
13232
13669
13901
14674
15444
16634
16540
15269
11602
11437
12692
13350
13934
13761
14149
13845
14165
13920
14178
13815
13978
13633
13639
13457
13300
13233
13215
13466
13559
14146
14329
14960
14968
15546
15328
15641
15270
15342
14762
14575
14023
13920
13696
13666
13667
13623
13817
13646
13911
13667
13913
13598
13919
13569
13859
13485
13710
13375
13600
13404
13526
13360
13410
13535
13413
13502
13338
13685
13475
13889
13655
14140
13863
14245
13976
14344
13902
14231
13923
14319
13915
14363
14328
15350
16589
17298
16237
11907
11478
12455
13485
13643
14163
14081
14466
14090
14414
13920
14229
13936
14266
13971
14254
14049
14352
14418
14603
14868
15013
15429
15364
15722
15338
15545
14925
15057
14304
14252
13368
13289
12621
12551
12124
12141
11960
11918
11984
11855
12079
11918
12285
11985
12375
11993
12439
12033
12418
12070
12401
12070
12317
12102
12163
12007
11879
11944
11843
11954
12299
12276
12348
12458
12330
12423
12084
12263
11867
12267
11930
12351
12113
12760
13188
15512
16856
16601
11458
10597
11416
12250
12661
12674
12971
12717
13044
12789
13226
12895
13380
13018
13542
13272
13690
13528
13940
13911
14246
14451
14678
14876
14809
15004
14664
14844
14301
14479
13761
13820
13115
13305
12764
13018
12632
12797
12669
12900
12955
12944
13076
12910
13191
12882
13166
12764
13158
12772
13185
12816
13232
12813
13179
12746
13126
12804
13225
12913
13377
13160
13424
13265
13367
13222
13069
13043
12843
13095
12867
13255
12981
13443
14095
16574
17172
17099
11659
10993
11739
12861
13033
13247
13419
13415
13528
13384
13687
13420
13840
13602
14114
13745
14300
14046
14613
14423
14945
14902
15282
15302
15430
15435
15289
15234
14861
14940
14295
14357
13642
13734
13026
13275
12697
12968
12531
12797
12638
12903
12844
12961
13058
12975
13149
12887
13191
12824
13179
13132
13303
13121
13357
13108
13547
13124
13595
13183
13531
13012
13266
12810
13073
12859
13137
13074
13322
13597
14535
16360
16603
16640
12327
11117
11687
12955
12960
13491
13225
13689
13450
13795
13645
13890
13866
13989
14153
14152
14395
14290
14675
14426
14951
14693
15287
15021
15449
15011
15290
14809
14887
14370
14212
13758
13401
13171
12823
12858
12461
12691
12409
12862
12461
12974
12579
12989
12569
12996
12745
13022
12804
13088
12670
12954
12584
12828
12635
12925
12880
12908
13042
12876
12957
12633
12869
12461
12898
12523
13054
12734
13323
13458
15155
16260
16257
14509
10664
11088
11863
12575
12719
13040
12966
13408
13169
13683
13357
13941
13682
14134
13791
14219
14044
14442
14363
14651
14811
15035
15377
15329
15594
15238
15440
14877
15027
14335
14422
13617
13715
13094
13265
12798
12922
12716
12727
12675
12633
12755
12612
12898
12580
12928
12536
12952
12788
13030
12695
13024
12572
13005
12637
13098
12758
13264
12858
13110
12730
12946
12753
12882
12873
12885
13034
13067
13771
14801
16571
16150
15192
10822
11511
11813
12832
12749
13279
13115
13404
13316
13474
13550
13609
13796
13629
13923
13750
14238
13937
14430
14157
14717
14466
15046
14810
15182
14791
14877
14559
14417
14110
13663
13500
13010
13041
12617
12874
12438
12845
12423
12832
12438
12826
12516
12820
12570
12762
12634
12707
12628
13094
12822
13016
12817
12887
12867
12861
13133
13086
13338
13087
13480
13060
13410
12918
13231
12802
13187
12847
13219
13175
13542
14420
16373
17134
16728
12627
11228
12174
12489
13171
12903
13464
13157
13684
13371
13833
13556
13925
13739
14005
13928
13919
14000
14031
14326
14220
14669
14531
15071
14742
15185
14716
15040
14468
14586
13843
13699
13126
13084
12898
12826
12828
12599
12778
12537
12897
12612
13035
12662
13074
12635
13057
12807
13279
12852
13263
12768
13175
12720
13093
12679
12879
12631
12797
12820
12953
13050
12854
13126
12933
13192
12772
13100
12652
13073
12595
13012
12680
13165
13194
14228
15377
15854
14481
10580
10668
11487
12551
12527
13013
12762
13186
12919
13385
13031
13553
13360
13758
13487
13769
13658
13865
13949
14041
14402
14547
15091
15053
15440
15118
15453
15100
15373
14765
14805
14175
14167
13687
13626
13298
13293
13129
13017
13077
13028
12806
12854
12877
12971
13230
13135
13338
13194
13511
13054
13335
12842
13105
12524
12782
12337
12588
12415
12744
12656
12949
13026
13080
13300
13125
13360
13044
13265
12809
13253
12882
13239
13049
13804
14338
15932
16693
16358
12094
10862
11661
12280
12823
12713
13097
12846
13319
13060
13488
13162
13691
13478
13886
13602
13904
13747
14097
14123
14426
14625
14727
15129
15097
15363
15034
15283
14798
14907
14145
14098
13348
13317
12566
12772
12220
12511
12094
12465
12224
12854
12608
12754
12595
12367
12276
12293
12454
12372
12642
12267
12602
12306
12656
12160
12635
12286
12700
12469
12742
12691
13156
13122
13192
13398
13434
13562
13215
13382
13093
13448
13115
13548
13230
13754
13569
15221
16996
17825
16711
12042
10874
11759
12639
13072
13432
13478
13977
13619
14087
13759
14160
13807
14267
13953
14321
14063
14295
14244
14502
14625
14733
15062
14899
15274
15244
15542
15130
15272
15238
14937
13796
13300
12588
12736
12295
12772
12295
12684
12289
12617
12375
12679
12471
12695
12699
12697
12770
12753
12899
12667
12945
12614
13021
12545
12934
12507
12846
12518
12832
12506
12665
12507
12669
12795
12878
13071
13155
13618
13004
13212
12725
13147
12694
12967
12569
13046
12795
13242
13149
13367
14702
17058
17469
16220
11422
10469
11741
12211
13087
12932
13571
13195
13668
13297
13588
13337
13783
13536
13773
13517
13889
13547
14054
14044
14309
14376
14743
14886
14919
15073
14784
15040
14490
14472
13657
13629
12808
12792
12284
12658
12110
12314
12123
12311
12136
12227
12332
12350
12540
12316
12686
12438
12831
12543
13006
12539
12848
12431
12813
12496
12814
12657
12780
12728
12881
12963
12795
12984
12632
13022
12633
13017
12735
13210
13010
13504
13088
13494
13212
13444
13294
13332
13167
13184
13355
13150
13496
13350
13720
14489
17034
17795
16955
12080
11952
12060
12975
12858
13401
13099
13601
13225
13646
13307
13574
13443
13535
13495
13635
13798
13803
14063
13878
14405
14218
14826
14584
15098
14749
15082
14642
14788
14374
14106
13569
13269
12901
12531
12514
12178
12428
12023
12349
11990
12473
11992
12375
12054
12495
12248
12635
12432
12697
12569
12714
12754
12743
12893
12708
13056
12831
13097
12696
13070
12639
13113
12714
13132
12814
13160
13053
13338
13354
13415
13532
13601
13346
13615
13370
13429
13522
13523
13761
13531
13837
13392
13674
13175
13585
13177
13463
12997
13329
13064
13462
13497
14002
14653
16396
18009
17252
13553
11775
12538
12675
13255
12907
13403
13057
13610
13259
13636
13359
13654
13533
13728
13681
13864
14026
14012
14320
14143
14633
14429
14981
14719
15279
14944
15292
14861
15054
14439
14231
13640
13403
13009
12812
12729
12461
12675
12375
12861
12425
12779
12390
12892
12489
12923
12629
13091
12670
13088
12637
13057
12682
13026
12653
12988
12834
13116
13047
13110
13266
13106
13261
12949
13195
12887
13400
13026
13321
12852
13262
12952
13294
12930
13135
12991
13201
13165
13081
13156
13031
13334
13051
13410
13049
13566
13248
13861
13531
13854
13548
13884
13511
13578
13234
13207
13034
12861
13047
12937
13400
13219
14122
15035
17697
17528
15480
11676
12116
12361
13046
12971
13296
13293
13492
13536
13581
13807
13725
13838
14017
14106
14120
14208
14145
14459
14277
14806
14527
15204
15052
15685
15356
15825
15556
15730
15339
15113
14494
14092
13541
13071
12957
12481
12472
12063
12332
11949
12366
11949
12364
12036
12384
12086
12487
12262
12444
12377
12342
12483
12406
12574
12433
12600
12360
12681
12344
12743
12466
12892
12535
12870
12525
12857
12655
12839
12829
12803
12876
12729
12976
12809
13059
12747
13071
12669
13077
12759
13243
12786
13098
12856
13194
12958
13210
12816
13189
13074
13584
13503
13661
13529
13566
13621
13430
13530
13163
13374
13082
13467
13250
13753
14170
15877
17507
17885
14862
11889
11872
12672
13059
13188
13375
13320
13565
13346
13624
13299
13739
13360
13801
13409
13889
13581
14003
13857
14247
14206
14572
14703
14890
15180
15236
15483
15132
15352
14858
14860
14124
14051
13149
13156
12571
12723
12460
12650
12443
12550
12564
12451
12666
12400
12689
12455
12872
12520
12883
13117
12955
13145
12831
13149
12748
13123
12671
13024
12670
12961
12723
13043
12856
13035
13017
12981
13049
12836
13107
12842
13167
12864
13263
12918
13308
12936
13330
12953
13282
13040
13336
13073
13314
13312
13099
13189
13114
13398
13302
13735
13415
13845
13374
13802
13403
13742
13290
13405
13121
13390
13252
13516
13884
14714
16549
17760
17464
12918
11926
12144
13199
12864
13312
13026
13388
13031
13482
13248
13432
13361
13541
13464
13879
13727
13943
13830
14018
14180
14411
14641
14709
15163
14991
15486
15092
15376
14730
14818
14057
14018
13257
13220
12699
12624
12348
12286
12230
12096
12240
11955
12272
12003
12367
12044
12556
12236
12705
12361
12648
12444
12766
12400
12584
12493
12550
12674
12630
12828
12686
12936
12564
12947
12430
12816
12386
12780
12601
12883
12622
12939
12929
13073
12995
13080
13180
13034
13322
13027
13288
13008
13434
12967
13307
13059
13643
13421
13867
13599
13879
13605
13969
13614
13864
13468
13621
13540
13782
13767
13896
14669
15633
17808
17562
15236
11340
11962
12323
13341
13168
13618
13341
13869
13640
13907
13782
13914
13872
13875
14018
13913
14143
13954
14334
14098
14657
14564
15067
14896
15390
15249
15635
15504
15452
15090
14961
14572
14023
13766
13182
13243
12727
12860
12532
12826
12342
12710
12388
12806
12501
12779
12582
12699
12685
12766
12891
12690
12891
12876
12825
12887
12858
12746
12977
12636
12920
12620
13046
12628
13014
12671
13082
12724
13031
12663
12977
12825
12947
12905
13001
13031
12989
13146
12909
13015
12804
13047
12831
13315
12964
13401
12983
13263
12982
13190
12927
12966
12915
13014
13186
13235
13756
14441
16595
17613
17486
12971
11475
11694
12886
12921
13345
13227
13566
13462
13599
13629
13612
13684
13524
13729
13526
13923
13683
14150
13866
14421
14304
14893
14813
15317
15227
15810
15314
15679
15200
15194
14420
14240
13690
13392
13035
12715
12680
12405
12589
12270
12641
12265
12593
12194
12602
12241
12617
12358
12625
12493
12699
12597
12697
12663
12664
12910
12676
12952
12680
12953
12647
12996
12607
13019
12678
12962
12673
12966
12834
13047
12880
12983
13062
13002
13137
13052
13353
13199
13670
13328
13580
13238
13619
13297
13525
13120
13267
13038
13226
13090
13395
13560
14501
16495
17889
17724
13509
11251
12009
12910
12993
13255
13095
13394
13032
13480
13046
13453
13139
13573
13285
13637
13401
13666
13750
13902
14169
14250
14614
14623
15185
15028
15455
15004
15411
14790
14898
14237
14045
13298
13151
12653
12608
12488
12394
12354
12213
12388
12161
12568
12301
12793
12510
12896
12494
12964
12677
13061
12705
12986
12742
12820
12709
12700
12759
12638
12898
12772
13072
12721
13104
12779
13160
12818
13191
12892
13383
12926
12987
12927
13277
13225
13695
13503
13667
13411
13578
13543
13441
13401
13137
13223
13060
13411
13231
13591
14167
16533
17733
17550
13172
11110
11527
12596
12971
13180
13252
13368
13356
13221
13437
13187
13595
13324
13702
13301
13795
13526
13969
13687
14148
13963
14470
14566
14882
15076
15155
15234
14928
15056
14429
14497
13753
13673
12918
13017
12405
12620
12197
12468
12097
12280
12149
12356
12355
12470
12686
12654
12936
12711
13025
12754
13042
12662
13060
12769
13132
12795
13213
12768
13140
12713
13109
12807
13125
12818
12980
13047
13025
13015
13028
13264
13247
13563
13371
13740
13363
13694
13244
13497
13122
13490
13219
13428
13177
13415
13421
14267
16198
18140
18164
14773
11273
11367
12590
12865
13446
13156
13670
13213
13651
13516
13750
13531
13826
13806
13746
13873
13715
14022
13891
14429
14320
15006
14859
15473
15220
15689
15315
15478
15116
15056
14535
14268
13865
13393
13146
12800
12528
12556
12532
12489
12688
12556
12733
12440
12850
12590
13079
12716
12979
12712
13207
12727
13052
12779
13056
12883
13114
13102
13030
13136
12910
13118
12971
13299
12901
13304
12844
13090
12659
13047
12785
13300
13139
13396
13293
13380
13312
13114
13145
12890
13014
12720
13096
12817
13301
13051
14082
15572
18109
18061
15641
10860
11333
11909
12642
12818
12876
12982
12937
13290
13085
13254
12965
13349
13170
13657
13256
13692
13623
14260
14027
14549
14445
15053
14879
15328
15084
15244
14969
14932
14659
14494
14083
13618
13410
12903
13076
12496
12743
12303
12518
12253
12627
12201
12644
12372
12726
12598
12730
12636
12663
12801
12558
12849
12673
13083
12599
13050
12752
13136
12747
13004
12601
13157
12880
12899
12938
13136
13022
13173
13522
13115
13390
13258
13335
12983
13377
12886
13436
13144
13342
13139
13595
13576
14066
15925
18751
19239
16404
11429
11416
12337
13142
13215
13319
13540
13426
13658
13480
13706
13378
13709
13268
13733
13401
13865
13597
14056
13914
14231
14544
14788
14893
14922
15067
14970
15169
14661
14804
14194
14115
13174
13303
12563
12809
12262
12494
11977
12332
12250
12364
12327
12367
12570
12426
12831
12523
12825
12610
12985
12553
13070
12675
13044
12713
12973
12870
13095
12919
12755
12756
12669
13007
12795
13057
12796
13202
12851
13063
12584
13049
12793
13065
12782
13263
12988
13262
13831
16671
18367
18353
13737
10673
11179
11794
12396
12541
12908
12827
13122
12834
13122
12829
13351
13109
13524
13295
13788
13584
13989
13820
14118
14290
14595
14924
14982
15237
14870
15115
14728
14724
14255
14148
13434
13412
12625
12757
12262
12294
12064
12159
12140
12276
12469
12466
12662
12438
12924
12590
12935
12621
13097
12757
13048
12732
12986
12756
12929
12892
12829
12892
12817
12979
12796
12921
12673
13151
13184
13405
13355
13562
13212
13548
13096
13392
13047
13440
13174
13565
13274
13663
14045
16140
18539
19035
16333
11474
11676
12220
12946
12978
13476
13135
13621
13265
13787
13432
13858
13610
13985
13776
14013
13942
14140
14380
14400
14493
14500
15044
15095
15496
15117
15637
15113
15441
14859
14928
14110
14023
13215
12873
12379
12119
12053
11994
12329
12162
12422
12189
12573
12216
12698
12348
12755
12390
12796
12504
12775
12490
12551
12331
12806
12427
12696
12454
12611
12447
12375
12299
12312
12527
12428
12795
12624
13051
12768
13189
12706
12999
12635
12972
12736
13046
12994
13309
13330
13184
13719
15240
18031
18707
16993
11780
11873
12094
12909
12620
13019
12628
12958
12668
12923
12794
13007
13007
13102
13247
13214
13534
13381
13840
13671
14225
14226
15060
15069
15666
15497
15838
15508
15645
15273
15079
14658
14204
13814
13426
13410
13002
13214
12823
13187
12916
13282
13107
13507
13264
13535
13209
13605
13240
13449
13071
13332
13170
13448
13280
13318
13281
13176
13343
13364
13726
13416
13407
12954
13260
13075
13470
13242
13513
13360
13649
13414
13568
13505
13605
13515
13371
13652
13583
13743
13636
13947
14500
16371
17091
16973
12043
11263
11749
12675
12824
13052
13041
13054
13056
12973
13190
13120
13415
13393
13871
13827
14410
14313
14663
14464
14832
14623
14835
14856
15231
15418
15228
15039
14794
14502
14282
13870
13602
13321
12979
12932
12553
12667
12315
12553
12178
12440
12100
12521
12391
12676
12374
12499
12330
12458
12462
12443
12539
12487
12677
12422
12650
12456
12796
12442
12759
12495
12798
12381
12559
12287
12437
12507
12732
12918
13110
13370
13155
13087
12674
12733
12193
12231
11639
11683
11306
11740
11525
12763
14014
15815
15901
12561
9643
10394
11455
11857
12177
12082
12423
12131
12469
12310
12940
12929
13577
13620
14347
14363
14953
14820
15293
15252
15751
15756
16166
16272
16410
16347
16194
16144
15695
15603
14981
14872
14155
14106
13508
13672
13226
13488
13097
13290
13022
13072
12972
13003
12981
12908
13082
12929
13209
12976
13260
12909
13264
12866
13184
12803
13130
12894
13165
13005
13143
13119
13143
13145
13022
13230
12948
13165
12912
13298
12997
13339
13012
13364
12964
13214
12956
13204
12999
13106
13041
13098
13187
13669
14913
16688
17571
12616
11027
11741
12778
13025
13444
13187
13474
13061
13395
13014
13444
13155
13477
13220
13526
13375
13582
13651
13786
13995
13974
14303
14326
14853
14677
15034
14648
14973
14544
14704
14117
14044
13443
13352
12929
12854
12629
12503
12581
12419
12602
12105
11958
11355
11628
11228
11546
11110
11498
11266
11613
11444
11730
11610
11713
11701
11704
11911
11792
12057
11927
12513
12698
12171
11183
11742
11731
12346
12291
12754
12513
12424
11965
12472
12301
12721
12519
12838
12970
13214
13350
13927
15392
17282
18328
15342
11181
11225
12418
12730
13333
13082
13515
13203
13629
13480
13722
13605
13708
13879
13982
14310
14361
14831
14733
15274
15022
15505
15291
15927
15563
15888
15369
15379
14992
14954
14539
14131
13734
13300
13283
12906
13091
12615
12915
12516
12990
12537
12914
12497
12916
12662
12996
12869
13061
13061
13134
13229
13118
13280
12874
13050
12609
13047
12606
13213
13129
13569
13378
13811
13141
13550
13040
13466
13004
13369
13053
13443
13330
13653
13466
14620
16769
18018
18399
13020
11095
11662
12849
12829
13414
13107
13516
13212
13661
13438
13731
13598
13576
13492
13528
13834
13714
14103
14007
14481
14189
14837
14590
15211
14838
15405
15032
15383
14970
14967
14411
14109
13767
13372
13253
12820
13022
12580
12912
12441
12877
12434
12880
12466
12819
12354
12624
12285
12471
12331
12379
12413
12260
12225
12578
12476
12681
12822
12914
13173
13009
13228
12905
13279
12861
13304
12920
13478
12890
13257
12950
13247
13515
15295
17230
18462
15765
10955
11550
12051
12865
12742
13307
13039
13621
13258
13771
13408
13919
13660
14022
13872
14202
14170
14253
14437
14436
14861
14762
15291
15038
15520
15050
15278
14652
14890
14159
14095
13292
13157
12549
12438
12280
12121
12121
11906
12139
11945
12269
11955
12496
12171
12763
12289
12581
12060
12688
12418
12888
12517
13112
12749
13088
12754
13198
13071
13340
13239
13245
13308
13175
13327
13065
13446
13132
13704
13352
13975
13330
14423
15965
18685
19371
15637
11765
12086
12430
12758
12885
12747
13021
12670
13064
12699
13243
12889
13447
13110
13712
13443
13930
13747
14120
14035
14319
14524
14689
14989
14825
15097
14692
14941
14314
14445
13562
13590
12758
12943
12285
12504
12136
12319
12077
12233
12224
12129
12348
12140
12458
12403
12396
12389
12561
12401
12628
12282
12651
12191
12505
12005
12444
12044
12680
12446
12929
12747
13075
12893
12958
12914
12807
12924
12631
12989
12682
13155
12746
13139
13531
16254
18382
18968
13359
11835
12008
12780
12859
12996
13116
13033
13264
13198
13568
13305
13903
13525
14065
13628
14221
13815
14404
14143
14636
14518
14898
14934
15079
15117
14852
14943
14427
14569
13737
13817
12965
13141
12328
12694
12086
12459
12041
12351
11969
12581
12109
12631
12216
12653
12446
12719
12593
12625
12716
12641
12885
12600
12993
12567
13063
12539
13028
12541
13064
12592
13163
12936
13402
13195
13311
13206
13233
13293
13072
13302
12992
13438
13047
13612
13217
13903
14270
17057
18833
18497
12974
12171
12435
12960
13021
13117
13366
13177
13503
13194
13622
13216
13736
13298
13837
13357
13875
13463
13972
13778
14242
14301
14652
14807
14899
15168
14974
15252
14738
14949
14162
13910
13369
13375
12776
13049
12474
12893
12348
12883
12411
12887
12421
12828
12467
12762
12620
12719
12724
12685
12821
12591
12943
12629
13073
12569
13049
12534
13050
12551
13033
12542
12982
12631
13042
13007
13136
13155
13063
13292
13058
13395
12977
13373
12859
13407
13011
13542
13182
13598
13740
15626
18135
19152
15242
12047
12314
12730
13184
12963
13365
12931
13429
12945
13481
12976
13537
13129
13615
13267
13686
13514
13860
14005
14564
14387
14988
14879
15287
15229
15295
15252
14975
15016
14420
14385
13504
13583
12782
13060
12329
12763
12276
12757
12398
12741
12517
12755
12747
12772
12777
12590
12883
12572
12994
12504
12997
12525
13061
12629
13201
12762
13202
12857
13159
12900
12959
12860
12906
13147
13142
13479
13181
13558
13179
13702
13153
13579
12987
13397
12967
13384
13125
13462
13427
13765
14553
16519
18745
17962
13218
11774
12811
12964
13603
13191
13742
13437
13886
13457
13903
13443
13958
13488
14002
13616
14070
13794
14160
14113
14377
14527
14626
14957
14913
15223
14778
15085
14494
14684
13854
13941
13076
13188
12465
12673
12329
12496
12301
12366
12466
12381
12586
12331
12679
12308
12751
12330
12827
12386
12859
12421
12932
12624
13018
12651
12791
12634
12663
12689
12619
12883
12624
12929
12496
12922
12495
13038
12722
13285
12943
13427
13072
13443
13116
13233
13102
13015
13065
12914
13227
13356
13321
13966
15175
17224
18389
15143
11706
11560
12795
12827
13451
13081
13649
13308
13786
13491
13885
13667
13869
13820
13838
13927
13808
14076
13830
14327
14058
14680
14407
15072
14771
15286
14824
15155
14607
14643
14052
13824
13361
12999
12877
12547
12662
12211
12649
12305
12796
12264
12783
12420
12947
12485
12852
12501
12824
12671
12779
12696
12647
12771
12556
12851
12472
12931
12496
12962
12429
12858
12438
12937
12597
13079
12843
13466
13080
13574
13074
13401
12963
13155
12915
13079
13154
13156
13344
13009
14070
15346
17652
17804
14316
10507
11679
12142
13202
12944
13395
13200
13507
13383
13493
13514
13516
13775
13626
14002
13759
14308
13979
14502
14122
14745
14404
15046
14809
15220
14823
14973
14715
14587
14365
13899
13670
13056
13081
12431
12707
12080
12394
11886
12437
12038
12527
12186
12548
12294
12538
12439
12505
12586
12441
12633
12309
12643
12247
12510
12447
12689
12477
12942
12637
13156
12834
13414
12906
13335
12867
13274
12892
13271
12987
13239
13181
13339
13345
14303
16623
17831
18271
12829
11000
11569
12892
12889
13577
13277
13871
13517
13875
13703
13930
13880
14003
14192
14076
14418
14133
14589
14320
14933
14650
15383
15090
15711
15272
15666
15202
15387
14956
14805
14281
13761
13405
12879
12919
12406
12640
12141
12619
12076
12591
12117
12603
12134
12576
12291
12652
12481
12845
12457
12941
12537
12842
12544
12639
12596
12611
12713
12626
12983
12760
13265
12866
13323
12811
13257
12711
13196
12744
13178
12902
13257
13150
13489
14546
16943
19032
17366
12382
11475
12465
12522
13129
12731
13257
12795
13235
12833
13241
12972
13282
13156
13365
13462
13533
13709
13626
14057
13820
14423
14208
14827
14431
14973
14517
14741
13984
14031
13464
13238
12739
12490
12290
12040
12151
11944
12340
12052
12552
12202
12712
12573
13001
12758
13164
12762
13177
12672
13077
12593
13026
12647
12935
12651
12875
12749
12920
13034
12997
13254
13099
13389
12988
13358
12872
13272
12819
13283
12885
13319
13131
13315
13624
15496
18245
19386
15376
11987
12463
12782
13375
13104
13619
13221
13676
13187
13648
13261
13640
13339
13719
13616
13929
13957
14060
14222
14246
14665
14588
15154
14872
15314
14829
15232
14698
14975
14204
14147
13393
13291
12767
12646
12460
12344
12270
12656
12491
12653
12609
12666
12794
12624
12883
12592
12909
12443
12781
12326
12796
12296
12651
12241
12630
12360
12729
12707
12938
12984
12974
13064
12824
13023
12605
12934
12548
13017
12602
13121
12814
13176
13374
15140
17440
18920
15243
11688
11922
12431
12904
12767
13123
12809
13252
12920
13443
13048
13576
13127
13596
13318
13755
13593
13987
13994
14147
14278
14372
14685
14550
14880
14509
14836
14338
14631
13895
14018
13210
13239
12630
12925
12361
12776
12290
12734
12368
12787
12546
12848
12714
12785
12772
12699
12862
12674
12982
12696
13124
12786
13191
12644
13087
12656
13078
12802
13228
12957
13198
13030
13041
13039
12871
12913
12646
12894
12567
13010
12634
13159
12764
14011
15559
18537
18141
13209
11492
12337
12809
13036
13200
13174
13418
13119
13399
13077
13544
13088
13573
13213
13699
13363
13844
13632
14131
14093
14431
14586
14744
14885
14800
15016
14683
14714
14558
14304
13813
13610
13045
13157
12591
12945
12518
12962
12570
13112
12756
13161
12882
13195
12934
13077
12960
12953
13036
12869
13104
12801
13074
12632
12939
12443
12932
12578
13125
12874
13400
13150
13550
13389
13464
13334
13165
13095
12852
13077
12807
13188
12854
13310
13382
15313
17183
19146
16216
11684
11530
12489
12833
13068
13086
13081
13276
13152
13400
13089
13470
13121
13643
13298
13808
13426
13963
13741
14286
14221
14840
14583
15137
14798
15128
14744
14857
14440
14281
13869
13451
13217
12746
12808
12411
12683
12275
12716
12337
12822
12525
13020
12712
13158
12914
13181
13071
13186
13222
13195
13263
12980
13222
12822
13181
12920
13423
13081
13585
13187
13548
13107
13331
13032
13216
13111
13189
13198
13182
13384
13836
15803
17339
18547
15069
11125
11261
12452
12582
13225
13034
13484
13335
13573
13521
