13519
15549
16999
16797
14541
10696
11259
12479
12910
13445
13045
13520
13057
13534
13059
13519
13164
13584
13260
13611
13515
13719
13694
13748
13972
13977
14494
14360
14930
14554
15059
14602
14970
14365
14593
13949
13961
13257
13224
12771
12706
12570
12414
12475
12229
12423
12133
12520
12167
12678
12237
12768
12386
12833
12478
12861
12596
12825
12682
12822
12900
12818
12938
12641
12845
12452
12835
12440
12972
12664
13210
12788
13215
12885
13265
12864
13198
12641
13058
12686
13033
12796
13105
13144
13950
14696
16088
16951
14899
11250
11276
12575
12813
13482
13168
13727
13404
13869
13485
13895
13771
13987
13843
13988
14070
14039
14315
14208
14659
14444
15048
14977
15580
15241
15753
15336
15692
15232
15364
14815
14538
13954
13672
13429
13071
13097
12719
12920
12481
12839
12405
12834
12385
12795
12428
12838
12584
12837
12536
12600
12441
12339
12296
12084
12291
11983
12286
12152
12331
12302
12544
12311
12678
12331
12726
12208
12575
12131
12677
12473
13034
12821
13147
12982
13289
13254
13314
13435
13323
13590
13369
13826
13470
14099
13780
14924
15096
17259
17060
15006
11678
12382
12937
13591
13793
13990
14116
14030
14371
13964
14378
13964
14430
13845
14359
13911
14483
14007
14525
14250
14773
14745
15064
15249
15468
15703
15546
15869
15437
15736
15078
15236
14351
14579
13736
13924
13217
13443
12977
13124
12721
13245
12772
13228
12831
13157
12894
13066
12984
12882
12951
12706
13020
12602
13062
12528
13150
12611
13248
12771
13408
12967
13442
13060
13387
13189
13316
13230
13089
13174
12800
13201
12836
13420
12904
13459
12934
13496
12930
13444
12879
13170
12712
12875
12666
12659
12711
12863
14196
14969
15774
14503
11817
9234
11082
11673
12926
12641
13202
12866
13231
13017
13206
13160
13243
13333
13192
13508
13356
13837
13448
14112
13869
14537
14475
15073
14812
15359
14948
15370
14800
15177
14576
14679
13824
13717
13137
13045
12648
12510
12555
12340
12553
12244
12641
12224
12732
12238
12750
12312
12905
12536
13028
12712
13027
12907
12983
12965
12913
12988
12882
13219
12822
13095
12698
13090
12495
12947
12467
12908
12543
13020
12747
12996
12796
12926
12925
12975
13236
13119
13396
13071
13581
13098
13514
13004
13405
12956
13476
13135
13490
13473
14047
14941
16068
16232
15237
11379
11638
12466
13353
13664
13583
13727
13522
13782
13357
13636
13262
13738
13185
13667
13258
13665
13232
13582
13478
13771
13992
14448
14735
14964
15408
15330
15695
15342
15667
14966
15102
14278
14269
13427
13516
12883
12999
12669
12746
12541
12525
12653
12598
12801
12531
13002
12667
13112
12821
13430
13029
13501
13003
13395
13074
13252
13000
13170
13108
13180
13247
13109
13291
13057
13248
12927
13344
13007
13609
13219
13595
13201
13589
13167
13486
12962
13242
12876
13320
13033
13244
13298
13593
14305
15217
16190
15859
14428
10996
11988
12376
13233
13088
13587
13351
13807
13452
13814
13592
13809
13706
13920
13905
13875
14049
14028
14359
14174
14639
14397
14980
14763
15241
14855
15179
14732
14929
14449
14397
13819
13489
13046
12643
12538
12129
12251
11870
12274
11888
12341
11848
12369
11980
12524
12271
12748
12498
12843
12758
12904
12962
12897
13113
12835
13214
13073
13070
13003
13102
12867
13187
12819
13238
12694
13179
12638
13144
12578
13029
12524
13027
12819
13222
13178
13388
13367
13310
13491
13180
13410
12882
13292
12816
13407
12936
13640
13321
14414
14603
16028
16057
15168
11552
12017
12840
13345
13753
13477
13925
13472
13885
13340
13863
13366
13889
13426
13907
13564
13985
13776
14092
14089
14243
14511
14602
15083
15019
15534
15169
15654
15129
15412
14681
14773
13903
13852
13159
13109
12472
12859
12376
12721
12316
12568
12310
12458
12432
12491
12602
12426
12655
12369
12785
12430
12914
12446
12911
12440
12967
12580
13021
12719
12997
12813
12972
12920
12973
13107
12882
13126
12790
13103
12627
13066
12607
13190
12819
13339
12959
13339
13106
13397
13189
13291
13199
13124
13273
13072
13401
13152
13706
13947
15226
16330
16899
13540
11828
12065
13136
13214
13616
13504
13595
13668
13680
13916
13744
14078
13747
14189
13725
14135
13982
14332
14115
14619
14374
15076
14838
15505
15226
15735
15366
15672
15273
15188
14667
14264
13781
13337
13249
12765
12925
12426
12771
12265
12756
12303
12756
12281
12677
12272
12628
12360
12546
12446
12430
12458
12447
12709
12462
12780
12359
12797
12345
12883
12433
12939
12510
12914
12559
12874
12617
12824
12745
12756
12854
12670
12901
12555
12997
12718
13343
12870
13364
12861
13331
12925
13303
12889
13052
12834
12995
12979
13258
13143
13738
14079
15127
16857
16814
13825
11571
12272
12595
13264
12900
13353
12927
13402
12970
13472
13137
13613
13242
13481
13327
13522
13563
13646
13894
13794
14326
14251
14910
14725
15415
15047
15576
15114
15520
14934
15019
14293
14088
13484
13170
12905
12617
12685
12357
12692
12317
12721
12264
12839
12345
12858
12428
12936
12591
12988
12753
12969
12880
12946
13020
12936
13163
12912
13294
12838
13326
12873
13369
12835
13326
12846
13345
12859
13342
12743
13200
12773
13343
13097
13530
13292
13558
13431
13457
13459
13305
13484
13086
13454
13000
13486
13018
13675
13626
14724
15628
17083
15735
12076
11267
12255
12868
13071
13223
13097
13372
13062
13456
13073
13596
13140
13707
13305
13876
13536
14076
13833
14293
14348
14720
14951
15126
15432
15404
15792
15467
15783
15148
15372
14502
14563
13628
13655
12895
13027
12593
12708
12437
12505
12474
12427
12643
12431
12525
12667
12592
12454
12623
12472
12774
12395
12853
12456
12942
12388
12905
12477
12933
12553
12963
12713
12954
12791
12938
13001
12907
13036
12678
13093
12737
13350
13007
13553
13043
13597
13093
13500
13062
13330
12953
13104
12969
13042
13158
13159
13583
14233
15786
16366
16333
12018
11015
11573
12981
12985
13462
13118
13511
13300
13520
13418
13431
13623
13466
13762
13486
13974
13620
14181
13849
14503
14253
15002
14817
15475
15326
15761
15400
15851
15232
15374
14719
14646
13946
13673
13238
12884
12832
12486
12674
12285
12630
12250
12725
12261
12783
12392
12910
12503
12965
12665
12945
12759
12853
12754
12679
12824
12553
12881
12519
12921
12515
13009
12601
13220
12792
13317
12986
13402
13079
13307
13048
13054
13066
12953
13116
12910
13277
13050
13853
14693
16813
16268
15629
10626
10575
11424
12753
12966
13334
13329
13571
13641
13476
13693
13456
13889
13395
13910
13518
13967
13813
14246
13978
14663
14370
15086
14742
15418
15007
15488
14964
15253
14824
14771
14303
13930
13524
13014
13011
12427
12677
12163
12624
12031
12568
11996
12568
12067
12568
12251
12618
12408
12611
12545
12516
12605
12339
12654
12257
12697
12312
12824
12392
13074
12711
13254
12885
13258
12838
13043
12767
12851
12836
12818
12955
12760
13113
12846
14121
14968
16874
16199
14213
9885
11251
11770
12895
12885
13246
13207
13410
13498
13700
13484
13832
13694
13800
13845
13899
14186
13928
14368
14220
14910
14645
15408
15143
15789
15311
15797
15251
15461
14917
14812
14188
13816
13480
13038
12951
12531
12815
12302
12763
12262
12831
12274
12827
12329
12825
12511
12923
12660
12861
12761
12796
12832
12678
12975
12676
13209
12861
13386
12926
13552
13017
13486
12988
13357
12923
13207
13001
13145
13070
13141
13430
13904
15356
16403
17018
14832
11041
10977
12318
12384
13144
14466
14918
14510
14487
14206
14086
14142
13921
14211
13831
14330
13976
14568
14231
14918
14504
15047
14595
14958
14513
14561
13993
13654
13188
12712
12503
12097
12283
11831
12197
11705
12242
11851
12473
12029
12480
12125
12574
12331
12715
12621
12722
12700
12514
12690
12509
12858
12534
13023
12628
13214
12756
13255
12754
13229
12731
13071
12772
13034
12985
13089
13199
13174
13888
14331
16201
16915
16430
11662
12162
12290
13314
13023
13587
13166
13747
13238
13827
13320
13833
13425
13826
13506
13774
13730
13897
14028
13950
14400
14321
15010
14755
15409
14899
15445
14910
15345
14609
14711
13909
13883
13278
13176
12910
12783
12811
12553
12811
12398
12854
12408
12934
12438
12980
12460
12974
12491
12958
12588
12841
12608
12731
12663
12624
12879
12757
13110
12678
13104
12586
13062
12520
12966
12396
12861
12429
12894
12653
13062
13105
13842
14552
16112
17251
14902
11843
12407
13059
13223
13378
13180
13560
13247
13695
13288
13819
13390
13901
13433
13919
13581
14000
13837
14186
14234
14440
14646
14725
15112
14968
15293
14912
15310
14728
14812
13862
13873
13071
13176
12541
12681
12271
12406
12268
12266
12370
12255
12508
12252
12587
12148
12641
12217
12652
12202
12722
12327
12702
12354
12731
12524
12801
12910
13065
13246
13088
13346
12928
13255
12752
13119
12635
13089
12604
13077
12647
13167
13029
13806
14708
17535
16266
12434
11630
12558
12809
13091
13031
13164
13231
13163
13367
13196
13483
13219
13604
13302
13652
13396
13867
13639
14192
14091
14550
14570
14978
14959
14989
15159
14850
15087
14522
14644
13807
13875
13053
13252
12617
12932
12480
12675
12381
12572
12456
12578
12661
12581
12784
12566
12905
12552
13038
12643
13132
12739
13149
12735
13082
12734
13028
12788
12957
12861
12792
12831
12755
13041
12949
13354
13008
13436
13001
13451
13102
13391
12898
13313
12930
13389
12932
13411
13114
13687
13855
15290
16758
16811
13012
11428
12203
12743
13275
13049
13461
13058
13523
13042
13559
13148
13714
13362
13814
13544
13916
13845
14111
14171
14373
14692
14707
15202
15065
15587
15177
15584
14932
15286
14476
14543
13717
13675
12987
12957
12592
12612
12566
12533
12644
12447
12770
12370
12807
12377
12933
12429
12923
12478
12989
12607
13036
12789
13040
12917
13005
13081
13005
12998
13369
13295
13470
13498
13378
13429
13223
13607
13330
13901
13430
13861
13288
13737
13179
13505
13065
13318
13025
13224
13092
13194
13316
13277
13740
13620
14786
15657
15737
12059
12621
13252
14337
13890
14245
14063
14405
14048
14081
14064
14281
14442
14164
14292
13969
14270
13901
14375
13952
14530
14237
14853
14609
15203
15010
15420
15227
15319
15134
14920
14792
14212
14153
13478
13627
12948
13263
12461
12725
11980
12081
11673
12443
12091
12616
12095
12592
12233
12697
12246
12160
11581
11405
10942
8903
6274
4647
4553
4349
4461
2513
1886
1129
1708
1489
2485
4296
6606
7591
8820
10524
12242
13158
13522
14031
14039
14780
14737
15745
15678
16794
16766
17342
16905
17547
18125
19803
19928
19640
15422
13703
13817
13965
14290
13728
13939
14220
14305
11311
10282
9156
9119
10615
12920
13589
14597
14896
15149
14799
14142
14359
14419
14660
14939
16024
16276
16857
16468
16947
16688
16973
16496
16542
15608
15789
15267
15463
14852
14908
14221
14181
13749
13649
13196
12727
12548
11959
12155
11835
12094
11612
11739
11083
10999
10032
10238
9193
8503
7833
8533
9260
10305
11245
12109
12984
12944
13450
13477
14289
14345
13253
11514
11494
11238
11869
11600
12131
12193
12705
13015
13507
12420
9975
10178
10867
11314
10083
7516
5753
8141
9357
11102
11510
12376
12360
13007
13281
13917
14253
14777
15488
16044
18217
20160
21317
22291
22987
23239
23559
23326
23918
23834
24536
24284
24849
24166
24357
23231
22815
21584
20973
19764
19127
18369
17840
17563
17082
17132
16434
16417
15418
15165
14088
14073
13065
13076
12371
12600
12053
12133
11817
11925
11760
11743
12066
12033
12410
12200
12805
12486
12951
12588
13050
12704
13156
12694
13149
12984
13330
13249
13211
12507
11752
11514
11059
11070
10505
10251
7688
7133
6554
7414
8203
10071
9676
9526
4874
6534
7282
8663
8678
9168
8994
9320
9304
9501
10101
11521
12752
13000
13730
13698
14541
14330
15302
15129
16382
16709
17694
16509
13453
12611
16066
16545
16060
15613
14841
14466
13462
13229
12210
12299
11424
11857
11208
11664
11941
15503
17155
18441
18652
19134
19283
19359
18919
17631
17437
17514
19016
19041
19667
18907
18957
18029
17921
16847
16755
16141
16077
15670
15505
15268
15078
15063
14625
14748
14225
14370
13780
14070
13366
13400
12869
12902
12260
13029
12611
13758
13693
14981
14914
15658
16020
16385
14680
10509
10492
10993
11608
11417
11803
11494
12094
11648
12216
11487
11893
10628
10464
9087
10623
11422
11793
11692
12257
12890
13301
13996
13864
14229
13940
14385
13962
14349
13607
13780
12887
12805
12089
12171
11691
11745
11694
11968
12162
12089
12344
12111
12579
12415
13005
12598
13317
12812
13117
12090
12331
12038
12479
12507
13226
13928
14450
14498
14247
13678
13463
12966
12590
12227
11763
11930
11521
11641
11306
12100
12231
13651
14468
16035
16207
16765
16196
16224
15764
15562
15261
15070
14988
14627
14684
14293
14903
14924
16530
17141
17595
13916
14599
14953
16354
16675
17737
18166
18720
18568
17778
17002
15813
15200
13876
13484
12213
12242
11485
11657
10861
11217
10869
11589
11724
12451
12835
13361
13845
14190
14711
14609
14860
14663
15448
15707
17326
18679
21157
23158
25918
26185
26230
26251
26265
26272
26279
26282
26284
26290
26290
26288
26290
26291
26286
26284
26279
26279
26270
26262
26247
26219
26173
26018
23826
22372
20862
19911
18542
17803
17010
16145
15594
15081
14159
12178
10993
9258
8780
7020
6059
4252
3674
2170
1517
264
11
11
11
8
9
8
8
8
9
9
6
10
9
7
5
10
8
10
10
8
7
8
12
12
46
2564
5054
6215
7911
8666
10024
10785
12135
12915
14486
15874
17852
20151
22368
24510
25961
26150
26196
26226
26249
26256
26261
26267
26266
26269
26264
26269
26270
26270
26269
26267
26259
26257
26243
26233
26201
26157
25910
24226
22855
21885
21190
20012
19389
17971
17221
15854
15266
13803
12789
10563
8899
6586
4814
2449
431
11
9
10
9
8
9
11
5
5
6
11
6
10
8
9
9
8
9
5
10
8
9
8
9
10
8
10
8
10
11
11
9
9
11
9
23
2096
3633
4997
5567
6832
7361
8567
8932
10072
10481
11557
12109
13242
13850
14863
15568
16640
17766
19333
21145
22714
23416
24075
24533
24819
25113
24870
24998
24579
25174
25235
25385
24249
23939
23002
22926
22156
21981
21351
21085
20548
20058
19657
19094
18724
17958
17716
16973
17066
16269
16246
15429
15645
15156
15446
15854
17221
17820
18488
19039
19509
19987
20203
20894
21038
21670
21641
22339
22096
22536
22152
22515
22064
22194
21709
21667
21309
21369
21208
20988
20793
20376
20328
19687
19654
19144
19560
18731
18474
17580
17386
16696
17382
17514
18615
18269
15179
13525
14363
14302
14266
13577
13183
12942
12818
12858
11926
10140
7609
6356
4935
3967
3008
4543
5299
6696
7257
8203
8600
9339
9721
10193
10509
10448
10658
10425
10571
10006
10249
9877
10499
10364
11246
11388
12245
12156
12523
12274
12252
11974
11905
11999
11752
11868
11615
11940
11623
12239
11791
12132
11739
11887
11381
11622
11032
11069
10750
10909
10940
10913
10891
10496
10679
10754
11346
11046
11482
11218
11796
11657
12121
11841
12305
11918
12363
12088
12546
12334
12761
12555
12902
12662
12929
13072
13173
13178
12937
13522
13402
13813
13332
14113
14403
15980
16478
17092
16219
12713
10988
11645
11822
12122
12072
12068
12141
11874
11969
11426
11586
10879
11127
10418
10797
10442
11031
10784
13119
16238
18635
18579
17295
16101
15252
14839
14126
13918
12995
12895
11754
11589
10780
11200
10826
11209
10874
10807
10268
10236
10036
9972
10045
9941
10088
10498
10574
10806
10943
11066
11398
11378
11703
11530
12145
11875
12123
11522
11819
11376
11716
11407
11650
11787
12596
13402
14120
14161
13695
13528
13000
13063
12648
13070
12741
13188
12904
13269
12738
12772
12321
12604
12559
12926
13229
13662
14174
14349
14678
14356
14630
14267
14652
14287
14808
14742
15741
15886
17080
17481
16729
13486
14149
14959
15425
15614
15446
15708
15317
15490
15138
15559
15216
15558
14858
14940
14336
14206
13607
13774
12276
11390
10890
11605
11534
11860
11888
12226
12407
12586
12746
12646
12787
12293
12501
12076
12637
12686
13664
13849
14857
15140
15961
16183
16695
16861
17200
17398
17513
17788
17721
18025
17753
18109
17684
18039
17586
17774
17240
17513
17108
17276
16763
16503
16221
16252
16227
16231
16541
16584
17204
17479
18445
18724
19759
19985
20743
20643
21361
21315
21895
21989
22237
22228
22299
22375
22366
22489
22043
22018
21558
21344
20985
20842
20414
20907
20761
21655
21297
20138
15480
14878
14143
13927
12668
11930
10620
9678
8404
7325
6454
5503
4742
3719
4008
2956
236
9
9
11
10
7
6
8
9
8
11
7
10
9
6
8
8
9
9
9
8
8
7
7
6
11
8
9
9
11
10
13
1611
2268
2964
2800
3655
3675
4974
5308
6276
6232
6502
6505
6920
7243
7653
8148
8354
8872
8775
9347
9224
9607
9265
9643
9552
10432
10422
11147
11317
11854
11941
12363
12671
12766
13318
13604
14298
14699
15095
15440
15919
16133
16659
16341
16889
17046
18342
18969
20119
19854
16721
15655
16727
17235
17968
18045
18255
18540
18584
18739
18536
18730
18277
18522
18101
18519
18005
18401
18045
18627
18591
19199
19145
19496
19494
19514
19496
19409
19486
19108
19146
18384
18263
17286
17341
16593
16778
16280
16581
16112
16251
16001
16089
15989
15819
15752
15471
15637
15248
15495
15068
15404
14956
15308
14837
15169
14780
15108
14805
14837
14404
14930
14663
15038
14618
14802
14638
14689
14611
14556
14184
14012
14641
14461
14815
14451
14852
14443
14793
14448
14761
14273
14539
14243
14475
14305
14415
14417
14553
14712
15426
16842
17111
17319
14199
12318
12757
13839
13821
14261
13922
14305
13974
14174
14081
14369
14609
14884
15407
15564
16178
16070
16441
15658
15843
15296
16251
16009
16946
16772
17250
16900
17039
16670
16578
16299
15858
15633
14926
14939
14186
14599
14045
14574
14142
14425
13928
14234
13519
13892
13238
13662
13031
13493
13000
13380
12994
13181
13001
12987
12908
12778
12956
12673
12962
12508
12938
12328
12791
12297
12798
12204
12608
12159
12588
12250
12449
12191
12110
12156
12051
12507
12314
12814
12359
12840
12368
12957
12453
12983
12439
12965
12599
13091
13000
13417
13643
14450
15902
17225
17225
13135
12285
12341
13293
12966
13401
12866
13286
12740
13094
12856
13235
13074
13309
13356
13407
13541
14089
14002
14292
14389
14648
14983
15102
15564
15382
15748
15281
15661
15037
15299
14424
14377
13472
13496
12839
12995
12615
12621
12502
12480
12660
12485
12831
12553
13066
12719
13391
13099
13693
13192
13617
13070
13306
12925
13181
12897
12933
12810
12657
12722
12499
12699
12206
12516
11976
12393
11886
12356
11944
12452
12126
12559
12275
12504
12423
12536
12680
12711
12917
12619
12936
12508
12916
12349
12725
12137
12690
12258
12871
12556
13213
13270
14456
15658
16824
14819
11600
11318
12269
12601
12825
12941
12952
13190
13004
13386
13054
13497
13076
13586
13167
13721
13415
14098
13913
14401
14289
14701
14778
15090
15375
15449
15666
15435
15745
15225
15457
14533
14488
13468
13479
12671
12851
12329
12587
12258
12481
12408
12450
12588
12497
12674
12358
12753
12382
12895
12363
12855
12352
12876
12453
12894
12469
12812
12534
12698
12599
12630
12764
12601
12963
12996
12953
13017
13089
12943
13187
12801
13288
12848
13469
13075
13637
13113
13652
13227
13731
13231
13567
13240
13451
13335
13317
13434
13255
13703
13811
15235
16169
16621
14633
11078
10825
12431
12776
13588
13265
13748
13637
13881
13900
13954
14224
14087
14503
14158
14594
14114
14758
14293
14934
14581
15281
15059
15772
15626
16062
15951
16048
15967
15762
15713
15050
14938
14080
14097
13240
13489
12722
13180
12534
12977
12470
12836
12368
12979
12433
12905
12394
12844
12509
12828
12656
12780
12763
12687
12842
12519
12846
12380
12880
12282
12802
12169
12711
12211
12894
12544
13080
12806
13095
12880
12974
12885
12727
12937
12600
13018
12586
13162
12691
13340
13790
15901
16257
16486
12121
10459
11131
12252
12704
12954
13067
12979
13299
12913
13401
12960
13554
13048
13694
13145
13839
13391
14071
13780
14343
14274
14777
14977
15180
15438
15329
15648
15218
15579
14806
14620
14014
13778
13031
13121
12386
12809
12138
12652
12024
12547
12024
12525
12151
12566
12348
12550
12500
12538
12646
12448
12760
12433
12879
12404
12939
12419
13004
12484
13051
12510
12952
12577
12936
12831
13144
13191
13236
13382
13142
13412
13027
13439
12945
13507
12974
13597
13117
13700
13331
14107
14576
16435
17306
16481
12052
11601
12516
12852
13363
12990
13509
12989
13568
13037
13626
13098
13739
13336
13813
13499
13786
13708
14205
13906
14515
14358
14901
14908
15260
15289
15233
15359
14989
15088
14352
14347
13363
13414
12457
12776
12080
12493
11955
12308
11936
12253
12117
12241
12251
12182
12460
12200
12589
12166
12696
12273
12884
12335
12840
12298
12837
12404
12791
12493
12734
12687
12766
12814
12621
12835
12573
13030
12741
13320
12828
13395
12842
13363
12824
13223
12710
13064
12795
13001
12933
12956
13132
13099
14076
14694
16895
16983
15237
11306
12156
12333
13359
13037
13638
13170
13819
13271
13897
13470
14162
13747
14223
13967
14349
14318
14404
14572
14606
15065
14827
15496
15111
15771
15115
15659
14906
15372
14453
14551
13567
13471
12818
12709
12512
12460
12595
12416
12742
12329
12791
12197
12812
12216
12911
12375
13006
12545
13148
12997
13877
14095
14516
14600
14590
14784
14551
14884
14454
14942
14267
14792
14159
14691
14064
14485
13747
14107
13722
14153
14200
14430
14460
14219
14361
14332
14072
14003
13757
13638
13740
13466
13899
13658
14380
14471
15790
16812
18284
16622
13321
12489
13487
13582
13950
13751
13773
13652
13489
13715
13358
13669
13322
13761
13162
13714
13240
13824
13350
14011
13721
14256
14029
14463
14398
14550
14633
14443
14515
14052
14253
13321
13327
12333
12539
11682
12084
11411
11878
11318
11607
11320
11631
11638
11781
11905
11684
12039
11728
12195
11808
12447
11800
12400
11699
12325
11760
12271
11711
12357
11790
12475
11917
12485
11972
12420
12075
12302
12119
12112
12218
12104
12578
12341
12850
12342
12984
12353
12998
12319
12866
12196
12756
12265
12682
12445
12841
13002
13942
15178
15879
15963
12183
10881
11197
12777
12602
13455
12851
13660
13022
13699
13234
13633
13400
13669
13699
13754
14124
13947
14460
13993
14809
14294
15307
14829
15859
15263
16031
15359
15909
15307
15479
14916
14630
14198
13682
13637
12922
13194
12459
12617
12581
12790
12449
12951
12450
13113
12455
13275
12538
13322
12585
13274
12569
13133
12653
13039
12804
12948
12917
12827
13112
12688
13218
12596
13233
12402
13118
12424
13316
12745
13583
12976
13550
13114
13457
13171
13202
13178
12966
13322
12911
13519
12910
13779
13156
14964
15500
16985
15626
13100
10384
11989
12453
13331
13348
13450
13603
13401
13830
13371
14039
13327
14116
13426
14322
13567
14404
13781
14554
14161
14815
14668
15493
14999
15796
15282
15691
15120
15236
14847
14546
14274
13625
13590
12821
13136
12369
12891
12053
12687
11981
12633
12001
12636
12152
12622
12356
12554
12542
12491
12669
12432
12768
12316
12839
12235
12922
12200
12847
12114
12811
12238
12846
12490
13042
12901
13127
13051
12944
13153
12770
13191
12669
13263
12665
13364
12755
13496
13083
14586
15230
16723
16272
13689
10773
11805
12679
13110
13535
13313
13755
13380
13915
13327
14012
13661
14038
13652
14204
13704
14378
13878
14604
14220
15013
14756
15476
15305
15739
15545
15620
15579
15296
15180
14396
14315
13415
13519
12639
13027
12279
12753
12086
12641
12130
12589
12319
12594
12481
12622
12712
12600
12876
12608
13120
12693
13202
12569
13144
12517
13110
12523
12929
12505
12977
12691
12977
13031
13206
13385
13262
13504
13107
13470
12859
13379
12842
13388
12807
13398
12905
13547
13378
14643
15695
16703
16311
12223
11264
12538
12885
13206
13087
13116
13227
13130
13433
13130
13673
13311
13917
13411
14021
13553
14185
13765
14401
14145
14684
14608
14987
15077
15164
15303
15060
15277
14777
14928
14031
14128
13162
13346
12513
12850
12212
12576
12137
12487
12255
12427
12410
12353
12565
12332
12704
12380
12816
12348
12961
12436
13025
12492
12991
12546
12993
12690
12990
12821
12915
12937
12839
12962
12790
13252
12937
13462
12867
13365
12727
13185
12644
13117
14408
14912
15230
16017
17297
17510
16051
11761
12232
12369
13394
12900
13391
12817
13359
12874
13374
12967
13321
13092
13311
13200
13142
13285
13216
13600
13304
13944
13616
14387
14112
14846
14375
14953
14423
14816
14274
14332
13701
13457
13076
12769
12726
12331
12535
12132
12588
12093
12668
12102
12728
12221
12833
12347
12819
12421
12758
12644
12773
12738
12672
12910
12635
12986
12629
13133
12596
13172
12638
13137
12645
13174
12850
13569
13163
13746
13176
13704
13188
13539
13028
13315
13088
13178
13189
13248
13280
13215
13518
14071
15368
16370
16944
13707
11547
11816
13018
12976
13402
13078
13460
13325
13513
13489
13603
13697
13633
13828
13711
14120
13868
14401
14002
14795
14409
15053
14766
15376
15189
15502
15364
15405
15337
14975
14866
14069
14080
13170
13373
12614
13042
12402
12909
12357
12879
12431
12782
12524
12721
12627
12694
12721
12692
12939
12531
12965
12792
12879
12714
12951
12557
12989
12507
12985
12456
13021
12457
13006
12424
12972
12588
13158
12975
13196
13140
13154
13273
13039
13263
12883
13298
12771
13372
12848
13529
13008
13716
13366
14719
15323
16907
16695
13891
11683
12313
13174
13280
13612
13217
13752
13235
13837
13340
13975
13452
14053
13619
14117
13764
14169
13974
14172
14252
14379
14723
14675
15235
14932
15560
15098
15685
15035
15453
14542
14618
13380
13073
12163
12041
11232
11687
11077
11499
11071
11459
11222
11408
11391
11357
11570
11339
11731
11369
11926
11474
12080
11536
12147
11631
12171
11692
12187
11877
12224
12163
12357
12378
12299
12574
12303
12767
12315
12839
12357
12999
12630
13267
12774
13314
12860
13286
12955
13221
13036
13100
13268
13111
13351
13086
13588
13290
14580
14749
16527
16191
14882
11494
12496
12844
13718
13531
13799
13802
13832
13995
13852
14226
13901
14313
13825
14392
13896
14448
14239
14646
14599
15012
14898
15433
15313
15811
15559
15891
15470
15860
15327
15126
14668
14156
13835
13387
13372
12886
13176
12603
13068
12479
13031
12489
12970
12499
12971
12546
12925
12734
12920
12923
12885
12990
12767
13093
12734
13125
12614
13119
12656
13213
12680
13233
12773
13161
12823
13133
13020
13150
13144
12978
13082
12883
13223
12952
13548
13076
13646
13141
13761
13280
13696
13189
13471
13126
13417
13264
13343
13397
13868
14368
15340
16243
16467
14538
11471
12197
12729
13575
13258
13788
13311
13778
13290
13854
13406
13962
13511
13942
13710
14077
13974
14153
14276
14257
14625
14536
15103
14847
15463
15035
15624
15076
15496
14803
14928
14104
14014
13289
13156
12775
12607
12569
12337
12525
12170
12529
12006
12530
12018
12607
12137
12752
12318
12788
12446
12804
12616
12848
12739
12700
12823
12602
12941
12556
12974
12499
13023
12508
13050
12559
13062
12559
13134
12621
13134
12506
12973
12539
12979
12707
13139
12934
13126
13071
13036
13145
12937
13203
12743
13204
12732
13290
12758
13455
13123
14474
14734
16299
16015
14416
11277
12039
12825
13287
13569
13421
13854
13478
13957
13485
14058
13494
14115
13618
14206
13815
14260
13931
14349
14283
14523
14706
14872
15339
15314
15791
15496
15991
15345
15660
14797
14932
13994
14093
13264
13334
12828
12935
12697
12727
12689
12515
12779
12443
12845
12704
12742
12652
12880
12630
13001
12635
13055
12507
13005
12393
12879
12348
12853
12432
12853
12555
12818
12715
12808
12854
12729
12904
12622
12985
12473
12964
12454
13129
12720
13265
12812
13289
12944
13350
13015
13198
12968
12925
13053
12861
13244
12928
13490
13422
14740
15446
16626
15454
12307
11317
12612
12978
13566
13397
13564
13531
13579
13705
13508
13809
13447
13936
13521
14074
13593
14207
13825
14416
14097
14688
14649
15244
15289
15986
15536
15901
15428
15603
15025
14774
14302
13812
13543
13036
13080
12604
12942
12423
12869
12340
12855
12371
12886
12442
12865
12578
12901
12731
12868
12927
12909
13074
12823
13196
12801
13209
12747
13252
12704
13222
12770
13271
12829
13155
12795
12960
12710
12840
12853
12881
13198
12966
13355
12946
13448
12979
13414
12817
13275
12766
13192
12820
13207
13037
13459
13900
14702
16041
16308
15355
11234
11571
12023
13133
12875
13390
13162
13524
13156
13614
13187
13784
13271
13821
13368
13934
13581
14052
13882
14234
14218
14416
14668
14795
15223
15045
15423
14946
15336
14678
14893
13975
14049
13175
13356
12723
12887
12483
12623
12529
12543
12694
12553
12899
12592
13000
12600
13050
12500
13009
12507
13065
12614
13084
12763
13059
12865
12988
12984
13000
13153
12934
13234
12832
13199
12698
13114
12625
13149
12768
13387
13015
13382
13035
13354
13219
13356
13271
13420
13115
13408
13187
13395
13425
13529
14223
14893
16602
16513
15436
11211
11976
12360
13526
13201
13737
13280
13698
13369
13679
13558
13681
13752
13706
13905
13665
14004
13630
14158
13796
14451
14160
14952
14736
15462
15231
15592
15200
15392
15128
14971
14667
14142
13951
13301
13386
12757
13022
12334
12744
12164
12668
12232
12717
12424
12844
12623
12887
12817
12916
12980
12838
13064
12658
13074
12616
13136
12663
13136
12581
13097
12492
12979
12518
12989
12523
13162
12801
13340
12947
13251
12896
13012
12840
12814
12921
12768
13104
12792
13267
13058
14076
14833
16844
15948
14737
10043
11013
11782
12926
13060
13353
13351
13387
13613
13458
13846
13473
13955
13511
14123
13675
14348
13922
14606
14273
14845
14706
15220
15227
15525
15618
15525
15697
15350
15517
14743
14763
13747
13804
12786
13014
12318
12751
12192
12483
12144
12407
12245
12314
12423
12353
12589
12315
12862
12864
12923
12964
12678
12908
12525
12896
12356
12830
12321
12829
12327
12926
12586
13070
12778
13048
12794
12897
12783
12720
12934
12677
13005
12659
13173
12740
13457
13645
15444
16144
16348
13637
10390
10928
12150
12826
13149
13453
13272
13777
13337
14009
13406
14167
13549
14303
13670
14300
13815
14366
14023
14505
14488
14877
14966
15256
15527
15516
15786
15395
15753
15091
15285
14309
14401
13501
13608
12871
13089
12555
12788
12350
12798
12365
12778
12338
12848
12428
12705
12705
12609
12811
12491
12980
12511
13131
12437
13104
12341
12967
12230
12905
12323
12879
12563
13076
12968
13158
13299
13129
13357
12877
13272
12663
13312
12580
13386
12688
13466
12893
13898
14145
16110
16631
16231
11749
11322
12268
12729
13351
13013
13615
13045
13787
13034
13844
13057
13826
13178
13851
13344
13885
13624
14031
14050
14180
14459
14435
15048
14748
15461
14857
15522
14704
15322
14290
14478
13418
13697
12611
13111
12218
12880
12172
12749
12156
12635
12349
12616
12558
12605
12771
12564
13013
12518
13099
12385
13199
12496
13249
12544
13232
12558
13147
12576
12992
12678
12948
12915
12936
13195
12889
13377
12783
13374
12608
13157
12411
12999
12588
13188
12688
13211
12969
13550
13964
15219
16680
16983
14149
11430
12233
12567
13299
12885
13410
12878
13518
13041
13673
13276
13818
13508
13947
13722
14008
13987
14070
13983
14500
14326
14735
14725
14878
15047
14905
15144
14742
14996
14295
14380
13391
13584
12686
12941
12267
12619
12175
12454
12180
12435
12372
12393
12547
12421
12829
12480
12947
12438
13065
12601
13164
12639
13202
12677
13116
12767
13107
12897
13035
12968
12907
12972
12676
12975
12706
13320
12922
13534
12994
13615
13064
13502
12908
13265
12912
13197
13080
13232
13250
13314
13725
14232
15511
16671
17275
13976
12069
12097
13336
13136
13678
13277
13838
13321
13872
13389
13921
13513
13968
13671
13984
13870
14106
14171
14272
14652
14597
15151
14961
15599
15177
15721
15179
15613
14959
15158
14339
14336
13553
13444
13075
12968
12821
12590
12683
12367
12685
12230
12676
12209
12791
12319
12861
12367
12825
12460
12852
12627
12864
12817
12840
12916
12677
12881
12543
12921
12512
12991
12453
12935
12340
12925
12513
13069
12753
13109
12906
13039
12941
12902
12984
12685
12948
12977
12902
12926
12990
12891
13332
13616
14723
15726
16657
14454
11511
11354
12685
12800
13368
13078
13434
13216
13389
13352
13401
13539
13381
13705
13365
13861
13481
14037
13654
14362
14037
14730
14575
15223
15063
15455
15303
15392
15282
14979
14844
14190
14104
13274
13323
12556
12860
12184
12646
12091
12573
12197
12672
12410
12687
12510
12595
12587
12518
12759
12512
12962
12563
13033
12522
13110
12586
13143
12697
13234
12850
13272
12896
13468
12862
13329
13031
13499
13338
13630
13601
13681
13747
13558
13710
13414
13672
13212
13699
13186
13743
13203
13820
13518
14778
15352
16949
16659
14598
11209
12042
13002
13475
13889
13639
14163
13722
14172
13584
14178
13714
14246
13787
14303
13950
14346
14212
14495
14554
14683
14981
14980
15433
15231
15670
15230
15703
15077
15420
14565
14662
13745
13713
13005
13004
12520
12576
12432
12346
12527
12335
12656
12257
12592
12082
12435
12249
12492
12092
12435
11991
12524
12029
12583
12037
12562
12069
12463
12066
12352
12199
12341
12384
12509
12773
12608
12937
12593
13025
12510
12948
12427
13006
12544
13054
12660
13149
12957
13417
14357
15873
16626
15956
12549
10296
11842
12370
13365
12972
13576
13247
13867
13345
13839
13411
13832
13596
13910
13840
14014
14092
14055
14390
14199
14745
14553
15257
14921
15567
15082
15598
14997
15375
14759
14710
13971
13713
13200
13072
12504
12763
12359
12471
12335
12432
12533
12418
12683
12441
12918
12534
13027
12584
13167
12661
13135
12655
13044
12593
12952
12672
12881
12798
12757
12812
12678
12942
12603
13119
12840
13419
12887
13394
12886
13299
12755
13113
12771
13080
12890
13065
13075
13217
13478
14178
15681
16548
16935
13504
11303
11608
12985
13014
13606
13229
13643
13316
13634
13486
13596
13597
13561
13789
13601
13963
13652
14199
13799
14414
14072
14808
14610
15375
15061
15616
15056
15498
14881
15085
14215
14169
13459
13339
12818
12698
12588
12365
12435
12177
12549
12188
12669
12207
12705
12213
12809
12323
12824
12425
12869
12592
12869
12812
12913
12911
12814
13098
12849
13219
12790
13246
12648
13193
12746
13386
13066
13625
13229
13565
13254
13422
13256
13200
13227
13082
13377
13100
13474
13038
13606
13252
14597
15233
17132
16628
13955
11077
11993
12479
13048
13053
13120
13350
13166
13523
13581
13598
13673
13797
13647
13943
13614
14046
13671
14274
13863
14555
14164
14829
14481
15077
14728
15021
14694
14754
14392
13958
13624
13004
12959
12332
12655
12117
12620
12103
12638
12105
12657
12244
12719
12347
12717
12645
12901
12967
12947
13142
12950
13356
12901
13346
12869
13377
12849
13397
12857
13362
12925
13272
12885
13180
13079
13308
13447
13418
13680
13404
13787
13287
13713
13136
13774
13169
13628
13089
13612
13261
13761
14019
15425
16650
17509
14675
11926
12024
13053
13417
13635
13747
13739
13978
13730
14096
13739
14185
13745
14273
13769
14304
13933
14456
14144
14575
14497
14876
15011
15316
15648
15628
15897
15571
15806
15207
15330
14402
14341
13403
13474
12680
12869
12421
12576
12263
12362
12287
12262
12340
12094
12383
12045
12463
12032
12470
11951
12511
12073
12598
12175
12653
12355
12646
12502
12678
12705
12711
12837
12577
12934
12541
13121
12813
13288
13205
13546
13223
13577
13042
13486
12970
13543
13094
13666
13234
13701
13521
14159
14996
16606
17065
16163
11892
10952
12219
12619
13517
13072
13610
13110
13676
13193
13721
13333
13758
13495
13822
13713
13901
14059
14090
14450
14282
14872
14688
15385
15087
15819
15322
15873
15274
15650
14956
15021
14303
14102
13594
13323
13092
12758
12915
12447
12836
12375
12897
12337
12892
12334
12955
12478
13029
12670
13039
12713
12920
12831
13087
12577
12963
12628
12901
12733
12856
13024
12937
13258
12848
13174
12552
13022
12375
12988
12387
12976
12467
13053
12680
13249
13160
14538
15978
16729
16238
12232
10519
11325
12734
12810
13528
12962
13664
13135
13741
13287
13833
13438
13811
13551
13772
13776
13815
14109
13982
14475
14236
14956
14710
15453
15039
15689
15082
15561
14916
15175
14410
14272
13651
13324
12967
12602
12649
12260
12636
12088
12557
12000
12594
12055
12666
12202
12748
12229
12836
12307
12963
12431
12942
12372
12822
12410
12633
12309
12435
12476
12370
12694
12609
13099
12747
13301
12804
13406
12784
13340
12770
13330
12873
13290
12966
13214
13148
13328
14220
15496
17059
16594
12970
10852
12199
12349
13280
12791
13430
12977
13484
13088
13456
13216
13449
13449
13504
13663
13568
13870
13626
14150
13834
14562
14300
15111
14810
15492
15059
15547
15114
15333
14848
14551
13980
13488
13220
12735
12503
12625
12482
12471
12568
12420
12693
12365
12802
12350
12902
12371
12824
12270
12774
12328
12847
12519
12882
12694
12853
12766
12685
12730
12458
12791
12452
12987
12694
13325
12932
13489
12974
13444
12942
13290
12876
13140
12979
13132
13139
13097
13353
13160
13948
14144
16471
17264
16393
11884
12151
12334
13255
12911
13328
13041
13306
13142
13217
13325
13218
13486
13250
13703
13307
13780
13395
14029
13629
14281
13991
14635
14498
14974
14681
15192
14753
14956
14324
14252
13521
13362
12818
12728
12496
12455
12491
12378
12722
12521
12888
12630
13014
12600
13017
12613
13000
12634
13028
12816
13025
12971
13149
13136
13130
13261
13236
13525
13241
13547
13184
13536
13162
13696
13523
14087
13887
14231
13852
13853
14051
14256
14154
13970
13990
13748
13986
13708
13995
13689
14120
14064
15041
15996
17939
17097
13530
11797
12625
13178
13441
13527
13365
13374
13006
13045
12593
12680
12524
12673
12490
12814
12690
13098
12880
13369
13155
13718
13541
14105
13911
14283
14096
14254
14055
13930
13660
13157
12868
12166
12067
11499
11756
11476
11960
11628
12126
11892
12360
12168
12493
12321
12500
12506
12544
12600
12488
12665
12372
12852
12506
12965
12623
13152
12868
13357
13025
13342
13052
13213
13141
13179
13352
13453
13697
13461
13790
13436
13809
13401
13817
13376
13849
13471
13940
13675
14043
14033
14332
15302
17527
17547
16639
11929
11997
12825
13699
14070
13949
14210
13957
14281
13948
14269
13800
14222
13788
14205
13795
14186
13950
14339
14287
14524
14581
14835
15207
15279
15685
15449
15770
15366
15551
14809
14766
13952
13969
13179
13139
12668
12702
12392
12347
12192
12097
12178
12009
12251
11996
12355
12023
12406
12058
12475
12091
12495
12153
12434
12225
12502
12404
12402
12446
12437
12587
12417
12779
12555
12944
12598
12967
12533
12941
12562
13017
12690
13162
12832
13346
12973
13617
13673
15099
16435
17100
16064
11647
11147
12100
13076
13285
13644
13404
13841
13457
13910
13519
13970
13589
14040
13682
14069
13908
14177
14130
14242
14436
14529
14986
14949
15501
15253
15657
15195
15527
14847
14954
14127
14050
13255
13167
12614
12552
12296
12230
12231
12001
12188
11960
12348
11992
12452
12098
12617
12225
12693
12283
12631
12326
12680
12491
12614
12552
12491
12494
12294
12331
12658
12772
12844
12981
12878
13092
12773
13089
12625
13048
12645
13114
12704
13199
12877
13398
13264
14445
15408
16883
16797
13542
11101
11742
12809
12952
13486
13265
13703
13256
13732
13357
13820
13489
13922
13665
13986
13932
14130
14147
14161
14378
14392
14918
14823
15435
15236
15716
15264
15669
15112
15307
14517
14317
13570
13462
13006
12872
12667
12514
12611
12357
12588
12232
12677
12297
12787
12434
12976
12574
12963
12615
13061
12650
13126
12702
13101
12743
13040
12685
12874
12724
12813
12853
12903
13164
13017
13402
13034
13373
12939
13333
12792
13168
12727
13169
12858
13214
13064
13417
13869
14725
16340
17031
15740
11451
11815
12342
13406
13183
13725
13383
13849
13491
13942
13634
13948
13704
13946
13896
13959
14076
14034
14343
14235
14757
14577
15196
14959
15580
15236
15693
15261
15580
15097
15032
14399
14108
13651
13267
13112
12812
12971
12616
12895
13763
14260
13677
13863
13318
13492
13115
13238
13034
12928
12822
12622
12751
12410
12647
12148
12426
12004
12495
12129
12692
12390
12802
12466
12760
12468
12604
12431
12397
12453
12365
12572
12302
12710
12421
13009
13347
14649
15762
16540
13805
10890
11040
12204
12582
12885
12929
13012
13170
13043
13319
13084
13530
13121
13582
13204
13715
13410
13907
13647
14171
14067
14536
14594
14924
15071
15160
15294
15017
15183
14678
14748
13940
13988
13233
13221
12703
12872
12356
12713
12229
12706
12248
12690
12330
12719
12438
12650
12521
12665
12645
12619
12730
12586
12885
12569
12951
12556
13007
12578
13025
12545
12900
12481
12915
12702
13144
13096
13306
13318
13231
13375
13177
13459
13002
13390
12980
13414
13014
13611
13179
13785
14072
15170
16321
17132
15579
11849
11899
12695
13544
13430
13760
13442
13868
13438
13977
13504
13917
13555
14018
13699
14104
13931
14180
14154
14326
14415
14984
14914
15386
15375
15530
15550
15393
15397
14903
14867
14031
13974
13145
13292
12605
12867
12331
12638
12160
12490
12252
12513
12406
12486
12629
12549
12768
12481
12789
12415
12862
12455
12960
12511
13018
12545
12953
12539
12810
12571
12738
12687
12590
12607
12479
12775
12675
13203
12813
13214
12679
13170
12755
13137
12654
12978
12675
12989
12859
13041
13015
13262
13922
14404
15920
16366
15755
11550
11608
12059
13253
13000
13631
13335
13782
13318
13808
13349
13852
13510
13988
13720
14118
14038
14341
14392
14502
14755
14748
15213
15039
15566
15173
15647
15206
15633
14991
15187
14346
14284
13579
13466
13028
12942
12763
12633
12692
12431
12724
12422
12843
12427
12887
12477
12987
12570
13073
12685
13040
12759
13011
12812
12962
12954
12851
12946
12669
12974
12629
13007
12537
12939
12361
12867
12476
13056
12736
13165
12907
13136
13048
13108
13112
12921
12985
12993
12801
12928
12919
12954
13362
14013
15114
16058
16273
13253
10897
11227
12684
12821
13399
13102
13541
13289
13594
13484
13623
13737
13745
13971
13789
14204
13916
14428
14049
14598
14293
14976
14759
15425
15196
15622
15336
15499
15236
15102
14844
14313
14061
13351
13268
12611
12846
12289
12654
12185
12650
12270
12656
12310
12694
12471
12733
12649
12714
12780
12608
12784
12564
12935
12535
12957
12561
13024
12558
13024
12676
13114
12731
13160
12626
13021
12563
13107
12960
13374
13110
13263
13148
13263
13268
13027
13110
12820
13204
12824
13250
12805
13441
13261
14716
15428
16715
15746
12229
10461
11742
12619
13132
13370
13385
13706
13456
13848
13491
13998
13618
14135
13700
14260
13931
14415
14136
14520
14428
14733
14876
15168
15471
15435
15757
15432
15747
15160
15435
14572
14648
13688
13789
13005
13106
12628
12811
12463
12560
12543
12506
12639
12464
12810
12469
12709
12801
12910
12711
12934
12605
13017
12605
13051
12519
13018
12492
12996
12500
12826
12427
12786
12639
12882
12932
13051
13248
13071
13352
12950
13311
12726
13229
12729
13263
12778
13303
12837
13385
13249
14834
16132
16855
15876
11611
10144
11305
12708
12988
13599
13235
13822
13349
13887
13390
13892
13456
13857
13570
13882
13765
13969
14137
14184
14496
14438
15094
14989
15674
15366
15981
15460
15845
15170
15422
14681
14621
13866
13658
12861
13061
12427
12706
12297
12509
12336
12488
12497
12458
12653
12457
12812
12452
12908
12485
13025
12566
13009
12513
12942
12485
12874
12524
12724
12552
12579
12541
12533
12770
12610
13071
12795
13318
12881
13321
12734
13139
12544
12941
12578
12971
12698
12938
12905
13150
13433
14334
15983
16676
16324
11751
10968
11512
12914
12865
13508
13153
13673
13330
13769
13598
13865
13797
13855
13989
13784
14014
13807
14323
14046
14683
14443
15224
15268
15775
15504
15970
15450
15812
15145
15359
14470
14469
13679
13643
13062
12997
12577
12440
12393
12214
12446
12140
12580
12250
12733
12297
12873
12395
12815
12356
12793
12480
12846
12651
12794
12743
12742
12791
12541
12839
12424
12739
12323
12825
12406
13030
12650
13142
12759
13131
12779
13058
12779
12854
12749
12665
12798
12601
12949
12637
13275
13555
14883
15982
16980
14876
11426
11162
12496
12901
13393
13323
13521
13499
13778
13465
13781
13615
13833
13770
13746
13870
13759
14079
13825
14286
14052
14735
14491
15210
14909
15450
15072
15442
15012
15066
14501
14228
13798
13384
13176
12672
12786
12333
12664
12195
12606
12183
12730
12289
12817
12480
12903
12640
12910
12727
12838
12826
12774
12932
12706
13014
12619
13062
12641
13134
12661
13146
12616
13053
12693
13108
13018
13272
13145
13226
13349
13218
13354
12976
13263
12919
13398
12912
13439
12979
13618
13708
15012
15865
17327
15903
12234
10836
12247
12681
13405
13231
13498
13393
13506
13531
13447
13682
13437
13762
13446
13949
13519
14063
13663
14302
13968
14588
14366
14938
14848
15288
15225
15273
15224
14930
14941
14300
14195
13378
13430
12638
12960
12318
12684
12196
12641
12280
12690
12543
12774
12722
12785
12892
12732
12957
12593
12960
12556
13072
12603
13107
12610
13073
12585
13050
12716
13081
12750
12868
12837
12844
13053
12978
13055
13383
13246
13280
13229
12996
13128
12712
13081
12660
13164
12666
13239
12862
14288
15054
16931
16264
13776
10009
11205
12167
12942
13292
13244
13614
13321
13803
13426
13993
13555
14126
13629
14158
13765
14238
13958
14468
14400
14783
14887
15097
15434
15414
15778
15420
15806
15174
15485
14676
14759
13797
13902
13023
13151
12554
12715
12352
12453
12369
12297
12464
12309
12665
12366
12882
12443
12958
12416
12943
12420
12926
12413
12914
12461
13008
12452
12953
12478
12867
12490
12972
12882
13138
13132
13162
13236
12944
13141
12719
13104
12682
13239
12718
13261
12821
13514
13518
15205
16563
17022
15177
10469
10486
11638
12734
12961
13437
13216
13722
13250
13729
13267
13756
13301
13789
13480
13946
13732
14180
14138
14365
14560
14736
15111
15060
15557
15295
15657
15107
15420
14744
14914
13984
13861
12993
12975
12384
12420
12126
12117
12117
11998
12195
11936
12254
12254
12349
12307
12466
12209
12496
12146
12540
12085
12605
12088
12641
12164
12692
12252
12614
12318
12611
12339
12445
12502
12529
12900
12814
13289
12926
13458
12973
13521
12848
13379
12736
13321
12841
13336
13004
13467
13502
14420
15376
16833
16970
13580
11516
11626
13209
12899
13806
13052
13960
13186
14034
13428
14096
13694
14065
13901
14011
14155
14010
14422
14031
14744
14200
15213
14649
15683
15024
15935
15204
15966
15196
15523
14404
14800
13588
13974
12983
13328
12706
12983
12687
12730
12768
12592
12918
12444
13048
12346
13112
12334
13158
12342
13118
12326
13083
12430
12999
12537
12825
12704
12786
12930
12707
13091
12578
13231
12562
13352
12502
13382
12625
13599
13059
13796
13207
13785
13424
13695
13510
13427
13511
13179
13579
13042
13693
12963
13764
13114
14777
14893
17188
16296
14036
10383
11642
12323
13184
13248
13277
13571
13294
13821
13277
14011
13355
14175
13682
14208
13727
14433
13857
14763
14113
15097
14474
15463
14985
15804
15306
15762
15389
15498
15170
14707
14461
13606
13613
12683
13078
12159
12803
11958
12754
11981
12725
11997
12643
12157
12588
12303
12501
12468
12400
12687
12420
13005
12445
13111
12372
13108
12306
13131
12330
13075
12452
13105
12570
12980
12712
12891
12879
12774
13018
12697
13303
12738
13431
12533
13417
12723
13703
13018
13816
13151
13710
13283
13648
13381
13384
12941
13649
13149
13574
13343
13601
13865
14576
15614
16464
16542
12891
11429
11486
13225
12885
13851
13143
13935
13366
14002
13556
13994
13855
14006
14085
13921
14274
13889
14552
14012
14843
14243
