14993
14881
14691
14572
14321
14294
14123
14556
15156
16658
16907
15170
11131
11567
12229
12811
12825
12859
12855
12841
12857
12771
12844
12780
12901
12817
12943
12842
13019
12934
13225
13271
13648
13842
14219
14320
14524
14600
14523
14463
14222
13961
13479
13178
12793
12629
12323
12464
12298
12415
12317
12484
12401
12540
12575
12646
12705
12754
12828
12785
12870
12783
12913
12796
12959
12724
12841
12668
12744
12686
12812
12729
12907
13037
13317
13333
13500
13296
13273
13193
13259
13293
13361
13428
13348
13616
13972
15323
16822
16935
15528
11360
11366
12436
12962
13307
13207
13368
13393
13497
13499
13555
13617
13686
13872
13995
14191
14309
14412
14365
14738
14942
15364
15567
15876
15798
15831
15645
15539
15204
14700
14214
13755
13441
13167
13056
12817
12835
12593
12747
12607
12732
12638
12773
12750
12888
12838
12881
12889
12855
12894
12862
12878
12759
12787
12664
12711
12590
12615
12550
12630
12581
12748
12755
12941
12957
13066
12976
13079
12903
12872
12816
12833
12795
12789
12895
13111
13992
14904
16218
16178
13424
11048
11853
12529
13034
13063
13289
13271
13355
13321
13428
13470
13532
13638
13722
13834
13864
14075
14147
14380
14446
14610
14751
15129
15137
15428
15260
15449
15094
15038
14402
14235
13604
13441
13051
12973
12743
12698
12585
12440
12495
12404
12597
12418
12670
12479
12807
12598
12868
12721
13007
12795
13045
12712
12953
12679
12878
12550
12694
12493
12674
12643
12837
12896
12943
13056
13000
13089
12879
13055
12805
12994
12728
12980
12722
13176
13374
14208
15174
16405
15664
12139
11389
12242
13007
13190
13445
13393
13641
13394
13678
13484
13830
13638
13934
13750
14020
13918
14118
14040
14248
14403
14666
14956
15085
15386
15242
15513
15217
15310
14765
14641
13900
13758
13240
13222
12876
12864
12714
12761
12695
12669
12641
12863
12758
12870
12826
12745
12684
12612
12742
12587
12740
12494
12773
12460
12668
12405
12686
12506
12874
12761
12963
12981
13101
13005
13013
13021
12891
13038
12914
13167
13014
13442
13391
14590
15585
17041
16737
13551
11395
12459
13138
13565
13587
13650
13772
13668
13835
13671
13817
13594
13911
13642
13896
13673
13971
13878
14289
14306
14661
14860
15173
15372
15469
15553
15432
15431
14965
14794
14168
13995
13358
13343
12896
12985
12686
12858
12587
12873
12576
12865
12648
12882
12705
12917
12844
12963
12973
12985
13065
12934
12988
12805
13043
12817
13157
12973
13329
13155
13375
13116
13277
13034
13137
13056
13173
13194
13177
13395
13584
14715
16119
17152
16587
13500
10994
12268
12686
13462
13477
13744
13651
13841
13768
13840
13859
13871
13970
13838
14018
13890
14166
14001
14416
14359
14874
14837
15254
15176
15365
15139
15133
14888
14596
14221
13776
13475
13042
12744
12636
12470
12302
12377
12187
12364
12222
12454
12248
12499
12285
12594
12339
12545
12324
12523
12419
12487
12356
12282
12535
12382
12500
12461
12637
12657
12828
12785
12779
12703
12639
12607
12574
12690
12622
12740
12848
13185
14021
15531
16060
15789
12020
10777
11553
12342
12727
12911
13024
13112
13184
13210
13374
13331
13451
13439
13579
13524
13744
13771
14055
14118
14422
14646
14968
15112
15266
15317
15275
15143
14904
14664
14078
13699
13441
13199
13021
12949
12856
12893
12775
12919
12884
13011
12923
13038
12921
12973
12850
12953
12913
13016
13010
13055
13034
12973
12941
12904
12960
12874
13038
13012
13147
13103
13241
13063
13094
12980
12965
12926
13032
13044
13081
13148
13381
13976
14655
16276
17018
15697
12070
12258
12808
13384
13356
13495
13380
13478
13480
13539
13562
13566
13644
13695
13779
13742
13949
13943
14218
14341
14697
14810
15175
15300
15494
15407
15529
15216
15008
14468
14117
13627
13302
12986
12791
12617
12570
12552
12509
12592
12519
12608
12534
12580
12562
12666
12529
12642
12539
12673
12702
12829
12746
12769
12634
12661
12712
12721
12843
12861
12946
12942
13093
12972
13026
12855
12868
12775
12889
12850
13027
13039
13216
13626
14209
15594
16521
15623
11838
11738
12520
13166
13209
13309
13237
13330
13219
13463
13343
13691
13524
13919
13821
14196
14093
14387
14335
14594
14635
15159
15133
15449
15317
15482
15247
15225
14898
14610
14211
13734
13492
13142
13114
12749
12865
12537
12781
12557
12815
12586
12770
12604
12777
12626
12725
12569
12533
12572
12548
12626
12467
12629
12456
12581
12364
12618
12402
12793
12749
13090
12988
13214
13100
13184
13093
13008
13066
13023
13198
13073
13371
13379
14048
14443
15873
16552
16112
12106
11900
12578
13349
13406
13587
13608
13678
13760
13724
13902
13790
13954
13743
13973
13989
14202
14135
14340
14297
14782
14805
15283
15230
15544
15300
15488
15100
14965
14459
14087
13696
13383
13072
12802
12781
12552
12634
12298
12494
12240
12469
12140
12424
12313
12470
12230
12387
12292
12340
12224
12251
12322
12248
12376
12231
12566
12446
12759
12654
13158
13031
13484
13315
13490
13226
13265
13143
13219
13179
13138
13167
13123
13443
14123
15753
16884
17119
13782
11142
11806
12866
13163
13483
13457
13751
13723
14062
13964
14315
14227
14443
14333
14462
14453
14539
14657
14762
15033
15119
15575
15556
15862
15611
15767
15326
15286
14706
14589
13969
13760
13338
13228
13024
12880
12806
12682
12755
12568
12756
12538
12758
12543
12892
12655
12920
12694
12965
12773
12866
12722
12795
12740
12778
12865
12865
13050
12878
12975
12679
12919
12515
12719
12498
12811
12632
12886
12777
13196
14268
15942
16399
15875
12074
10389
11597
12176
12936
12855
13211
13235
13474
13392
13589
13358
13636
13421
13749
13624
13947
13875
14219
14278
14598
14719
15041
15171
15287
15367
15212
15179
14793
14593
13901
13690
13099
13095
12611
12763
12460
12584
12367
12526
12475
12546
12547
12575
12639
12611
12762
12599
12767
12563
12779
12489
12682
12387
12638
12423
12640
12527
12805
12797
12935
12994
13004
13026
12867
12927
12736
12948
12694
12943
12767
13258
13542
14692
15944
16542
14892
11073
11326
12227
12875
13254
13235
13451
13372
13475
13424
13486
13617
13599
13803
13679
13905
13763
14072
13982
14462
14436
14889
14836
15183
15129
15287
15084
14909
14544
14125
13773
13348
13149
12733
12763
12408
12550
12258
12547
12301
12581
12379
12617
12490
12624
12579
12709
12714
12719
12801
12782
12983
12836
12971
12668
12930
12692
12992
12844
13239
13074
13347
13192
13308
13136
13119
13037
13051
13155
13065
13272
13159
13587
13870
14916
16262
17351
14338
12191
12510
13364
13389
13611
13385
13651
13343
13566
13462
13686
13635
13715
13696
13734
13843
13823
14077
14062
14444
14432
14878
14819
15221
15036
15210
14813
14833
14374
14081
13517
13198
12844
12576
12550
12343
12447
12234
12422
12231
12516
12336
12602
12377
12676
12491
12689
12460
12573
12466
12542
12502
12500
12611
12543
12746
12593
12810
12556
12923
12684
13061
12904
13211
12991
13154
13022
13132
12964
12933
12897
12852
12843
13112
13090
13308
13667
14389
15984
16726
15862
11993
11910
12430
13294
13222
13584
13407
13716
13564
13843
13662
13892
13844
13921
13962
13980
14132
14153
14445
14502
14836
14817
15347
15247
15610
15348
15533
15260
15220
14694
14354
13815
13434
13105
12869
12815
12587
12665
12429
12668
12419
12703
12535
12859
12645
12877
12688
12916
12836
13023
12956
13006
12966
12926
12972
12728
12846
12605
12817
12786
13122
12915
13173
13001
13291
13099
13320
13008
13288
13040
13305
13067
13347
13401
13953
14513
16052
16979
15915
11960
11659
12550
12938
13289
13141
13440
13170
13415
13129
13398
13211
13452
13365
13520
13464
13621
13742
13854
14091
14161
14536
14621
15020
14911
15210
14942
15092
14655
14553
13904
13708
13254
13144
12876
12867
12823
12758
12788
12684
12904
12771
12966
12723
12969
12701
12939
12688
12923
12693
12906
12665
12729
12555
12528
12568
12528
12654
12846
12881
13035
13030
12979
12958
12735
12787
12563
12797
12575
12770
12594
13039
13099
14083
15235
16639
16056
12255
11357
12223
12884
13138
13337
13318
13442
13298
13605
13444
13755
13564
13896
13754
14068
13939
14290
14292
14599
14725
15022
15231
15446
15640
15536
15586
15256
15313
14779
14617
13997
13880
13270
13317
12895
12945
12729
12834
12776
12809
12821
12719
12761
12633
12797
12636
12872
12652
12879
12583
12867
12611
12836
12564
12803
12608
12866
12571
12902
12780
12976
12893
13144
13025
13011
12875
12808
12877
12849
13057
12913
13193
13172
13843
14562
16443
16860
15507
11211
11654
12258
12999
13096
13238
13290
13286
13342
13264
13429
13300
13533
13377
13680
13483
13856
13783
14216
14187
14619
14744
15175
15241
15380
15373
15300
15226
14883
14698
14152
13970
13380
13317
12843
12960
12649
12829
12554
12768
12551
12715
12671
12729
12742
12739
12860
12770
12879
13027
12981
12945
12999
12891
13059
12874
13158
12983
13248
13035
13381
13150
13364
13044
13194
13012
13156
13089
13168
13223
13296
13591
14484
16322
16962
16784
12799
10873
11707
12747
13018
13467
13351
13645
13547
13751
13688
13846
13936
13977
14133
14050
14328
14252
14596
14576
15040
14997
15483
15441
15829
15638
15752
15392
15319
14987
14655
14203
13726
13468
13095
12980
12610
12733
12463
12705
12475
12803
12624
12834
12637
12963
12755
12996
12722
12994
12796
12989
12755
12853
12649
12635
12492
12463
12501
12393
12593
12466
12806
12666
12935
12661
12660
12656
12615
12657
12647
12772
12844
13106
13290
14203
15327
16764
16548
13966
10785
11707
12426
12968
13051
13152
13260
13236
13263
13185
13285
13275
13401
13344
13444
13325
13524
13504
13785
13944
14360
14594
14908
15086
15233
15223
15139
15072
14758
14460
13903
13593
13150
13027
12681
12671
12530
12586
12450
12616
12595
12778
12700
12835
12675
12735
12713
12804
12782
12826
12823
12822
12870
12845
12974
12959
12995
12844
12852
12691
12856
12779
12995
12979
13105
13095
13213
13176
13065
12994
12873
12890
12749
12905
12852
13030
13167
13794
14526
16276
16924
15855
11950
12002
12647
13278
13368
13463
13595
13581
13657
13586
13665
13538
13641
13553
13708
13649
13845
13820
14110
14215
14528
14719
14992
15220
15359
15370
15235
15212
14968
14686
14008
13683
13288
13063
12827
12753
12542
12597
12460
12563
12388
12490
12375
12503
12408
12467
12456
12506
12498
12506
12583
12545
12621
12553
12668
12539
12617
12435
12601
12480
12734
12713
12818
12721
12876
12809
12868
12804
12763
12704
12715
12863
12868
13015
13013
13390
13885
14606
16013
16695
14585
11715
11993
12818
13199
13233
13272
13449
13495
13455
13562
13519
13671
13626
13865
13872
14215
14183
14419
14507
14839
14983
15354
15660
16026
15892
16006
15829
15761
15348
14890
14373
13927
13548
13198
13081
12908
12953
12725
12807
12674
12764
12571
12740
12640
12745
12583
12635
12544
12593
12526
12516
12530
12480
12546
12461
12596
12431
12435
12163
12346
12294
12678
12681
12758
12741
12920
12827
12853
12819
12706
12696
12718
12914
12930
13097
13118
13579
14118
15414
16563
16388
12421
11520
12157
12878
13090
13266
13317
13297
13375
13340
13549
13517
13655
13637
13838
13879
14064
14065
14298
14326
14721
14787
15196
15325
15626
15562
15670
15396
15290
14899
14547
14135
13782
13466
13168
13056
12855
12853
12702
12789
12635
12765
12658
12903
12766
12870
12805
12953
12930
12997
12980
12876
12848
12753
12821
12762
12936
12870
13136
13116
13301
13270
13457
13291
13370
13205
13225
13127
13199
13211
13283
13446
13550
14652
16294
17149
16645
12666
11137
12255
12823
13433
13462
13700
13640
13786
13790
13997
13938
14104
14026
14145
14126
14275
14334
14459
14690
14865
15149
15324
15564
15544
15654
15438
15414
15027
14777
14221
13891
13363
13149
12930
12878
12738
12651
12654
12636
12710
12657
12730
12573
12679
12569
12670
12541
12714
12604
12667
12510
12501
12431
12379
12234
12202
12290
12282
12490
12516
12612
12585
12791
12645
12718
12516
12591
12432
12549
12460
12618
12637
12916
13239
14091
15559
16417
15731
11405
11157
11800
12541
12806
13088
13186
13288
13231
13471
13426
13621
13526
13660
13633
13841
13768
14003
14116
14382
14555
14792
15030
15116
15235
15163
15150
14866
14735
14172
13842
13320
13072
12740
12690
12484
12608
12516
12565
12603
12651
12686
12702
12779
12676
12856
12746
12918
12819
12948
12786
12902
12796
12818
12573
12630
12651
12752
12847
13044
13173
13206
13329
13241
13342
13147
13261
13104
13274
13176
13351
13274
13545
14037
15087
16815
17463
13432
12135
12654
13349
13432
13587
13624
13707
13647
13562
13637
13619
13719
13663
13852
13826
14014
14009
14216
14240
14568
14715
15037
15154
15285
15261
15216
15111
14863
14594
14068
13698
13259
13139
12869
12852
12663
12723
12523
12655
12638
12737
12638
12683
12696
12658
12652
12666
12788
12782
12943
12779
12857
12667
12757
12740
12959
12858
12985
12929
13001
12927
12966
12870
12792
12726
12720
12690
12666
12802
12807
13154
13613
14367
16402
16687
13456
11681
12274
13109
13300
13560
13560
13675
13586
13622
13510
13604
13580
13674
13740
13719
13784
13800
13976
14052
14417
14565
14988
15076
15329
15247
15353
15178
15187
14779
14498
13991
13586
13245
13009
12903
12686
12671
12503
12571
12433
12530
12394
12480
12341
12422
12315
12400
12310
12379
12396
12476
12484
12509
12525
12473
12602
12628
12882
12913
13158
13154
13313
13114
13172
12978
12994
12914
13029
13041
13150
13462
14151
15178
16821
17377
15643
11894
12356
13223
13635
13822
13796
13956
13859
13986
13931
14108
13990
14137
14092
14286
14314
14460
14506
14718
14962
15195
15515
15729
15990
15939
16047
15850
15803
15378
15097
14543
14226
13693
13554
13307
13194
13006
12889
12846
12784
12746
12677
12812
12647
12702
12573
12743
12560
12647
12476
12550
12380
12460
12341
12423
12436
12564
12605
12676
12760
12650
12650
12399
12513
12451
12606
12525
12843
13005
13517
14404
15974
16109
15728
11459
11054
11864
12718
12958
13098
13151
13326
13353
13298
13410
13329
13412
13345
13543
13524
13776
13705
13981
13956
14212
14300
14632
14765
14965
14978
14937
14813
14567
14257
13712
13398
12938
12795
12449
12509
12232
12316
12144
12336
12293
12430
12346
12448
12500
12627
12656
12698
12734
12594
12734
12616
12680
12447
12614
12447
12629
12597
12809
12747
12842
12732
12902
12925
12781
12625
12792
12767
12884
12888
13157
13623
14447
15686
16511
15848
11901
11689
12500
13251
13379
13535
13443
13478
13427
13498
13412
13449
13414
13503
13544
13573
13628
13736
13905
14101
14402
14655
14938
15118
15229
15143
15172
15032
14860
14491
14170
13592
13391
12888
13000
12658
12849
12686
12959
12844
13074
12959
13107
13043
13069
13236
13145
13374
13197
13390
13064
13245
12866
13037
12772
13056
12830
13231
13145
13339
13197
13245
13212
13322
13151
13311
13206
13294
13318
13351
13572
13976
14719
16004
17364
16142
12323
11819
12867
13052
13352
13189
13437
13245
13414
13291
13393
13477
13614
13786
13793
14033
13884
14345
14283
14752
14713
15246
15168
15610
15434
15647
15350
15282
14991
14767
14266
13812
13479
13101
13006
12672
12886
12664
12945
12603
12943
12603
13102
12993
13221
12950
13079
13001
13040
12983
12908
12895
12681
12709
12477
12653
12407
12710
12484
12731
12463
12628
12347
12582
12325
12646
12409
12688
12566
13035
13770
15491
16177
16001
12639
10412
11397
12168
12820
12796
13067
12951
13241
12941
13288
13005
13344
13152
13484
13371
13700
13664
13920
14031
14304
14615
14865
15247
15289
15529
15323
15419
14937
14896
14192
14037
13387
13328
12852
12918
12661
12708
12567
12617
12634
12637
12790
12640
12819
12634
12888
12703
13039
12730
12982
12751
13065
12829
13114
13006
13194
13280
13415
15032
14863
15008
14549
14613
14294
14635
15327
17101
16684
16231
12117
11131
11876
12574
12877
12825
12972
12960
13129
12851
13089
12768
13042
12778
13016
12729
13007
12752
12931
12863
13234
13372
13660
13825
13930
14099
14025
14090
13692
13695
13141
13248
12731
12794
12330
12654
12305
12429
12244
12411
12399
12475
12547
12614
12724
12776
13069
12916
13174
12877
13132
12946
13319
13011
13451
13257
13561
13455
13624
13493
13394
13275
13085
12911
13170
13034
13174
13252
13409
14286
15808
17012
16177
14272
10871
11994
12475
13279
13167
13559
13371
13762
13529
13742
13766
13905
13867
13857
14080
14060
14297
14189
14606
14612
15082
14921
15404
15407
15744
15411
15582
15179
15022
14477
14106
13763
13446
13319
12966
13068
12760
12828
12603
12835
12372
12618
12344
12582
12439
12553
12349
12596
12434
12381
12446
12536
12605
12400
12686
12671
12898
12851
13314
13012
13258
12973
13080
12963
13178
12805
13323
12978
13442
13381
14460
15904
16184
15394
12499
10964
12070
12886
13313
13660
13604
13825
13562
13897
13804
14138
13848
14170
13969
14300
14227
14601
14492
14846
14898
15193
15491
15592
15934
15881
16093
15776
15797
15185
15021
14276
14275
13763
13752
13487
13506
13280
13226
13100
13031
13053
13047
13024
12760
12992
12804
13041
12750
13062
12778
13063
12766
13091
12951
13171
13044
13204
13150
13114
13143
13250
13091
13256
13285
13386
13442
13511
13611
13348
13495
13199
13368
13107
13378
13049
13385
13243
14073
15044
16101
15184
13963
11108
11752
12358
12876
13184
13005
13235
13077
13262
13030
13345
13066
13375
13121
13379
13207
13475
13401
13662
13713
13911
14122
14266
14475
14412
14538
14324
14394
13901
13787
13062
13018
12483
12530
12135
12285
12108
12229
12155
12216
12237
12240
12355
12288
12521
12378
12641
12417
12694
12416
12790
12624
12940
12764
13075
12829
13097
12788
13058
12825
12987
12761
12945
12828
12925
12856
12849
12955
12899
13082
12928
13208
13035
13375
13187
13501
13224
13559
13351
13546
13314
13470
13341
13447
13463
13476
13545
13480
13655
13487
13736
13512
13817
13571
13898
13643
13951
13688
13931
13726
13854
13719
13754
13652
13564
13616
13519
13715
13573
13833
13621
13887
13592
13876
13569
13760
13490
13672
13496
13657
13597
13859
14144
14426
16786
17548
15848
13207
12966
13289
13451
13330
13469
13340
13575
13332
13636
13399
13717
13412
13687
13472
13779
13633
13913
13910
14140
14238
14374
14600
14673
15007
14935
15184
14895
15079
14603
14556
13820
13754
13155
13124
12687
12769
12556
12646
12571
12549
12652
12603
12722
12547
12793
12482
12738
12480
12830
12550
12854
12642
12924
12736
12990
12854
12959
12904
12899
12838
12702
12832
12561
12744
12478
12773
12529
12900
12667
12990
12785
13067
12741
13036
12705
13054
12800
13064
12714
12982
12836
13116
13000
13164
13240
13224
13349
13166
13270
13003
13184
12861
13241
12951
13419
13487
13902
14453
17018
16999
14684
12380
12590
12933
13088
13187
13161
13373
13179
13436
13185
13533
13243
13682
13383
13788
13537
13894
13763
14125
14095
14349
14506
14767
14984
15094
15331
15136
15372
14932
14976
14123
13979
13285
13285
12737
12825
12405
12478
12366
12511
12454
12691
12538
12819
12741
12761
12689
12643
12666
12538
12699
12606
12918
12641
12853
12481
12694
12400
12680
12405
12746
12539
12751
12653
12797
12785
12830
12895
12763
12900
12598
12858
12672
13156
12997
13385
13123
13454
13182
13484
13230
13357
13148
13284
13262
13299
13425
13594
14302
14593
16587
16810
15113
12126
12656
12905
13506
13314
13640
13447
13667
13549
13739
13734
13839
13955
13908
14091
13997
14305
14178
14537
14429
15038
14932
15570
15660
16075
15813
16123
15657
15668
14906
14648
13859
13627
13095
12995
12764
12690
12597
12495
12599
12425
12634
12424
12646
12389
12733
12404
12712
12379
12680
12458
12786
12659
12856
12830
12966
12990
13039
13165
13063
13211
12964
13252
13053
13429
13229
13668
13495
13862
13594
13844
13603
13760
13745
13928
13970
14032
14268
14300
14942
16082
17894
17685
16613
12571
13264
13702
14578
14578
14885
14826
15094
14993
15140
15085
15288
15283
15491
15236
15107
14318
13463
12762
11890
10810
9148
8094
6989
6751
5993
5963
5388
5449
4957
4859
4348
4431
4216
4319
4410
4577
4792
4912
5322
5377
5724
5679
6162
5864
6357
6217
6667
6524
7018
6915
7197
7157
7259
7291
7200
7220
6902
6741
6305
6303
5561
5490
5127
5541
5402
5905
5907
6310
6371
6874
7129
7518
7834
8109
8665
8946
10195
11444
12819
12449
9743
7976
9258
9805
10791
10857
11470
11468
11768
11774
12002
12140
12535
12235
12202
11855
11614
10908
10079
9560
9087
8969
8526
8550
8322
8915
8855
9419
9231
9633
9217
9316
9039
9291
9360
9633
9829
10082
10468
10565
11003
10774
10859
10480
10901
10760
11265
11049
11299
10907
11073
10709
10672
10265
9980
9758
9632
9855
9724
10173
10098
10577
10452
10933
10744
11352
11232
11783
11824
12382
12471
12878
12918
13280
13675
14191
15010
15678
16793
17481
19333
22200
26200
26284
26303
26304
26305
26308
26305
26309
26306
26309
26309
26311
26310
26310
26310
26309
26308
26312
26308
26311
26311
26305
26302
26304
26304
26304
26304
26303
26305
26306
26305
26304
26305
26307
26306
26307
26309
26311
26310
26305
26306
26311
26305
26304
26303
26299
26290
26276
26256
26215
26051
22932
20439
18561
17125
15477
13827
12380
10762
9556
8066
7097
5614
4978
3704
3110
1821
1380
504
212
12
13
13
11
12
12
13
11
11
10
13
11
14
10
11
11
9
11
10
10
9
11
12
10
8
10
12
13
9
9
11
14
12
10
10
9
13
12
11
13
14
13
14
16
13
346
814
866
1031
660
664
150
367
26
410
192
735
690
1204
1255
1670
1808
2162
2394
2592
2935
2965
3487
3497
3942
3741
4291
4125
4637
4450
5007
4921
5368
5393
5688
5717
5978
6166
6394
6811
6873
7379
7309
7838
7591
8042
7764
8216
7992
8410
8294
8792
8872
9693
10489
12056
12596
10959
7757
7922
9187
9592
10212
10095
10628
10399
10857
10693
11199
11092
11599
11449
11972
11709
12180
12076
12521
12551
12971
13153
13514
13776
13838
13973
13814
14023
13568
13579
12821
12822
12190
12332
11844
12124
11855
12187
11945
12151
12154
12314
12420
12421
12572
12382
12672
12406
12725
12411
12796
12498
12853
12520
12916
12630
12866
12703
12854
12703
12696
12698
12697
12947
12940
13330
13177
13527
13220
13510
13124
13478
13223
13581
13315
13561
13387
13730
13896
14785
16249
17162
16722
12896
12385
13357
13929
14057
14142
14037
14240
14084
14454
14134
14484
14179
14569
14252
14701
14499
14846
14743
15135
15204
15544
15640
15845
15981
15780
15884
15548
15645
15019
14965
14204
14205
13544
13575
13065
13123
12769
12893
12732
12867
12863
12845
12942
12820
13020
12740
12923
12693
13023
12658
12924
12676
12978
12584
12890
12590
12736
12607
12714
12747
12790
13007
12900
13179
13005
13269
12914
13188
12783
13115
12712
13076
12823
13157
13191
14226
15394
17328
16867
14812
10953
11963
12632
13451
13657
13710
13872
13777
13929
13654
13916
13622
13993
13654
14017
13722
14236
14064
14501
14453
14889
14961
15329
15366
15439
15480
15241
15236
14796
14694
13948
13807
13075
13159
12563
12750
12257
12462
12090
12285
12148
12323
12328
12440
12499
12453
12702
12509
12796
12553
12885
12501
12793
12456
12812
12492
12746
12397
12495
12418
12571
12558
12658
12828
12747
13075
12855
12855
12928
12888
12729
12848
12619
12872
12684
13176
13441
14976
16258
16941
14688
11266
11428
12407
12799
13092
13017
13148
13209
13141
13225
13053
13364
13174
13477
13317
13681
13450
13976
13808
14230
14175
14686
14775
15185
15226
15337
15308
15091
15013
14523
14320
13665
13618
12981
13242
12763
12889
12562
12906
12625
12792
12636
12754
12669
12773
12910
12787
12961
12774
12976
12681
13014
12706
12952
12609
12999
12689
13001
12798
12978
12598
13002
12661
13072
12911
13196
13055
13182
12997
12972
13006
12849
12930
12737
12963
12772
13167
13048
13867
14367
16100
16439
15664
11667
11721
12315
13051
13128
13266
13416
13411
13559
13354
13639
13459
13730
13470
13927
13652
14082
13824
14345
14298
14721
14737
15183
15325
15556
15570
15525
15600
15253
15254
14593
14423
13689
13674
13117
13277
12816
13030
12668
12870
12607
12732
12655
12691
12675
12579
12675
12518
12657
12665
12686
12660
12752
12597
12663
12349
12653
12441
12714
12260
12674
12435
12892
12683
12970
12803
13038
12886
12940
12798
12681
12819
12652
12839
12687
12983
12730
13305
13588
14799
15922
16574
14496
11559
11653
12506
12848
13031
13121
13233
13310
13217
13472
13283
13633
13392
13713
13513
13917
13631
13977
13812
14299
14340
14760
14821
15238
15314
15273
15320
15130
15118
14580
14405
13652
13596
12945
13014
12557
12768
12424
12654
12395
12720
12473
12818
12501
12804
12495
12634
12393
12587
12557
12579
12590
12590
12706
12462
12738
12528
12874
12576
12921
12541
12874
12615
13083
12966
13251
13171
13342
13271
13225
13248
13139
13244
13101
13264
13092
13412
13291
13934
14435
16092
16595
16081
12081
11851
12437
13168
13335
13450
13554
13564
13753
13563
13823
13571
13927
13726
14121
13810
14185
13996
14343
14240
14647
14737
15138
15266
15347
15374
15260
15295
14919
14521
14335
13937
13444
13269
12852
12880
12486
12694
12330
12636
12342
12703
12467
12765
12480
12715
12587
12731
12591
12605
12687
12589
12700
12502
12685
12453
12737
12424
12705
12354
12671
12326
12666
12519
12903
12855
13020
13051
13133
13080
12964
12989
12826
13094
12872
13239
12991
13389
13285
14476
15578
16782
16329
12861
11063
12137
12976
13442
13595
13526
13681
13724
13984
13904
14088
14086
14232
14266
14280
14270
14247
14380
14792
14940
15272
15380
15683
15702
15804
15664
15527
15260
14873
14584
14111
13725
13205
12958
12598
12489
12285
12306
12305
12375
12402
12450
12463
12508
12641
12713
12943
12948
13106
13011
13094
12857
13049
13057
13158
12985
12954
12893
12553
12874
12702
13066
13088
13141
12592
12875
12430
12681
12601
12721
12568
12734
12548
12794
12991
14333
16083
16186
15333
11123
10766
11663
12492
12928
13183
13171
13438
13406
13626
13507
13686
13622
13810
13813
14026
13902
14081
14062
14327
14473
14782
15068
15302
15421
15426
15395
15246
15121
14635
14315
13831
13608
13231
13127
12853
12930
12720
12693
12564
12536
12494
12486
12569
12538
12601
12524
12603
12551
12666
12598
12871
12807
12978
12861
13000
12895
12928
12800
12821
12781
12855
12937
12952
13012
12961
13055
12936
12987
12834
12920
12709
12809
12735
12893
12788
12978
13740
15293
16531
16507
13398
11031
11770
12414
12965
13121
13305
13312
13419
13435
13485
13408
13611
13572
13778
13682
13870
13746
13982
13862
14114
14382
14699
14917
15055
15103
15078
15005
14688
14393
13827
13442
12995
12822
12435
12406
12195
12262
12111
12196
12119
12211
12170
12263
12342
12341
12462
12500
12614
12536
12680
12615
12825
12765
12950
12868
13046
12888
12998
12907
12999
12984
13072
13237
13287
13444
13412
13476
13328
13424
13243
13396
13250
13365
13210
13382
13396
13962
15338
16796
16755
14139
11946
12417
12878
13293
13319
13401
13407
13343
13343
13346
13477
13453
13601
13592
13752
13668
13901
13906
14187
14233
14518
14676
14971
15041
15146
15097
15023
14888
14561
14320
13837
13558
13086
12940
12624
12665
12417
12539
12384
12523
12440
12553
12520
12575
12590
12598
12708
12681
12796
12734
12894
12817
13002
12840
12964
12801
12909
12755
12867
12769
12785
12728
12814
12763
12658
12732
12761
12971
12929
13053
13148
13187
13100
13072
12873
12894
12736
12860
12755
12965
12862
13260
13644
14482
15856
16392
14980
11876
11904
12543
13017
13155
13409
13373
13501
13460
13680
13562
13767
13683
13888
13782
13911
13855
14049
14118
14287
14532
14715
15006
15155
15390
15307
15370
15164
15185
14710
14414
13814
13555
13039
12900
12677
12634
12526
12511
12506
12479
12558
12529
12709
12616
12761
12668
12795
12637
12782
12652
12785
12671
12807
12734
12924
12835
12927
12752
12916
12863
13116
13091
13192
13118
13133
13152
13069
13076
12893
12972
12907
13067
12984
13157
13196
13665
14234
15746
16832
16405
12536
11778
12450
13116
13368
13466
13585
13519
13576
13534
13648
13610
13858
13760
13916
13895
14160
14148
14403
14492
14753
14947
15269
15581
15780
15913
15806
15827
15566
15385
14831
14489
13942
13683
13282
13182
12892
12854
12712
12751
12635
12638
12627
12604
12628
12549
12639
12594
12604
12562
12632
12601
12743
12637
12692
12571
12710
12544
12669
12539
12542
12444
12614
12589
12829
12830
12889
12951
13019
13077
13011
13054
12881
12999
12933
13039
12923
13140
13219
14035
14815
16324
16376
14377
11364
11888
12707
13194
13348
13382
13553
13513
13698
13545
13729
13527
13675
13561
13759
13729
13902
13930
14164
14337
14565
14842
15089
15227
15256
15351
15204
15198
15279
15197
14070
13413
12865
12695
12175
11852
11508
11663
11460
11699
11610
12040
12018
12493
12343
12724
12574
12835
12632
12679
12552
12632
12627
12632
12696
12614
12748
12600
12777
12510
12833
12731
13208
13115
13385
13224
13418
13249
13433
13307
13316
13181
13193
13296
13244
13377
13247
13664
14300
15637
16555
16723
13527
11553
12037
13006
13172
13358
13296
13512
13712
13847
13941
13874
14094
14006
14243
14109
14457
14296
14732
14650
15081
15028
15491
15543
15878
15820
15848
15734
15625
15189
14864
14232
13842
13422
13070
12873
12665
12697
12464
12600
12401
12714
12472
12725
12493
12773
12495
12697
12547
12696
12613
12741
12636
12597
12598
12505
12566
12384
12671
12505
12817
12731
13035
12883
13227
13013
13204
12979
13078
12980
13061
13058
13059
13205
13331
13700
14820
16883
16705
15837
11248
11045
11834
12816
13079
13436
13370
13576
13556
13652
13646
13624
13701
13633
13828
13686
13976
13835
14211
14060
14516
15443
15599
15959
15686
15747
15411
15367
14725
14545
13899
13701
13262
13125
12849
12714
12627
12423
12489
12338
12527
12407
12737
12549
12806
12609
12885
12696
12945
12749
12923
12740
12813
12743
12703
12719
12667
12745
12659
12902
12716
13063
12800
13019
12676
12829
12586
12778
12622
12861
12785
12895
13018
13690
15193
16487
16011
14125
10557
11003
12182
12611
13143
13009
13431
13264
13531
13383
13623
13533
13645
13615
13685
13829
14049
14070
14338
14473
14702
14923
15076
15301
15163
15268
14988
14997
14439
14205
13496
13351
12765
12770
12404
12437
12253
12339
12230
12241
12372
12366
12496
12436
12632
12497
12749
12505
12744
12520
12767
12600
12841
12618
12798
12690
12745
12623
12654
12719
12715
12894
12835
13110
12976
13201
12933
13148
12840
13123
12936
13199
13060
13207
13219
13662
14750
16400
16755
16067
12257
11412
12443
12887
13411
13343
13671
13476
13748
13616
13889
13730
14054
13839
14155
14027
14402
14350
14637
14702
15043
15208
15505
15743
15767
15864
15564
15500
15040
14895
14173
14151
13575
13581
13051
13122
12855
12923
12752
12731
12773
12636
12810
12696
12782
12650
12850
12781
12978
12947
13098
13079
13190
13141
13129
13120
13110
13128
12934
12893
12760
12883
12837
13035
12998
13196
13144
13316
13188
13229
13061
13080
13151
13167
13301
13391
13569
13488
14327
15463
16977
17016
13150
11888
12512
12854
13169
13079
13281
13197
13326
13217
13359
13268
13384
13297
13384
13362
13372
13516
13494
13714
13888
14235
14332
14648
14677
14896
14705
14779
14519
14288
13780
13458
13055
12790
12561
12395
12351
12225
12328
12202
12254
12180
12325
12191
12451
12351
12534
12426
12484
12372
12463
12462
12511
12555
12574
12590
12588
12707
12652
12852
12706
12836
12678
12789
12504
12596
12501
12709
12782
12891
12903
12955
12968
14557
14828
14619
14616
14352
14474
14755
15425
16452
16897
14993
11988
12104
12756
13068
13099
13114
13195
13296
13228
13347
13290
13482
13333
13482
13350
13554
13536
13703
13579
13847
13950
14259
14454
14562
14818
14846
14919
14838
14741
14209
13844
13204
13102
12612
12652
12463
12473
12356
12449
12427
12501
12499
12497
12606
12612
12698
12744
12829
12771
12768
12614
12741
12695
12807
12683
12824
12828
12984
12865
12932
12894
12940
12896
13032
12887
12843
12792
12831
12950
13116
13170
13303
13374
13380
13427
13284
13235
12997
12919
12479
12642
12407
12863
13003
13860
14555
16343
15995
13177
11786
12638
13276
13628
13762
13806
13945
13762
13926
13712
13875
13576
13975
13771
14073
13886
14332
14272
14683
14746
15131
15291
15579
15722
15756
15950
15842
15927
15440
15358
14619
14441
13732
13694
13152
13261
12864
13115
12848
12877
12757
12749
12769
12698
12855
12681
12923
12793
12821
12756
12850
12700
12879
12624
12865
12558
12825
12521
12817
12581
12880
12628
12813
12617
12705
12656
12715
12803
12903
13107
13049
13293
13078
13290
13087
13342
12970
13211
12876
13232
12971
13268
13286
13997
14822
16266
16345
14824
11174
11357
12375
12887
13330
13039
13519
13346
13724
13522
13861
13711
13998
13922
14125
14136
14183
14393
14503
14783
14757
15116
14987
15380
15216
15554
15164
15418
15015
14992
14469
14291
13609
13697
13310
13453
13099
13219
13010
13122
13041
13045
13089
13042
13200
13035
13278
13019
13298
13022
13368
12998
13207
12870
13128
12911
13114
12927
12987
12837
12811
12773
12643
12898
12843
13165
12972
13279
12878
13147
12791
13083
12752
13026
12833
13034
12967
13233
13542
14856
16516
15974
15145
10930
11323
12000
13081
13192
13616
13453
13796
13577
13779
13581
13722
13614
13692
13714
13761
13907
13830
14132
14098
14591
14582
15136
15354
15667
15510
15715
15373
15398
14703
14605
13886
13789
13208
13173
12762
12825
12653
12692
12548
12512
12556
12461
12616
12477
12817
12595
12965
12723
13015
12732
13042
12814
13034
12869
13034
12909
12874
12765
12680
12660
12519
12711
12528
12885
12706
13034
12786
13170
12849
13076
12749
12914
12769
12970
12881
12965
12979
13099
13475
14498
16208
15875
15471
11318
11229
11831
12872
12987
13355
13196
13510
13366
13532
13428
13692
13519
13802
13651
13918
13851
14033
14124
14258
14541
14680
15111
15233
15712
15449
15677
15248
15431
14848
14662
13931
13685
13130
13000
12658
12629
12581
12513
12555
12422
12620
12431
12699
12436
12764
12487
12842
12600
12917
12742
12955
12767
12894
12859
12916
12867
12789
12827
12622
12773
12511
12800
12571
12908
12635
12899
12662
12968
12771
13051
12944
13103
13081
13124
13117
13043
13100
12882
13125
12950
13238
12951
13319
13438
14508
15385
16235
15829
13057
11153
12157
12633
13226
13055
13316
13201
13355
13279
13284
13324
13295
13406
13256
13550
13466
13791
13574
14056
13919
14436
14471
15125
15156
15474
15372
15528
15358
15179
14852
14341
13999
13437
13372
12976
13136
12698
12916
12586
12878
12508
12688
12440
12624
12462
12585
12560
12511
12522
12472
12627
12456
12705
12419
12750
12529
12836
12485
12809
12530
12754
12533
12770
12749
12873
12851
12919
12991
13260
13073
13089
13002
13049
13107
13188
13379
13279
13503
13310
13566
13164
13454
13115
13364
13083
13339
13122
13396
13418
13988
14576
15631
16144
15444
12041
11785
12846
13115
13563
13297
13703
13464
13828
13528
13833
13638
13786
13626
13794
13796
13852
14026
14042
14343
14346
14831
14807
15398
15323
15753
15497
15766
15400
15405
14847
14525
13898
13550
13222
12986
12863
12655
12790
12514
12758
12544
12870
12562
12848
12456
12753
12573
12877
12573
12899
12560
12857
12549
12727
12485
12684
12555
12640
12526
12543
12614
12565
12774
12612
12871
12577
12863
12575
12937
12724
13058
12820
13081
12921
13208
13248
13369
13343
13386
13519
13400
13576
13340
13498
13126
13367
13015
13336
13073
13524
13953
14894
15687
16072
14052
11538
12066
12776
13346
13289
13532
13360
13653
13431
13779
13483
13779
13453
13779
13601
13903
13746
13906
13948
14134
14262
14484
14840
14911
15199
15403
15364
15228
15091
14590
14351
13686
13566
12954
12959
12519
12728
12423
12721
12467
12676
12424
12535
12448
12464
12495
12525
12671
12542
12751
12590
12882
12575
12844
12544
12859
12559
12797
12531
12740
12560
12746
12674
12699
12717
12654
12793
12713
12966
12757
13076
12807
13163
12845
13059
12725
13047
12840
13196
13109
13306
13202
13237
13307
13206
13310
13009
13180
12913
13212
12942
13339
13243
14199
14470
15722
15854
13432
11552
12525
12894
13514
13309
13587
13472
13605
13574
13638
13662
13650
13792
13644
13976
13849
14209
13943
14384
14272
14850
14821
15386
15422
15824
15735
15844
15715
15530
15225
14684
14297
13648
13511
12990
13083
12618
12813
12467
12748
12440
12701
12447
12614
12407
12492
12498
12539
12629
12540
12721
12557
12733
12470
12784
12479
12774
12488
12795
12508
12771
12595
12764
12696
12866
12853
12905
13021
12957
13119
12907
13176
13044
13103
12987
13029
12868
13117
12997
13376
13130
13533
13240
13569
13272
13521
13254
13400
13248
13432
13446
13459
13710
13945
14666
15293
16144
15770
12937
11798
12846
13188
13674
13494
13818
13628
13903
13799
13942
13913
13937
13994
13869
14117
13965
14232
14074
14477
14362
14887
14770
15324
15322
15716
15567
15740
15492
15412
15064
14602
14168
13624
13437
12901
12914
12503
12737
12352
12653
12320
12568
12270
12467
12282
12408
12303
12681
12461
12734
12547
12739
12604
12709
12735
12765
12854
12770
12969
12750
13000
12695
12958
12669
12995
12668
13001
12777
13019
12766
12949
12924
13010
13005
12988
13033
12805
13049
12843
13262
13161
13524
13279
13641
13370
13649
13327
13505
13155
13275
13204
13330
13368
13500
14048
14552
15570
15690
15633
12006
12013
12465
13447
13327
13639
13428
13678
13467
13627
13540
13626
13640
13601
13739
13597
13878
13702
14114
13972
14444
14624
15078
15090
15530
15359
15684
15378
15606
15004
14898
14164
13952
13366
13193
12852
12743
12652
12547
12607
12401
12570
12386
12642
12352
12706
12413
12759
12470
12716
12450
12641
12420
12590
12476
12497
12490
12434
12556
12411
12615
12358
12671
12416
12778
12465
12818
12595
12905
12660
12904
12739
12874
12766
12753
12749
12766
12942
12884
13214
13046
13386
13128
13446
13107
13402
13039
13268
13080
13374
13283
13547
13759
14866
15500
16498
16178
13485
11977
12683
13374
13597
13774
13638
13873
13637
13906
13645
13980
13657
13981
13709
14024
13843
14148
14099
14313
14374
14590
14854
15087
15500
15512
15819
15562
15791
15314
15287
14515
14322
13506
13375
12847
12894
12646
12684
12611
12623
12663
12535
12626
12371
12581
12250
12562
12244
12533
12228
12541
12244
12491
12227
12417
12250
12355
12319
12348
12489
12385
12562
12333
12558
12285
12632
12347
12719
12479
12761
12449
12679
12439
12834
12655
13075
12851
13246
13075
13332
13198
13276
13202
13135
13210
13145
13327
13190
13642
13827
14640
15466
17067
16160
12964
11805
12688
13025
13415
13374
13559
13536
13540
13624
13576
13748
13485
13785
13546
13953
13656
14128
13938
14432
14322
14769
14848
15307
15438
15677
15727
15692
15672
15335
15092
14344
14156
13426
13324
12692
12874
12443
12646
12269
12514
12326
12599
12545
12651
12657
12664
12851
12916
12827
12938
12878
12865
12943
12785
12941
12677
12919
12655
12960
12577
12939
12604
12930
12668
13002
12762
12905
12756
12984
13053
13167
13388
13334
13607
13420
13742
13457
13717
13212
13465
13166
13519
13325
13632
13603
14138
14846
16078
16905
16303
12758
11648
12667
13097
13636
13389
13791
13437
13767
13464
13847
13594
13919
13746
13907
13849
13989
14101
14129
14417
14406
14919
14943
15472
15373
15844
15614
15929
15486
15612
14774
14669
13856
13696
12999
13068
12586
12716
12399
12498
12368
12478
12479
12413
12569
12479
12736
12535
12813
12506
12824
12494
12811
12505
12780
12475
12702
12541
12680
12519
12497
12523
12486
12704
12712
13018
12911
13253
13004
13269
12855
13154
12848
13154
12926
13174
13054
13296
13435
14219
15584
16768
16530
13813
10615
11285
12473
12860
13393
13126
13523
13243
13551
13383
13639
13535
13675
13614
13698
13785
13772
13980
13923
14217
14561
14879
15097
15468
15447
15606
15313
15481
14943
14906
14150
14029
13324
13301
12811
12898
12594
12613
12406
12411
12440
12389
12511
12362
12624
12422
12758
12548
12903
12577
12900
12592
12874
12602
12826
12703
12872
12813
12784
12811
12757
12914
12774
13144
12992
13370
13095
13381
12988
13234
12805
13060
12830
13044
12875
13046
13089
13320
14228
15352
16688
16450
13718
10853
11999
12484
13239
13055
13503
13275
13562
13359
13639
13384
13712
13461
13775
13608
13902
13811
14073
14198
14428
14651
14833
15216
15215
15561
15305
15515
15064
15147
14404
14189
13480
13341
12748
12717
12459
12446
12330
12269
12315
12253
12404
12275
12590
12344
12670
12367
12713
12437
12756
12543
12797
12540
12725
12555
12655
12587
12511
12584
12586
12794
12722
13112
12874
13236
12969
13293
12902
13070
12731
12926
12686
12863
12736
12866
12989
13131
13970
15037
16635
16692
13964
11439
12349
12907
13290
13142
13496
13266
13568
13266
13637
13326
13680
13466
13786
13613
13874
13833
14051
14216
14388
14700
14837
15219
15179
15551
15248
15468
14991
15035
14286
14104
13411
13280
12764
12707
12407
12378
12315
12240
12389
12243
12445
12252
12606
12340
12673
12386
12792
12539
12858
12626
12902
12692
12756
12588
12629
12603
12550
12567
12457
12679
12486
12891
12739
13132
12872
13256
12921
13145
12823
13032
12845
12984
12763
13143
13002
13412
13938
15266
16630
16810
13574
11310
12157
12813
13364
13149
13485
13286
13639
13314
13741
13424
13720
13447
13775
13620
13859
13851
13995
14129
14278
14688
14758
15161
15095
15560
15333
15640
15227
15343
14681
14503
13814
13581
13046
12966
12712
12613
12528
12406
12498
12334
12549
12291
12612
12298
12644
12312
12672
12350
12602
12349
12619
12466
12598
12518
12536
12557
12428
12534
12328
12591
12317
12706
12554
13066
13011
13307
12958
13127
12702
13009
12684
13053
12783
13096
12808
13124
13004
13858
14901
16479
16506
13307
11215
11749
12804
12934
13328
13122
13554
13279
13687
13428
13740
13521
13801
13639
13845
13767
13884
13993
14041
14333
14427
14897
14911
15437
15312
15633
15274
15485
14985
14907
14199
14013
13481
13325
13061
12934
12890
12733
12810
12599
12792
12502
12774
12469
12743
12412
12748
12482
12835
12640
12925
12902
13159
13230
13292
13249
13483
13227
13214
13001
12883
12859
12868
13082
12942
13244
13044
13391
13026
13260
12837
13050
12743
12978
12804
13040
12988
13421
14197
15917
17167
16219
12043
11133
12162
12584
13038
12833
13219
12937
13316
13108
13543
13397
13719
13619
13903
13947
14093
14192
14185
14376
14318
14748
14735
15291
15163
15600
15244
15520
15088
15171
14518
14284
13609
13350
12918
12705
12545
12400
12483
12296
12524
12245
12525
12238
12642
12406
12863
12666
13031
12726
13055
12642
12861
12443
12729
12437
12636
12415
12511
12451
12560
12689
12796
13063
12984
13365
13131
13395
13005
13251
12886
13216
12896
13180
12948
13271
13229
13655
14720
16581
16977
16096
11771
10891
12079
12548
13239
13012
13491
13216
13594
13323
13687
13489
13725
13537
13708
13726
13831
13985
14085
14394
14381
14881
14918
15536
15401
15869
15543
15820
15358
15446
14755
14489
13838
13574
13217
13034
12911
12826
12606
12761
12563
12608
12601
12533
12696
12585
12839
12546
12878
12608
12916
12495
12817
12469
12696
12461
12732
12462
12573
12574
12703
12744
12656
12741
12497
12678
12370
12675
12389
12745
12465
12897
12680
13171
13508
15130
16483
16554
14604
10561
11195
11950
12759
12810
13143
13033
13424
13127
13461
13150
13505
13258
13599
13395
13674
13623
13909
13958
14166
14469
14677
15190
15278
15640
15381
15666
15219
15347
14647
14519
13728
13712
13127
13201
12727
12982
12603
12828
12495
12679
12469
12630
12570
12596
12625
12584
12802
12651
12876
12629
12943
12611
12949
12619
12901
12514
12806
12580
12751
12646
12926
12996
13117
13197
13107
13186
12934
13069
12799
13091
12772
13126
12855
13324
13242
14192
15046
16724
16845
14775
11229
11795
12603
13065
13383
13269
13593
13330
13687
13391
13766
13502
13908
13692
14043
13899
14222
14199
14515
14688
14930
15294
15436
15692
16003
15981
15968
15852
15482
15198
14564
14294
13669
13636
13078
13272
12854
13128
12701
12935
12680
12883
12657
12797
12706
12728
12763
12678
12831
12617
12858
12646
12955
12571
12885
12552
12820
12420
12681
12415
12664
12579
12864
12893
13041
13112
12993
13063
12803
13006
12686
12963
12633
12954
12610
13116
12941
14112
15235
16712
16450
13073
11070
11785
12541
12799
13095
12989
13301
13063
13402
13064
13440
13155
13525
13284
13763
13578
14026
13795
14290
14181
14651
14649
15155
15129
15335
15215
15174
15067
14674
14367
13743
13575
12899
12864
12347
12589
12181
12486
12151
12434
12188
12405
12271
12374
12298
12335
12406
12334
12535
12385
12692
12425
12732
12385
12753
12385
12722
12406
12669
12465
12693
12614
12847
12944
13085
13217
13189
13383
13122
13343
12955
13246
12967
13339
12978
13313
13085
13515
13758
14849
16198
16909
15351
11603
11812
12422
13175
13389
13420
13533
13600
13530
13764
13572
13864
13685
14064
13797
14203
14009
14467
14338
14804
14811
15313
15417
15751
15763
15785
15780
15582
15490
14902
14697
13946
13823
13127
13198
12684
12901
12437
12640
12418
12664
12516
12628
12488
12492
12574
12468
12598
12390
12623
12364
12732
12433
12744
12388
12751
12428
12740
12525
12789
12589
12609
12580
12659
12837
12861
13159
13066
13400
13120
13384
12987
13249
12891
13219
12919
13271
13059
13510
13370
14290
14814
16521
16793
15545
11823
12180
12838
13463
13651
13637
13863
13690
13958
13765
14099
13848
14224
13914
14262
13939
14287
14112
14414
14377
14693
14848
15081
15324
15351
15536
15324
15485
15024
15035
14317
14198
13529
13476
12827
12884
12487
12636
12495
12589
12522
12513
12559
12438
12568
12385
12655
12350
12661
12371
12722
12418
12755
12452
12722
12480
12730
12591
12721
12696
12682
12713
12604
12760
12574
12858
12860
13182
13161
13324
13147
13426
13152
13381
13049
13301
12946
13266
12979
13259
13055
13442
13467
14407
15618
16489
16163
12460
11421
11982
12926
12983
13467
13291
13674
13349
13694
13427
13736
13530
13774
13677
13847
13854
13963
14101
14090
14424
14464
14921
14894
15419
15213
15522
15165
15373
14855
14800
14082
13818
13356
13181
12928
12736
12656
12478
12569
12346
12572
12350
12653
12419
12754
12444
12748
12421
12669
12445
12642
12457
12839
12555
12817
12601
12823
12689
12912
12897
12967
13015
12954
13033
12816
13115
12915
13308
13094
13447
13139
13466
13205
13428
13082
13193
12972
13054
12957
12993
13098
13117
13484
14128
15434
16509
16766
13790
11629
11850
12925
13059
13398
13237
13480
13328
13536
13502
13555
13658
13632
13870
13814
14147
13957
14331
14179
14698
14653
15320
15322
15847
15759
15969
15782
15812
15533
15201
14831
14284
13931
13291
13181
12631
12551
12484
12552
12405
12612
12365
12648
12418
12730
12386
12700
12395
12674
12423
12675
12477
12621
12446
12504
12528
12435
12557
12462
12711
12485
12819
12586
12978
12817
13214
12985
13322
12999
13115
12842
12829
12665
12683
12703
12635
12785
12620
12981
13240
14260
15532
16778
15049
11411
11137
12291
12710
13120
13093
13248
13175
13218
13253
13199
13390
13285
13590
13427
13827
13620
14039
13858
14376
14324
14887
14974
15460
15479
15794
15462
15631
15172
15065
14407
14086
13576
13258
12988
12757
12773
12579
12750
12503
12763
12474
12831
12551
12895
12558
12798
12527
12769
12673
12833
12742
12808
12877
12808
12948
12836
13010
12702
12959
12668
13039
12834
13256
12962
13288
13051
13215
12956
12995
12856
12917
12929
12932
13140
13049
13412
13544
15009
16398
17029
15443
11150
10944
