14167
14350
14274
14371
14413
14399
14577
14603
14941
14899
15319
15183
15549
15156
15325
14804
14819
14222
14050
13341
13056
12628
12472
12335
12286
12308
12093
12229
11918
12211
11968
12346
12136
12505
12210
12495
12306
12605
12380
12573
12457
12553
12559
12529
12574
12450
12671
12395
12609
12329
12660
12404
12819
12614
12989
12840
13117
12861
13005
12828
12875
12957
12943
13014
12893
13130
13047
13602
14251
16231
16629
15940
11739
11870
12536
13312
13113
13522
13277
13688
13413
13634
13468
13638
13500
13614
13621
13643
13799
13774
14098
14059
14484
14439
14945
14834
15251
14960
15200
14787
14863
14312
14071
13542
13267
12917
12686
12609
12359
12478
12275
12465
12207
12537
12264
12689
12447
12766
12524
12829
12612
12820
12731
12812
12795
12773
12907
12755
12923
12710
12941
12674
13019
12771
13147
13005
13370
13152
13453
13261
13423
13261
13270
13212
13206
13342
13230
13365
13652
13723
14303
15682
17166
17343
13767
12071
12317
13190
13161
13607
13347
13725
13495
13773
13596
13811
13717
13875
13861
13882
14020
13927
14173
14083
14479
14371
14838
14754
15220
15041
15306
14914
15020
14655
14515
13997
13672
13306
13039
12926
12642
12731
12536
12716
12473
12842
12506
12796
12525
12860
12663
13011
12816
13009
12941
13101
13109
13092
13254
13166
13336
13025
13208
12896
13189
12909
13320
13127
13477
13241
13616
13325
13561
13138
13430
13160
13424
13236
13465
13391
13656
14082
15054
16646
17063
15298
11476
12191
12702
13436
13282
13695
13478
13803
13494
13804
13567
13719
13566
13637
13619
13716
13860
13808
14127
14010
14392
14354
14823
14706
15076
14743
14947
14526
14582
14047
13878
13377
13155
12809
12543
12448
12294
12448
12213
12483
12190
12564
12332
12732
12501
12829
12625
12931
12797
13042
12957
13017
12958
12900
12906
12768
13036
13000
13022
13172
13309
13296
13457
13196
13388
13033
13263
12878
13229
12956
13316
13058
13315
13201
13687
14771
16724
16573
15723
11577
11145
12350
12787
13362
13174
13622
13323
13635
13272
13622
13370
13712
13490
13757
13742
13920
13899
14022
14131
14218
14641
14620
15032
14854
15206
14871
15091
14629
14678
13978
13868
13239
13143
12765
12671
12560
12502
12511
12399
12642
12402
12643
12393
12758
12462
12833
12551
12855
12540
12843
12621
12958
12634
12913
12628
12974
12742
12986
12830
12949
12785
12773
12887
12863
13156
12935
13210
12981
13342
13017
13240
12773
12958
12596
12871
12676
12867
12800
13125
13120
13890
15562
16615
16330
12319
11543
11958
12816
12663
13146
12871
13233
12980
13278
13161
13490
13412
13592
13554
13617
13775
13759
14064
14036
14476
14570
14873
14886
15199
15036
15143
14841
14924
14494
14304
13694
13450
12992
12845
12602
12528
12468
12367
12314
12487
12485
12549
12553
12529
12631
12570
12735
12601
12769
12638
12837
12645
12858
12678
12829
12678
12804
12759
12904
12772
12759
12777
12891
13156
13219
13361
13320
13513
13413
13583
13304
13367
13142
13264
13153
13290
13169
13316
13441
13894
14726
16534
17456
15723
12352
12218
12916
13123
13388
13295
13473
13246
13393
13294
13413
13354
13394
13504
13540
13635
13668
13846
13810
14125
14177
14541
14650
14993
14956
15168
15042
15091
14629
14462
13899
13682
13192
13091
12774
12719
12521
12556
12515
12526
12521
12497
12575
12521
12628
12497
12590
12421
12634
12486
12654
12511
12593
12490
12594
12553
12602
12632
12690
12764
12733
12666
12620
12777
12756
12991
12920
13175
12996
13190
13087
13169
12948
12998
12894
13024
13036
13113
13098
13220
13552
14195
16030
17060
16002
11864
11794
12235
12922
12932
13185
13127
13385
13298
13475
13468
13542
13671
13727
13802
13854
14060
14240
14320
14434
14638
14788
15085
15185
15458
15326
15458
15179
15142
14673
14548
14009
13783
13401
13281
13050
13011
12955
12884
12983
12986
13099
12934
13121
12992
13158
13069
13243
13046
13214
13079
13215
13178
13265
13254
13247
13229
13195
13251
13107
13198
13123
13296
13215
13470
13334
13546
13406
13519
13269
13357
13278
13376
13316
13362
13491
13536
13693
14440
16110
17116
17241
13926
11410
12132
12971
13290
13559
13468
13731
13622
13872
13684
13878
13779
13954
13882
14024
13978
14054
14194
14297
14492
14571
14889
14953
15227
15069
15180
14865
14907
14491
14298
13722
13533
13062
12932
12667
12593
12475
12358
12384
12328
12441
12348
12533
12396
12638
12503
12693
12595
12796
12697
12941
12802
12844
12706
12692
12671
12655
12721
12695
12949
12965
13252
13187
13415
13247
13421
13158
13304
13190
13374
13256
13329
13357
13540
13742
14758
16525
16853
16404
11011
11529
12266
12913
13047
13300
13318
13575
13425
13637
13465
13681
13569
13803
13755
13929
13951
14108
14102
14177
14325
14473
14714
14819
14986
14712
14752
14531
14541
14092
13970
13429
13228
12776
12612
12308
12288
12107
12127
12096
12104
12170
12146
12312
12282
12416
12272
12468
12274
12438
12295
12496
12391
12485
12385
12433
12397
12310
12368
12323
12546
12515
12787
12741
13041
12924
13094
12940
13115
12889
13011
12936
13057
13002
13204
13239
13452
13955
15436
17120
17424
14153
11755
12246
12724
13135
13119
13318
13170
13337
13196
13444
13325
13569
13517
13736
13717
13869
13827
13890
14056
14146
14400
14541
14871
14860
15134
14918
15016
14682
14608
14090
13900
13437
13256
12847
12743
12535
12445
12500
12474
12534
12529
12667
12587
12813
12672
12879
12769
12995
12823
12989
12868
13039
12982
13022
12905
12896
12902
12810
12834
12765
12932
12784
13024
12940
13150
13207
13339
13137
13226
12945
13068
12887
13074
12978
13205
13119
13446
13628
14454
15904
17318
16723
12716
12000
12553
13213
13281
13599
13473
13610
13397
13689
13538
13725
13586
13785
13735
13944
13928
14062
14084
14208
14393
14480
14856
14926
15230
15091
15228
14967
15039
14606
14443
13892
13709
13275
13144
12853
12760
12616
12561
12548
12444
12579
12414
12565
12424
12657
12516
12744
12593
12805
12664
12864
12765
12881
12845
12968
12852
13047
12939
13062
12869
12871
12909
12924
13167
13139
13305
13210
13396
13209
13297
13116
13159
12910
13103
12985
13176
13124
13285
13367
13964
15025
16637
16958
13974
11618
11969
12825
12972
13284
13222
13454
13293
13517
13351
13599
13594
13783
13782
13843
13904
13931
14090
14071
14355
14352
14716
14739
15146
15015
15211
14974
15062
14736
14660
14204
13915
13507
13309
13029
12823
12795
12643
12745
12589
12802
12659
12934
12631
12810
12735
12817
12642
12856
12647
12826
12632
12876
12757
12889
12778
12843
12793
12887
12877
12749
12814
12744
12892
12871
13145
13012
13270
13175
13370
13111
13235
13001
13102
13014
13070
13008
13075
13218
13276
14091
15050
16487
16485
13854
11081
11943
12541
13197
13167
13430
13276
13396
13249
13355
13373
13373
13423
13446
13618
13539
13755
13730
14024
14042
14395
14426
14897
14944
15203
15080
15155
14983
14881
14573
14245
13874
13566
13258
13201
12946
12903
12875
12763
12844
12744
12928
12844
13107
12989
13216
13062
13272
13109
13278
13128
13239
13053
13142
13052
13104
13090
12954
13077
13059
13272
13223
13387
13234
13437
13196
13315
13079
13156
12986
13145
13068
13177
13190
13251
13441
13753
15208
16879
16943
15268
11105
11283
12357
12772
13253
13154
13415
13355
13501
13430
13463
13488
13514
13601
13590
13795
13759
14006
13924
14211
14180
14588
14604
14963
14925
15059
14837
14845
14422
14257
13667
13422
12972
12779
12445
12348
12233
12199
12175
12081
12227
12164
12311
12204
12395
12226
12438
12258
12435
12293
12462
12344
12504
12464
12569
12574
12545
12584
12515
12661
12538
12688
12546
12807
12679
12974
12894
13153
13068
13190
13099
13172
13046
12963
12876
12900
12990
12910
13075
13069
13333
13727
15080
16611
17251
14819
11703
11905
12726
13009
13247
13311
13467
13486
13444
13511
13536
13664
13819
13866
13925
14043
14021
14211
14191
14492
14504
14872
14834
15180
15097
15270
15007
15032
14700
14536
14095
13643
13273
13002
12852
12634
12685
12491
12654
12473
12654
12534
12719
12570
12819
12713
12841
12688
12844
12738
12828
12824
12838
12869
12829
12962
12916
13066
13006
13123
12877
13108
13025
13276
13260
13596
13527
13662
13502
13517
13431
13346
13272
13118
13164
13074
13296
13100
13375
13334
14210
15300
17089
16974
12486
11910
12882
13295
13547
13423
13700
13649
13772
13706
13814
13841
13849
13949
13910
13966
13903
14119
14045
14352
14252
14591
14630
15017
15033
15231
15023
15038
14791
14570
14138
13755
13435
13037
12855
12551
12624
12378
12494
12278
12427
12264
12473
12351
12476
12381
12521
12534
12604
12596
12549
12601
12518
12630
12490
12630
12454
12654
12495
12659
12428
12522
12427
12641
12702
12940
12965
13049
13118
13136
13150
12962
13030
13005
13009
13074
13108
12978
13242
13246
14073
15211
16862
16576
13066
11289
12202
12732
13195
13172
13416
13420
13530
13550
13597
13682
13686
13877
13876
14173
14107
14341
14280
14571
14566
14925
14987
15313
15311
15459
15309
15204
15007
14780
14554
14108
13813
13297
13150
12788
12851
12632
12824
12620
12759
12659
12862
12768
12871
12843
12897
12924
12848
12910
12861
13007
12816
13040
12882
13026
12836
13041
12899
13025
12829
12990
12925
13234
13150
13468
13431
13613
13497
13507
13351
13309
13232
13164
13268
13221
13409
13286
13595
13738
15013
16491
17153
15633
11373
11309
12300
12875
13196
13192
13347
13445
13443
13511
13462
13695
13550
13736
13555
13826
13741
14085
13994
14322
14372
14722
14808
15074
15144
15167
15162
15026
14966
14592
14427
13906
13704
13222
13137
12714
12793
12526
12613
12443
12558
12440
12548
12550
12641
12753
12740
12833
12655
12779
12622
12788
12741
12890
12733
12849
12666
12821
12611
12865
12859
13157
13077
13336
13188
13281
13116
13127
13040
13025
13095
13073
13204
13121
13339
13359
14121
15172
16879
16902
14758
10849
11722
12337
13016
13129
13331
13404
13422
13462
13407
13564
13543
13754
13658
13888
13769
14040
14037
14350
14295
14614
14726
15058
15154
15297
15270
15190
15103
14831
14658
14077
13763
13095
12963
12526
12504
12209
12314
12086
12272
12143
12288
12239
12351
12349
12630
12526
12702
12594
12692
12684
12742
12778
12703
12822
12670
12844
12675
12804
12562
12713
12503
12679
12570
12908
12921
13133
13103
13215
13179
13172
13171
13079
13201
13084
13259
13118
13451
13371
14122
14953
16952
17327
15152
11763
12122
12662
13094
13197
13307
13438
13367
13485
13356
13629
13512
13699
13483
13757
13640
13908
13778
14081
14107
14387
14469
14747
14920
15028
15143
15033
15108
14781
14678
14118
13920
13277
13106
12820
12848
12582
12761
12579
12819
12566
12769
12576
12824
12745
12865
12782
12845
12876
12900
12981
12931
13096
12951
13127
12901
13073
12793
12908
12712
12896
12739
13011
13000
13198
13190
13277
13312
13294
13329
13158
13271
13132
13284
13177
13382
13283
13592
13980
15114
16678
17248
14382
11622
12025
12704
13075
13092
13243
13262
13455
13296
13511
13394
13633
13473
13736
13589
13861
13762
13995
13983
14218
14330
14564
14805
15077
15026
15128
14939
14855
14653
14301
13962
13496
13258
12818
12840
12543
12684
12488
12706
12590
12840
12719
12875
12756
12856
12829
12828
12855
12750
12763
12664
12772
12631
12779
12624
12847
12745
12991
12790
12934
12711
12886
12839
13018
13082
13197
13254
13264
13369
13229
13303
13110
13207
13030
13194
13024
13233
13120
13481
13687
14658
16129
17180
15855
11779
11775
12456
13089
13145
13445
13352
13588
13385
13628
13508
13794
13687
13918
13770
14077
13997
14307
14245
14573
14642
15040
15105
15298
15324
15323
15211
15003
14900
14500
14220
13682
13502
13020
12929
12530
12588
12288
12383
12247
12389
12278
12394
12406
12493
12587
12578
12716
12669
12826
12683
12855
12711
12910
12681
12706
12453
12624
12518
12661
12722
12927
12995
13093
13163
13006
13067
12830
12974
12820
13036
12943
13172
12949
13275
13246
14291
15678
16973
16694
13507
10570
11623
12474
12948
13214
13471
13492
13560
13604
13554
13749
13726
13950
13855
14108
13942
14197
14147
14541
14520
14911
14957
15296
15310
15394
15351
15209
15099
14782
14481
13936
13650
13101
13026
12638
12696
12339
12438
12193
12355
12240
12363
12350
12459
12509
12564
12598
12498
12641
12544
12749
12568
12778
12643
12906
12676
12856
12657
12744
12582
12736
12726
12853
12957
12986
13151
13056
13156
12971
13164
12913
13105
12915
13096
12878
13062
13005
13436
14126
15955
17182
16976
12728
11865
12353
13036
13206
13318
13375
13407
13507
13453
13576
13474
13704
13555
13822
13661
13882
13766
14087
14078
14419
14490
14818
14902
15053
15116
15064
15053
14876
14741
14192
14008
13426
13319
12862
12890
12606
12691
12496
12660
12523
12654
12575
12595
12712
12636
12725
12629
12760
12559
12643
12440
12641
12473
12658
12531
12715
12632
12773
12604
12812
12671
12870
12895
13078
13139
13220
13265
13165
13197
13251
13128
13112
13182
13188
13347
13382
13538
14021
15138
16700
17496
14710
11955
12309
13041
13263
13438
13450
13565
13549
13484
13521
13518
13656
13630
13787
13694
13867
13741
13948
13925
14264
14314
14645
14732
14971
15019
15067
15046
14895
14749
14396
14130
13682
13485
13110
13049
12771
12827
12670
12791
12628
12793
12681
12828
12800
12816
12750
12712
12817
12765
12864
12833
13010
12863
13011
12863
13058
13003
13117
12912
13066
12967
13210
13137
13414
13335
13493
13357
13498
13316
13267
13179
13151
13174
13117
13216
13172
13468
13504
14513
15921
17528
16897
12676
11720
12584
13029
13280
13291
13398
13451
13461
13523
13548
13713
13638
13790
13619
13778
13693
13942
13925
14224
14242
14544
14709
15004
15058
15096
15083
14915
14824
14481
14218
13757
13506
12980
12853
12530
12550
12296
12417
12277
12436
12409
12470
12480
12565
12599
12621
12723
12660
12718
12718
12765
12807
12854
12695
12721
12641
12739
12682
12981
12945
13174
13144
13304
13086
13206
13087
13179
13111
13200
13221
13294
13394
13477
13775
14981
16965
16990
16247
11442
11258
12079
12844
13100
13262
13219
13475
13516
13540
13574
13623
13723
13612
13715
13680
13849
13802
14068
14069
14378
14439
14793
14877
15120
15022
15048
14890
14741
14540
14178
13790
13288
13039
12662
12640
12362
12456
12263
12455
12332
12508
12441
12667
12701
12947
12792
12990
12865
12965
12818
12956
12927
12916
12881
12817
12880
12703
12917
12844
13053
12836
13035
12807
12935
12642
12712
12535
12722
12619
12766
12831
12882
13100
13735
15175
16549
17014
14346
10630
11046
12060
12443
12953
12854
13255
13240
13506
13470
13665
13779
13804
13948
13896
14118
13918
14147
13795
14071
13989
14399
14281
14684
14592
14862
14747
14878
14653
14435
14062
13641
13290
12780
12644
12273
12400
12104
12224
12212
12465
12334
12649
12524
12876
12767
13115
12928
13205
13046
13368
13209
13292
13187
13277
13260
13265
13439
13420
13606
13537
13818
13495
13550
13145
13241
12908
13171
12972
13296
13245
13397
13364
14213
15666
16969
17145
14125
10652
11291
12292
12576
13054
12898
13350
13193
13501
13341
13577
13431
13549
13510
13645
13708
13736
13939
13870
14207
14199
14712
14699
15144
14949
15191
14821
14931
14472
14306
13694
13344
12879
12616
12247
12380
12145
12204
12055
12128
12162
12133
12204
12104
12349
12214
12595
12387
12631
12432
12725
12514
12823
12681
12828
12646
12790
12741
12811
12976
12978
13132
13049
13128
12789
12899
12558
12882
12598
12838
12607
12838
12642
12914
13608
15135
16475
16815
14211
10567
11509
12198
13093
13220
13579
13425
13803
13612
13814
13632
13925
13745
13979
13965
14181
14319
14328
14471
14545
14897
14960
15336
15211
15463
15167
15369
14913
14835
14324
14189
13550
13415
13003
13122
12673
12805
12531
12616
12470
12569
12498
12545
12481
12340
12549
12405
12615
12430
12752
12472
12848
12558
12802
12574
12859
12616
12922
12933
13095
13108
13234
13395
13268
13340
13081
13278
13003
13307
13078
13469
13201
13587
13427
14728
16095
16895
16384
13275
10824
11788
12613
13157
13556
13505
13831
13576
13879
13574
13820
13639
14003
13780
14076
14073
14373
14364
14609
14809
14971
15314
15575
15525
15609
15580
15391
15270
14753
14874
13988
13958
13277
13373
12936
13199
12720
12966
12632
12894
12791
12864
12982
12918
13205
13095
13299
12969
13360
12964
13286
12755
13286
12972
13343
12996
13187
13115
13378
13257
13278
13420
13299
13568
13391
13505
13009
13192
12718
13082
12615
13099
12875
13278
13113
13606
14485
15893
15767
14932
12387
10554
11810
12479
13555
13502
13976
13846
14264
13829
14326
13996
14354
14060
14366
14089
14631
14340
14755
14584
15014
14940
15271
15304
15400
15408
15187
15183
14780
14701
13981
13824
13049
13127
12466
12640
12229
12437
12045
12240
12022
12194
12167
12203
12250
12225
12426
12235
12541
12318
12749
12434
12778
12371
12756
12372
12659
12366
12639
12446
12602
12536
12586
12616
12502
12684
12429
12757
12466
12810
12507
12902
12564
12905
12581
12853
12585
12881
12701
12889
12879
12909
12933
12887
13235
13044
13322
13041
13322
13302
13483
13259
13502
13221
13549
13168
13508
13191
13599
13275
13602
13320
13595
13448
13595
13511
13511
13556
13402
13590
13356
13638
13326
13634
13244
13604
13185
13534
13289
13690
13408
13717
13529
13630
13532
13527
13508
13312
13399
13165
13509
13312
13889
14004
15232
16588
17608
14776
12478
12385
13001
13060
13249
13274
13326
13398
13286
13445
13181
13485
13166
13574
13260
13711
13420
13881
13679
14083
13930
14365
14443
14905
14703
15053
14734
14935
14581
14460
14117
13787
13447
12936
12838
12386
12511
12123
12446
12104
12554
12274
12650
12339
12680
12445
12659
12527
12691
12675
12705
12797
12671
12909
12689
12983
12667
12993
12632
12989
12618
12974
12637
12917
12652
12910
12746
12851
12786
12745
12817
12628
12862
12660
13039
12732
13085
12761
13174
12788
13177
12889
13236
12976
13218
13109
13236
13199
13131
13224
13064
13357
13237
13610
13306
13655
13486
13692
13407
13673
13281
13518
13148
13547
13185
13718
13689
14236
14947
17051
17321
14192
12387
12690
13243
13260
13524
13343
13646
13320
13653
13365
13827
13439
13867
13617
13939
13771
14044
13950
14127
14288
14382
14663
14693
15123
15021
15429
15210
15538
15051
15203
14505
14416
13659
13532
13055
13028
12740
12716
12633
12541
12698
12530
12755
12472
12755
12447
12887
12556
12996
12630
12919
12600
12889
12711
12859
12765
12866
12725
13096
12893
13081
12934
13067
13094
13063
13200
13038
13289
13042
13326
12954
13293
12951
13305
12961
13331
13061
13360
13104
13298
13190
13284
13253
13164
13272
13094
13328
13146
13531
13248
13606
13300
13692
13365
13662
13296
13476
13263
13479
13396
13595
13975
14210
15250
16635
17185
13379
12304
12465
13335
13145
13568
13270
13628
13341
13662
13520
13753
13652
13758
13819
13792
14034
13880
14223
14051
14473
14307
14896
14734
15410
15311
15763
15369
15594
14996
15065
14304
14203
13429
13342
12817
12754
12479
12463
12417
12270
12331
12170
12446
12197
12581
12266
12664
12308
12700
12403
12718
12439
12770
12577
12737
12685
12795
12834
12786
12947
12798
13084
12767
13122
12849
13299
12969
13343
13004
13331
13046
13359
13194
13344
13367
13407
13491
13448
13668
13475
13708
13396
13719
13259
13601
13234
13658
13417
13749
13469
13644
13477
13615
13526
13523
13494
13304
13408
13737
13776
14011
14632
15156
16669
17152
15054
11962
12679
12969
13700
13382
13835
13557
13924
13667
13860
13686
13857
13808
13893
13966
13943
14139
13945
14330
14095
14598
14441
15048
14844
15386
15185
15554
15190
15302
14915
14747
14276
13805
13421
12942
12859
12407
12579
12164
12511
12062
12359
11934
12351
12058
12436
12202
12478
12331
12518
12518
12553
12710
12631
12866
12623
12942
12650
13068
12776
13209
12879
13279
12952
13353
13022
13431
13077
13449
13159
13516
13204
13457
13316
13423
13331
13370
13387
13155
13367
13156
13667
13460
13894
13527
13925
13556
13907
13502
13672
13229
13449
13275
13440
13500
13646
14424
15328
17393
17520
14725
11747
12464
12712
13409
13155
13585
13308
13587
13318
13539
13396
13562
13590
13615
13804
13729
14048
13882
14277
14039
14560
14361
14938
14782
15298
15075
15408
15151
15264
14882
14568
14074
13570
13232
12657
12620
12367
12265
12209
12301
12140
12369
12153
12475
12189
12585
12282
12711
12382
12724
12394
12649
12390
12611
12445
12532
12520
12493
12623
12564
12809
12580
12934
12588
12991
12655
13060
12743
13110
12773
13089
12796
12967
12882
13046
13121
13093
13247
13067
13270
13029
13323
12913
13215
12776
13158
12843
13281
13110
13574
14006
15221
16912
17381
14834
11482
11925
12564
13353
13214
13650
13358
13794
13418
13808
13517
13944
13657
13981
13733
14209
13956
14420
14267
14707
14607
15036
15119
15445
15581
15638
15732
15493
15565
14991
14860
14071
13942
13131
13133
12514
12771
12356
12578
12291
12446
12317
12437
12484
12447
12668
12489
12736
12483
12790
12476
12836
12415
12768
12457
12859
12522
12834
12618
12767
12722
12845
12933
12817
12912
12723
13007
12814
13248
12998
13445
13148
13608
13239
13521
13073
13289
13126
13319
13252
13331
13502
13593
14947
16429
17581
16760
10883
11101
12182
12761
13381
13266
13724
13460
13844
13475
13900
13585
13958
13746
14101
13994
14294
14339
14535
14685
14750
15091
15147
15625
15466
15895
15566
15879
15410
15570
14893
14811
14064
13896
13266
13134
12867
12774
12663
12482
12640
12416
12664
12350
12730
12393
12876
12553
12976
12620
13000
12736
13014
12825
12965
12869
12895
12939
12853
13086
12930
13368
13123
13540
13118
13401
12943
13221
12763
13099
12826
13089
12924
13257
13071
14047
15069
16970
16995
15039
10404
11021
11988
12590
13061
12994
13390
13120
13514
13176
13544
13188
13631
13295
13651
13404
13717
13601
13887
13954
14178
14499
14637
15019
15010
15327
14984
15228
14755
14951
14154
14054
13189
13090
12499
12558
12211
12248
12078
12054
12109
11972
12210
12005
12305
11983
12343
12005
12400
12015
12356
12081
12301
11709
11799
11533
11770
11989
12291
12623
12677
12982
12871
13204
12835
13167
12836
13000
12782
13065
12845
13219
12884
13400
13308
14743
16029
17422
16700
12112
11042
12013
12626
13032
13219
13183
13435
13250
13515
13241
13642
13309
13714
13389
13844
13611
14034
13919
14344
14346
14721
14937
15189
15477
15416
15579
15268
15439
14891
14905
14096
14000
13240
13239
12690
12825
12468
12666
12469
12566
12528
12567
12646
12519
12782
12634
12996
12775
13172
12881
13263
12874
13224
12885
13183
12869
13058
12916
12990
13037
13450
13326
13667
13500
13608
13428
13360
13308
13152
13356
13110
13386
13028
13486
13148
14263
15102
17154
17582
14543
11099
11987
12522
13014
13051
13169
13344
13251
13516
13284
13593
13259
13634
13297
13724
13373
13820
13612
14082
14000
14452
14517
14854
14969
15031
15129
14968
15072
14611
14660
13940
13872
13104
13164
12500
12718
12306
12571
12310
12527
12372
12477
12457
12457
12640
12526
12759
12524
12914
12612
13013
12691
13137
12901
13215
12837
13178
12765
13142
12861
13260
12964
13362
13189
13445
13308
13419
13344
13279
13244
13062
13248
12995
13311
12991
13448
13137
14043
14685
16896
17692
15911
11388
11798
12336
12927
13058
13154
13382
13258
13546
13300
13646
13314
13729
13496
13961
13635
14054
13819
14202
14104
14450
14549
14876
15058
15146
15266
15054
15240
14811
14886
14191
14121
13301
13340
12707
12805
12327
12538
12268
12418
12360
12432
12477
12442
12462
12803
12685
12777
12770
12781
12933
12765
12963
12726
13035
12658
13048
12658
13009
12655
13043
12634
12917
12743
12966
12952
13197
13302
13290
13408
13289
13508
13216
13466
13051
13404
13054
13463
13100
13483
13343
13934
14631
16549
17769
16916
12286
11743
12559
13027
13483
13257
13690
13365
13771
13392
13829
13508
13931
13641
13933
13779
14045
14009
14141
14279
14377
14653
14660
15066
14913
15304
14959
15327
14791
14928
14224
14041
13330
13307
12621
12832
12395
12660
12305
12563
12315
12545
12455
12487
12548
12560
12750
12609
12834
12566
12918
12603
12997
12657
12973
12514
12813
12511
12796
12578
12780
12631
12693
12647
12555
12703
12615
12959
12872
13352
13064
13477
13170
13602
13239
13467
13056
13198
12970
13129
13092
13169
13318
13313
14296
15358
17361
17395
14251
11150
12095
12419
13224
12987
13425
13233
13559
13408
13572
13563
13700
13793
13712
13953
14065
14047
14194
14311
14405
14745
14812
15288
15179
15578
15279
15669
15199
15384
14678
14598
13803
13615
12999
12936
12626
12594
12520
12412
12580
12385
12616
12321
12683
12362
12754
12419
12812
12494
12902
12589
12910
12755
12939
12805
12826
12878
12789
12963
12778
13042
12732
13091
12790
13277
13002
13362
13004
13355
13054
13382
13180
13394
13357
13469
13702
13648
13835
13635
13929
13617
13927
13460
13677
13168
13532
13169
13547
13393
14037
14459
15970
17142
17674
13797
11850
12256
13117
13345
13410
13468
13431
13641
13436
13766
13477
13844
13537
13975
13615
14016
13781
14257
14076
14493
14467
14849
15003
15254
15414
15348
15421
15076
15250
14710
14706
13903
13887
13121
13198
12622
12818
12361
12558
12330
12450
12379
12429
12484
12358
12566
12334
12612
12276
12652
12297
12716
12357
12697
12372
12697
12383
12646
12444
12557
12489
12508
12652
12575
12756
12507
12661
12756
12829
12730
12881
12690
13015
12708
13094
12828
13398
13070
13532
13189
13571
13299
13555
13325
13371
13237
13297
13383
13318
13569
13415
14296
14793
16724
16989
15545
11221
11858
12285
13211
13099
13402
13337
13537
13543
13557
13638
13536
13795
13608
13997
13729
14133
13903
14399
14180
14720
14608
15146
15047
15462
15393
15535
15460
15322
15171
14675
14460
13738
13595
12930
13069
12474
12669
12202
12507
12172
12485
12252
12513
12342
12806
12528
12864
12605
12918
12785
13022
12999
12998
13077
12952
13095
12822
13083
12697
13043
12661
13072
12701
13085
12800
13137
12902
13140
12984
13095
13079
13042
13048
12927
13184
13096
13484
13193
13550
13212
13635
13262
13551
13141
13337
13132
13326
13234
13355
13421
13763
14637
15996
17387
16460
12379
11324
12380
12741
13357
13045
13428
13178
13541
13288
13421
13289
13390
13369
13391
13522
13352
13682
13547
14030
13905
14481
14636
15082
15030
15423
15051
15325
14731
14846
14084
13999
13251
13120
12532
12467
12134
12153
12052
12042
12140
12027
12317
12114
12492
12215
12619
12255
12678
12331
12716
12473
12822
12630
12827
12659
12741
12708
12627
12719
12552
12834
12569
12890
12577
12971
12582
12970
12583
12901
12610
12928
12852
13135
12985
13008
13007
12946
13028
12790
12942
12595
12901
12505
12871
12547
13098
13181
14304
15540
17029
16117
12033
11204
12508
12835
13347
13240
13460
13347
13475
13560
13582
13724
13625
13932
13765
14103
13856
14308
14028
14542
14378
14954
14917
15469
15419
15712
15615
15651
15468
15090
14770
14076
13772
13034
12937
12284
12443
11969
12332
11969
12361
12151
12483
12281
12477
12426
12511
12461
12371
12563
12402
12625
12319
12614
12227
12572
12197
12549
12186
12539
12235
12532
12373
12576
12388
12347
12322
12260
12409
12311
12630
12346
12636
12188
12464
12075
12225
11852
12109
11802
12179
11878
12329
12088
12948
13587
15673
16412
14810
10416
10639
11581
12210
12612
12572
12953
12776
13174
12871
13279
13071
13538
13219
13603
13382
13824
13771
14104
14225
14495
14748
14907
15323
15358
15719
15470
15755
15328
15493
14764
14716
13936
13902
13260
13314
12963
13048
12915
12973
13034
12971
13192
13040
13305
13021
13343
13000
13346
12946
13273
12972
13386
13122
13393
13156
13321
13308
13364
13190
13534
13355
13510
13419
13469
13530
13566
13872
13791
14065
13774
14076
13640
13914
13444
13798
13455
13716
13396
13640
13512
13730
14631
16204
17480
17341
13496
10473
11724
12195
13049
12835
13334
13193
13714
13412
13743
13496
13839
13724
13972
13947
14084
14206
14191
14424
14430
14960
14932
15609
15458
15962
15645
15877
15395
15534
14950
14846
14221
13969
13504
13201
13070
12771
12835
12543
12827
12526
12904
12566
12936
12601
12976
12758
13069
12653
12986
12669
13017
12682
13001
12662
12864
12698
12850
12761
12723
12780
12676
12818
12673
12982
12726
13145
12810
13138
12641
12923
12504
12831
12551
12792
12683
12906
12950
13043
13856
15222
16920
16759
14424
10143
11329
11826
12878
12797
13311
13128
13518
13306
13650
13544
13733
13654
13750
13946
13910
14216
14154
14567
14366
14840
14636
15282
15139
15590
15231
15469
15129
15221
14767
14511
14084
13635
13383
13051
12651
12701
12468
12405
12406
12263
12450
12277
12587
12288
12638
12290
12731
12460
12850
12553
12886
12624
12811
12648
12817
12710
12713
12736
12589
12722
12426
12735
12408
12808
12571
13116
12878
13368
13047
13285
13005
13222
13031
13150
13102
13101
13231
13171
13528
13336
14576
15859
17477
17064
13086
10931
12108
12526
13252
13088
13427
13371
13495
13501
13529
13742
13663
13888
13737
14181
13963
14385
14068
14540
14301
14850
14752
15500
15390
15884
15515
15745
15254
15297
14639
14406
13774
13507
13114
12795
12635
12361
12482
12199
12508
12165
12519
12151
12546
12253
12631
12350
12657
12419
12707
12595
12748
12734
12742
12880
12806
13061
12857
13200
12869
13253
12866
13188
12774
13156
12874
13294
13204
13549
13533
13762
13772
13737
13823
13605
13735
13412
13671
13291
13583
13246
13704
13371
14329
15153
17162
17573
15287
11395
11919
12653
13161
13456
13358
13657
13721
13775
13746
13686
13886
13710
14028
13768
14139
13884
14356
14129
14603
14445
15011
14978
15298
15111
15207
15079
14896
14645
14117
13810
13146
13065
12442
12619
12179
12505
12109
12532
12268
12606
12311
12595
12492
12696
12668
12662
12717
12628
12878
12633
12921
12581
12920
12550
12910
12494
12799
12433
12755
12522
12757
12623
12723
12708
12711
12830
12762
12960
12659
12963
12675
13132
12926
13417
13168
13565
13268
13503
13220
13431
13053
13426
13107
13483
13281
13615
13515
14322
15117
16654
17298
14771
11464
11751
12866
13137
13665
13447
13852
13527
13936
13637
14002
13806
14050
13922
14062
14035
14109
14258
14203
14512
14428
14945
14844
15389
15218
15673
15310
15566
15077
15142
14509
14233
13620
13293
12968
12706
12618
12373
12567
12333
12583
12258
12656
12326
12682
12369
12742
12464
12770
12474
12666
12580
12724
12673
12644
12817
12685
12866
12617
12909
12716
12852
12713
12896
12660
12979
12620
12944
12600
12934
12532
12848
12600
12984
12846
13124
13050
13194
13180
13135
13151
12842
12929
12587
12857
12601
13014
12679
13257
13166
14320
15254
16843
16547
12772
11090
11998
12704
13002
13206
13188
13489
13244
13561
13268
13639
13323
13741
13459
13864
13644
14003
13887
14239
14326
14678
14929
15152
15506
15473
15723
15387
15599
15074
15147
14411
14360
13576
13529
12972
13036
12677
12767
12485
12821
12466
12776
12569
12827
12727
12840
12905
12904
13033
12898
13177
12893
13223
12877
13185
12862
13317
13012
13354
13042
13344
13136
13288
13168
13228
13250
13231
13358
13167
13359
13053
13344
12948
13244
12931
13341
13103
13556
13293
13638
13454
13645
13473
13471
13415
13214
13293
13127
13360
13110
13550
13351
14443
14881
16706
16949
15314
11341
11984
12555
13253
13283
13362
13465
13421
13640
13449
13734
13460
13860
13588
14008
13936
14262
14051
14505
14342
14898
14749
15393
15301
15774
15552
15800
15508
15534
15172
14834
14409
13866
13565
13000
13018
12528
12705
12273
12565
12221
12577
12224
12585
12299
12550
12382
12565
12497
12539
12564
12440
12620
12466
12748
12459
12758
12442
12891
12595
12994
12677
13016
12780
13060
12875
13050
13047
13092
13149
13053
13252
12978
13168
12888
13255
13023
13566
13266
13686
13332
13635
13351
13532
13292
13290
13172
13371
13203
13484
13378
13611
14307
15356
16615
16725
13676
10871
11811
12285
13054
12846
13356
13086
13460
13143
13500
13268
13604
13491
13662
13684
13823
14039
14095
14401
14353
14802
14666
15261
15170
15696
15443
15839
15410
15476
14975
14821
14215
13916
13509
13177
12998
12640
12721
12370
12626
12260
12600
12298
12672
12325
12730
12423
12723
12520
12801
12669
12784
12777
12715
12829
12685
12894
12636
12939
12586
12904
12520
12937
12597
12913
12635
12982
12638
13035
12607
12948
12644
12926
12590
12883
12769
13085
13193
13210
13338
13230
13430
13197
13490
13157
13479
13120
13510
13210
13597
13396
13803
14365
15611
16743
17052
13855
11300
12028
12639
13337
13176
13555
13346
13798
13466
13851
13486
13905
13638
13976
13828
14090
14057
14254
14389
14472
14747
14794
15214
15178
15627
15378
15749
15332
15557
14910
14873
14096
13850
13277
13173
12814
12688
12537
12428
12546
12524
12419
12492
12411
12413
12585
12479
12734
12476
12776
12453
12824
12506
12868
12475
12785
12429
12738
12558
12787
12662
12753
12715
12681
12817
12673
12979
12718
13062
12760
13138
12783
13096
12689
12938
12652
12935
12828
13166
13092
13202
13196
13180
13304
13060
13222
12780
13087
12811
13237
12972
13490
13323
14365
14869
16614
17032
15472
11531
11872
12694
13107
13421
13346
13658
13398
13753
13440
13849
13492
13886
13594
13953
13683
14146
13899
14366
14128
14653
14571
15098
15116
15502
15454
15471
15332
15052
14938
14459
14252
13491
13394
12744
12868
12361
12662
12245
12595
12302
12567
12368
12581
12491
12599
12640
12609
12792
12603
12865
12544
12896
12565
12899
12533
12929
12598
12960
12672
12927
12741
12976
12900
12939
13002
12979
13201
12998
13282
12961
13355
12944
13322
13017
13357
12957
13303
13008
13346
13269
13469
13444
13461
13482
13364
13469
13190
13196
13288
13305
13274
13428
13377
13788
14254
15616
16649
17127
13358
11675
11962
13005
13056
13362
13265
13473
13398
13512
13575
13465
13631
13468
13763
13492
13858
13569
14041
13831
14341
14192
14778
14747
15299
15371
15656
15606
15573
15470
15151
14977
14348
14150
13435
13466
12813
12958
12481
12845
12505
12745
12382
12671
12533
12702
12611
12647
12753
12691
12948
12775
13095
12804
13143
12760
13137
12758
13132
12830
13127
12814
13136
12765
13083
12698
12993
12668
12947
12768
12961
12900
12898
12920
12816
12894
12611
12974
12707
13154
12929
13358
13038
13407
13117
13367
13070
13294
13076
13226
13189
13257
13388
13438
13847
14369
15885
16849
17023
12809
11538
11837
12954
12986
13404
13259
13569
13423
13622
13626
13701
13843
13762
14014
13806
14193
13970
14417
14142
14636
14448
14998
14889
15392
15294
15512
15300
15273
15103
14817
14559
13906
13647
13012
12980
12576
12580
12360
12518
12278
12551
12339
12768
12412
12760
12404
12746
12442
12771
12473
12668
12496
12648
12612
12582
12658
12529
12693
12411
12726
12353
12725
12412
12801
12502
12870
12653
12966
12695
12926
12750
12834
12748
12738
12836
12827
13210
13052
13402
13093
13527
13233
13563
13158
13387
13025
13347
13161
13419
13421
13612
14270
15220
17164
17521
15298
11446
12073
12514
13351
13137
13618
13307
13637
13405
13754
13627
13841
13652
14132
13895
14214
14023
14275
14231
14497
14612
14796
15111
15213
15620
15435
15734
15314
15534
14946
14946
14133
14008
13227
13156
12650
12666
12401
12401
12324
12262
12394
12215
12420
12145
12521
12255
12694
12381
12830
12491
12869
12552
12846
12678
12915
12796
12914
12966
12936
13091
12996
13207
12952
13284
12916
13270
12929
13361
13045
13368
12994
13248
13045
13341
13389
13469
13609
13531
13700
13430
13541
13143
13354
12949
13313
13151
13470
13323
13822
14503
16333
16965
16861
12199
11047
11642
12833
13068
13361
13274
13427
13457
13431
13563
13382
13663
13425
13788
13505
13927
13655
14163
13920
14396
14344
14864
14938
15333
15380
15481
15488
15365
15307
14826
14735
13979
13842
13126
13182
12644
12879
12442
12679
12374
12624
12503
12733
12632
12703
12761
12622
12747
12582
12817
12509
12732
12377
12669
12304
12644
12343
12597
12256
12470
12238
12280
12180
12319
12476
12993
12952
13223
13070
13196
13172
13179
13083
12972
13084
13085
13319
13351
13777
13730
15260
16857
18209
17753
13561
11720
12942
13509
13971
13988
13993
13893
13781
13811
13825
13913
13728
13978
13951
14250
14313
14746
14751
14996
15046
15450
15502
15835
15741
15880
15806
15577
15499
15154
14966
14321
14010
13378
13195
12848
12762
12299
12480
12259
12279
12254
12449
12425
12369
12331
12383
12385
12363
12467
12338
12457
12354
12522
12463
12560
12394
12482
12299
12463
12406
12715
12671
12953
12852
12940
12836
12902
12795
12759
12702
12726
12810
12766
12915
12997
13277
14129
15884
16506
16387
12217
10836
11560
12303
12501
12747
12873
12998
13079
13088
13182
13307
13524
13461
13704
13684
13951
13918
14268
14215
14430
14464
14792
14884
15125
15170
15232
15254
15114
14995
14595
14265
13732
13498
12995
12911
12529
12525
12327
12463
12323
12435
12360
12479
12449
12645
12592
12746
12591
12641
12654
12717
12729
12685
12719
12658
12718
12579
12741
12610
12835
12825
13066
13011
13255
13149
13236
13050
13002
13009
13116
13128
13120
13257
13254
13471
13423
14322
15668
17202
17212
13984
11400
12108
12598
13037
13041
13260
13297
13381
13514
13543
13673
13654
13783
13644
13802
13654
13851
13760
14006
13986
14278
14365
14613
14735
14867
14914
14835
14789
14595
14372
13907
13625
13143
12941
12530
12512
12293
12413
12291
12505
12321
12448
12324
12509
12435
12585
12604
12709
12647
12700
12764
12795
12891
12873
13005
12888
13012
12817
12942
12803
12984
12871
13077
12990
13213
13157
13228
13090
13016
12882
12814
12916
12938
13052
12977
13223
13316
13742
14463
16162
17259
16914
12718
11982
12523
13184
13345
13471
13508
13520
13609
13544
13638
13504
13667
13510
13690
13505
13744
13683
13933
13942
14214
14305
14571
14767
14916
15026
14999
14982
14977
14724
14411
14076
13712
13459
13107
12997
12726
12741
12548
12678
12530
12677
12495
12644
12624
12759
12657
12719
12734
12763
12774
12735
12883
12809
12915
12800
12927
12771
12936
12813
13006
12758
12844
12773
12858
12975
13196
13245
13333
13405
13352
13343
13124
13156
13027
13188
13047
13197
13032
13257
13288
13696
14437
16079
17000
16430
12415
11743
12428
12964
13258
13234
13451
13354
13525
13366
13527
13448
13582
13519
13760
13741
14051
13984
14215
14154
14463
14593
14837
14957
15122
15114
15002
14919
14732
14650
14234
13982
13482
13302
12862
12836
12561
12648
12521
12621
12536
12655
12642
12729
12752
12773
12866
12817
12952
12840
12918
12790
12943
12862
13011
12813
12958
12848
12967
12901
12972
12912
13014
13067
13077
13132
13067
13176
13122
13348
13289
13448
13328
13461
13411
13503
13266
13279
13119
13130
13097
13142
13177
13236
13452
13838
14848
16323
17095
14745
11961
12223
12930
13187
13356
13308
13491
13331
13467
13336
13512
13399
13506
13396
13521
13591
13668
13772
13866
14071
14142
14352
14367
14661
14635
14851
14712
14802
14557
14496
14068
13820
13370
13102
12858
12672
12637
12588
12650
12611
12733
12604
12723
12621
12785
12639
12844
12718
12826
12709
12753
12688
12812
12837
12835
12860
12915
12994
12954
13117
12997
13116
12975
13152
13053
13219
13078
13206
13095
13223
13248
13532
13571
13754
13716
13793
13714
13744
13661
13595
13516
13432
13467
13370
13496
13392
13692
13925
14863
16096
17045
16167
12532
11846
12582
13031
13289
13372
13416
13452
13404
13506
13463
13605
13500
13662
13545
13748
13660
13871
13812
14036
14107
14339
14491
14728
14890
14941
14994
14816
14805
14543
14417
13931
13705
13221
13104
12753
12754
12553
12590
12518
12613
12611
12662
12666
12728
12816
12802
12889
12810
12933
12823
12991
13046
13221
13175
13293
13201
13302
13134
13242
13043
13126
12970
13150
13066
13179
13115
13109
13093
13113
13123
13049
13112
13083
13280
13282
13507
13406
13645
13493
13601
13423
13524
13371
13405
13337
13362
13362
13348
13514
13609
14450
15515
16713
16386
13470
11436
12172
12706
13144
13109
13295
13274
13351
13313
13328
13333
13282
13410
13399
13542
13499
13743
13698
14026
14041
14292
14381
14795
14880
15096
15041
15065
14983
14853
14432
14163
13739
13486
13138
12870
12696
12594
12606
12423
12508
12346
12502
12448
12624
12557
12725
12639
12736
12646
12782
12730
12746
12704
12718
12707
12683
12824
12761
12810
12765
12949
12879
13036
12911
13029
12937
13055
12929
13024
12953
12960
12897
12812
12841
12839
13059
13044
13224
13183
13287
13122
13221
13173
13194
12957
13098
12983
13026
13095
13239
13362
14057
15134
16298
16486
14384
11424
11742
12633
12942
13188
13220
13527
13450
13561
13382
13540
13419
13696
13710
13871
13806
14064
14071
14190
14230
14368
14581
14654
14856
14854
14984
14759
14801
14549
14456
14063
13910
13428
13273
12956
12899
12744
12797
12737
12712
12705
12578
12651
12536
12668
12616
12792
12654
12776
12613
12773
12623
12710
12610
12698
12649
12671
12642
12653
12693
12671
12761
12726
12857
12750
12993
12901
13031
12920
13082
12947
12978
12875
13052
13144
13295
13335
13428
13523
13625
13612
13616
13474
13379
13400
13345
13437
13434
13693
13788
14782
16039
17298
16848
13386
11798
12514
13052
13322
13369
13448
13489
13509
13612
13557
13717
13662
13833
13769
14048
14001
14246
14186
14530
14623
14893
14986
15258
15411
15538
15573
15489
15404
15169
15091
14548
14271
13688
13438
12980
12976
12673
12688
12540
12661
12595
12670
12662
12647
12721
12696
12818
12746
12799
12652
12816
12724
12821
12578
12775
12695
12710
12528
12773
12685
12848
12757
12911
12807
12900
12853
12964
12882
12747
12829
12797
13001
12999
13128
13020
13184
13086
13242
13060
13113
12974
13130
13095
13184
13133
13389
13675
14599
16121
17094
16703
12905
11630
12187
12987
13168
13455
13398
13613
13533
13741
13672
13818
13764
13860
13847
13935
14077
14124
14281
14273
14496
14483
14810
14856
15193
15151
15285
15117
15189
14944
14839
14437
14049
13646
13315
13105
12844
12772
12561
12697
12632
12762
12825
12847
12753
12888
12749
12841
12669
12836
12710
12854
12678
12809
12711
12755
12712
12803
12818
12857
12933
12915
12879
12677
12843
12778
12973
12951
13170
13182
13404
13250
13289
13129
13133
13091
13158
13157
13211
13293
13209
13410
13645
15117
16703
16876
15361
10969
10879
11970
12493
13044
13073
13286
13300
13375
13404
13513
13654
13654
13750
13716
13962
13874
14147
14032
14349
14389
14776
14906
15282
15360
15474
15361
15458
15223
15125
14659
14282
13819
13436
13148
12899
12776
12578
12613
12393
12475
12334
12505
12413
12638
12539
12735
12675
12828
12750
12833
12792
12828
12817
12733
12749
12632
12740
12547
12689
12591
12790
12767
12990
12938
13156
13011
13083
12965
12876
12788
12770
12824
12737
12853
12805
13107
13184
14442
16058
16763
15921
11539
10723
11786
12436
12886
13007
13170
13214
13303
13478
13430
13543
13503
13672
13588
13843
13766
14082
14152
14416
14435
14742
14794
15215
15146
15334
15144
15204
14907
14806
14457
14147
13749
13387
13143
12898
12843
12642
12686
12528
12587
12439
12678
12532
12704
12611
12762
12754
12887
12844
12951
12974
12968
13062
12972
13071
12981
13090
12937
13046
12853
12958
12815
12992
12977
13120
13149
13258
13239
13206
13202
13047
13079
12974
13079
13017
13146
13056
13326
13474
14710
16374
17519
16371
12081
11666
12457
13033
13262
13438
13606
13613
13730
13701
13780
13822
13830
13962
13934
14079
14016
14191
14166
14426
14376
14651
14681
15041
14993
15132
15067
15037
14884
14665
14322
13968
13645
13229
13066
12758
12782
12619
12780
12643
12781
12680
12820
12755
12919
12849
12829
12801
12813
12830
12835
12900
12833
12938
12826
12915
12755
12891
12698
12735
12616
12769
12565
12731
12749
12883
12919
12949
12933
12858
12895
12743
12760
12665
12811
12721
12923
12885
13243
13846
15389
17096
17735
15106
11806
11872
12607
12904
13121
13108
13204
13156
13223
13261
13266
13393
13322
13427
13357
13563
13496
13720
13684
13949
14040
14370
14463
14732
14760
14858
14723
14675
14519
14322
14081
13665
13390
12963
12915
12633
12692
12495
12647
12523
12665
12569
12707
12671
12751
12759
12823
12827
12796
12865
12764
12884
12733
12829
12680
12861
12667
12842
12677
12788
12645
12722
12777
12817
12965
13101
13240
13213
13340
13452
13429
13384
13273
13143
13223
13132
13266
13132
13341
13276
13945
15019
17010
17577
15726
11789
11971
12567
13024
13152
13257
13367
13308
13366
13292
13426
13280
13469
13399
13638
13623
13805
13787
14030
14082
14330
14572
14814
15003
15158
15249
15150
15164
14927
14886
14463
14221
13711
13525
13113
13048
12780
12797
12648
12675
12597
12622
12606
12553
12618
12558
12642
12567
12659
12599
12762
12658
12826
12739
12800
12641
12853
12816
13040
12933
13138
13018
13076
12894
12945
12963
13094
13251
13276
13303
13195
13290
13229
13336
13181
13209
13022
13162
12976
13071
13056
13332
13365
14147
15473
17064
17344
14597
11622
12018
12778
13058
13278
13256
13335
13211
13423
13300
13422
13380
13500
13494
13620
13689
13793
13899
13967
14159
14187
14485
14562
14867
14848
15050
14937
14969
14757
14705
14302
14007
13612
13274
13048
12893
12818
12670
12688
12536
12681
12547
12690
12718
12843
12859
12995
12864
12913
12794
12941
12817
12937
12783
12864
12809
12970
12932
12974
12931
12901
12870
12757
12847
12794
13017
13108
13373
13332
13512
13378
13532
13458
13525
13439
13577
13532
13571
13586
13625
13764
13762
14826
16412
17559
17244
13697
11221
12269
12872
13424
13484
13721
13725
13809
13757
13821
13846
13855
13913
13900
14018
13954
14129
14088
14228
14198
14451
14525
14847
14848
15014
14891
14865
14693
14564
14217
14007
13499
13192
12832
12699
12570
12526
12471
12368
12414
12314
12467
12384
12561
12451
12639
12505
12626
12503
12664
12586
12747
12720
12749
12732
12711
12705
12628
12746
12716
12870
12732
12828
12709
12820
12638
12718
12676
12823
12904
13135
13116
13189
13166
13195
13220
13148
13112
12956
13059
12903
13068
12919
13194
13107
13972
15139
16934
17180
15035
11495
11964
12609
13002
13113
13169
13296
13248
13387
13307
13515
13464
13648
13651
13808
13704
13889
13837
14095
14071
14447
14472
14748
14759
14963
14846
14850
14730
14608
14371
14001
13708
13215
13075
12700
12659
12474
12593
12432
12659
12583
12805
12775
12876
12826
12820
12883
12871
12956
12905
13084
13019
13229
13135
13347
13268
13399
13222
13372
13244
13357
13273
13385
13323
13332
13300
13149
13140
13109
13333
13402
13601
13541
13736
13648
13737
13503
13494
13234
13303
13249
13342
13339
13386
13530
14312
15441
17147
17380
15278
11619
11756
12411
12734
12906
12869
13012
12854
12991
12897
13096
12971
13196
13155
13440
13480
13680
13729
13890
13941
14188
14356
14532
14743
14832
14982
14900
14944
14746
14712
14251
14025
13417
13164
12689
12675
12403
12459
12329
12384
12390
12487
12599
12591
12737
12650
12895
12746
12892
12570
12655
12447
12653
12455
12665
12536
12506
12596
12513
12653
12609
12904
12679
13056
12788
13131
12788
13105
12924
13326
13328
13594
13384
13609
13306
13537
13213
13347
13064
13165
13041
13148
13253
13274
13623
14238
15504
16725
17219
14330
11710
11913
13063
13119
13522
13312
13602
13495
13755
13734
13757
13836
13757
14024
13833
14154
13861
14272
14005
14511
14256
14784
14675
15211
15106
15506
15347
15377
15168
14919
14680
14185
14020
13464
13510
12890
12994
12514
12763
12296
12583
12181
12486
12231
12575
12480
12694
12689
12765
12819
12903
12832
13017
12903
12900
13015
12962
13165
12945
13237
12848
13099
12653
13018
12653
13082
12808
13314
13217
13573
13388
13472
13315
13312
13361
13194
13372
13063
13450
13199
13690
13653
15210
16380
17011
15547
11212
