13983
14188
14325
14298
14223
14337
14254
14490
14305
14699
14568
15039
14873
15348
15104
15448
15131
15321
14973
14984
14502
14221
13774
13386
13215
12817
12779
12411
12577
12217
12516
12173
12428
12036
12358
12120
12416
12157
12341
12177
12307
12353
12385
12453
12339
12576
12360
12632
12314
12626
12218
12614
12365
12795
12699
13040
12867
13075
12987
13133
13025
12939
13020
12905
13140
12975
13415
13217
13712
13600
15055
16329
17509
16974
11763
11481
12753
13080
13740
13599
13967
13755
13994
13902
14054
14080
14118
14201
14156
14360
14234
14515
14340
14819
14710
15296
15266
15913
15776
16133
15861
16075
15803
15730
15301
14791
14339
13763
13580
12994
12992
12603
12800
12366
12656
12297
12615
12336
12640
12442
12727
12661
12748
12671
12661
12649
12475
12582
12326
12571
12320
12628
12324
12634
12229
12596
12323
12665
12655
13023
13036
13168
13060
13056
13104
12876
12947
12976
13054
13197
13293
13241
13432
13407
14500
15751
17468
16969
13144
11425
12432
12760
13265
13147
13417
13245
13367
13256
13273
13283
13164
13366
13228
13580
13374
13811
13580
13990
13828
14324
14230
14761
14651
14935
14758
14822
14725
14583
14365
13988
13799
13262
13191
12680
12828
12346
12546
12152
12433
12090
12347
12138
12413
12222
12387
12334
12392
12450
12367
12567
12391
12667
12399
12677
12369
12727
12378
12718
12382
12633
12322
12732
12507
13043
12806
13162
12912
13183
13011
13153
13019
13028
13059
13095
13243
13064
13279
13044
13424
13766
15056
16413
17519
15465
12197
12162
13143
13431
13633
13563
13691
13765
13754
13911
13866
14151
13951
14306
14095
14497
14321
14715
14516
14953
14874
15276
15284
15646
15720
15804
15791
15671
15727
15386
15260
14649
14433
13671
13623
13033
13072
12609
12802
12451
12680
12532
12688
12643
12715
12755
12700
12821
12717
12881
13005
12996
12927
12945
12736
12917
12617
12843
12477
12736
12397
12743
12443
12701
12382
12556
12390
12612
12687
12814
12858
12838
13011
12917
13049
12745
12921
12690
13067
12840
13235
13007
13430
13431
14535
15562
17149
16821
13404
11827
12406
13111
13146
13392
13237
13528
13174
13441
13115
13486
13247
13556
13312
13634
13529
13815
13820
13987
14155
14267
14517
14619
14960
14878
15224
14934
15286
14952
15066
14380
14150
13523
13463
12869
12992
12508
12671
12350
12565
12358
12550
12442
12658
12754
12837
12984
12769
12886
12624
12684
12339
12640
12346
12635
12303
12645
12278
12468
12169
12327
12194
12327
12324
12355
12369
12262
12603
12512
12997
12873
13315
13011
13405
13100
13405
13024
13233
12989
13148
13072
13199
13270
13444
13925
14767
16136
16971
16909
12952
12021
12423
13419
13303
13702
13405
13782
13591
13780
13617
13740
13653
13689
13884
13822
14155
14249
14391
14590
14831
14875
15353
15410
15886
15740
16120
15756
16025
15419
15550
14852
14694
13974
13836
13340
13226
12976
12838
12805
12627
12764
12530
12775
12469
12800
12466
12994
12678
13105
12800
13122
12814
13096
12829
12894
12833
12796
12800
12722
12883
12728
13065
12769
13118
12757
13099
12620
12831
12362
12592
12272
12549
12369
12460
12416
12413
12656
13054
14603
16024
16079
14278
10298
10322
11826
12273
13078
12934
13412
13312
13771
13492
13952
13705
14107
13842
14179
13992
14247
14187
14314
14508
14631
15041
15115
15621
15486
15872
15534
15799
15281
15488
14808
14688
13946
13719
13144
13079
12803
12678
12566
12461
12607
12389
12708
12520
12932
12615
13049
12705
12993
12602
12774
12459
12677
12454
12534
12362
12376
12422
12337
12446
12228
12505
12180
12554
12414
12862
12586
13011
12726
13036
12767
12903
12627
12762
12648
12631
12655
12596
12965
13237
14358
16318
17024
15199
11809
12035
13019
13271
13704
13503
13901
13521
13800
13488
13841
13563
13836
13651
13897
13874
14039
14130
14161
14366
14297
14647
14617
15130
14973
15363
15033
15338
14905
15008
14375
14257
13625
13433
12962
12789
12630
12400
12425
12218
12447
12263
12651
12378
12717
12465
12850
12568
12927
12667
12976
12804
13011
12904
12945
12943
12930
13015
12790
12943
12618
12879
12588
12982
12648
13208
12990
13431
13210
13426
13079
13421
13007
13324
13040
13264
12939
13130
12996
13221
13693
14399
16086
16852
15735
11621
11989
12486
13394
13113
13531
13188
13625
13353
13739
13486
13685
13555
13685
13699
13739
13889
13828
14151
14030
14417
14265
14828
14685
15151
14822
15140
14789
14977
14573
14530
13952
13656
13203
12860
12739
12489
12553
12207
12475
12112
12445
12082
12492
12156
12468
12181
12482
12215
12443
12305
12411
12395
12380
12499
12401
12604
12402
12616
12751
12833
12744
12888
12588
12805
12655
13094
12959
13426
13108
13437
13073
13391
13103
13347
13161
13257
13218
13350
13456
13397
13590
13543
14376
14910
16757
17344
16652
12220
12313
12785
13608
13428
13636
13394
13471
13311
13322
13370
13233
13355
13185
13496
13275
13681
13430
13846
13555
14056
13904
14400
14416
14883
14765
14952
14794
14751
14635
14244
14025
13445
13308
12629
12644
12093
12377
11943
12316
11959
12196
11906
12222
11911
12338
12069
12503
12314
12588
12370
12592
12516
12635
12607
12521
12681
12592
12942
12763
13108
12787
13109
12776
13149
12882
13186
13102
13624
13484
13693
13509
13540
13524
13400
13401
13185
13361
13109
13441
13199
13604
13425
14135
14904
16886
17016
16447
11859
11775
12581
13412
13790
13766
13936
13759
13930
13703
14010
13696
14093
13727
14163
13902
14220
13964
14355
14255
14583
14620
14927
15128
15235
15559
15506
15773
15707
15561
15359
15181
14697
14580
14026
14023
13497
13735
13213
13351
12785
12979
12528
12786
12420
12510
12327
12439
12388
12466
12550
12443
12602
12323
12548
12218
12624
12292
12649
12299
12685
12413
12710
12561
12938
12877
13074
13049
12996
12988
12798
12896
12695
12978
12664
12965
12652
13061
12916
13610
14411
16351
16780
16168
11488
11213
12207
13056
13499
13441
13737
13553
13847
13589
13956
13673
14040
13648
14081
13854
14268
14071
14646
14525
15057
14998
15537
15517
15931
15783
15863
15708
15602
15440
14946
14605
13950
13784
13128
13179
12617
12822
12314
12531
12157
12511
12230
12480
12329
12568
12551
12641
12712
12642
12777
12609
12891
12619
12959
12592
12917
12536
12823
12464
12813
12464
12624
12366
12469
12351
12503
12720
12679
12977
12893
13081
12690
12971
12533
12894
12642
13014
12723
13074
12786
13221
13402
14384
15740
17012
16508
12555
11808
12337
13234
13345
13424
13371
13512
13382
13623
13429
13794
13496
13952
13622
14093
13918
14276
14056
14374
14300
14734
14880
15190
15341
15498
15654
15429
15558
15100
15102
14422
14377
13655
13619
13027
13150
12641
12767
12449
12575
12515
12623
12580
12583
12668
12500
12804
12615
12932
12610
12953
12731
13129
12882
13176
12883
13052
12779
12985
12880
12960
12979
12959
13043
12806
12935
12802
13127
12951
13432
13231
13667
13432
13799
13513
13710
13290
13630
13340
13619
13293
13622
13481
13766
14357
15420
16751
16905
14457
11693
12335
12797
13350
13145
13475
13153
13374
13000
13280
13057
13500
13476
13888
13782
13970
13982
14247
14543
14695
15189
15328
15928
16024
16642
16580
17077
16869
17224
16873
16960
16430
16258
15728
15453
14986
14623
14357
13900
13803
13418
13223
12565
12609
12202
12371
11950
12033
11804
11895
11678
11789
11534
11623
11484
11489
11444
11528
11629
11714
11815
12029
12002
12010
11863
11715
11585
11473
11505
11479
11785
11687
11859
11730
11975
11889
12014
11843
11899
11730
11869
11814
11927
11896
12063
12400
13256
14266
15550
15872
13211
10812
11292
12237
12469
12681
12592
12818
12812
13023
13105
13307
13423
13534
13704
13786
13973
13989
14237
14286
14620
14703
15113
15290
15798
15924
16253
16345
16526
16463
16447
16237
15874
15460
14905
14521
13945
13679
13200
13068
12680
12650
12362
12388
12265
12425
12289
12397
12158
12314
12183
12324
12219
12325
12155
12230
12209
12245
12263
12237
12253
12104
12212
12105
12329
12286
12608
12564
12889
12844
13052
12906
12976
12848
12898
12882
12898
12945
12929
13089
13127
13471
14561
16493
16773
16380
11887
11408
12274
13138
13363
13572
13527
13698
13711
13796
13817
13802
13960
13864
14004
13960
14199
14162
14427
14399
14714
14858
15244
15376
15750
15834
16016
15972
15809
15592
15190
14682
14220
13632
13112
12721
12393
12166
11777
11628
11372
11450
11301
11483
11365
11524
11435
11614
11507
11608
11514
11644
11701
11759
11790
11861
11957
11867
12001
11926
12117
12019
12196
12100
12309
12163
12339
12243
12473
12551
12781
12843
12963
13093
13173
13239
13080
13160
13050
13147
13042
13217
13122
13356
13438
14242
15249
16985
17335
16036
12402
12878
13653
14143
14325
14258
14435
14357
14538
14465
14697
14597
14810
14867
15149
15085
15317
15255
15476
15517
15928
16055
16399
16455
16662
16701
16749
16683
16596
16484
16091
15685
15125
14683
14057
13758
13244
13123
12793
12744
12506
12507
12259
12279
12168
12142
12109
12082
12128
12020
12106
11965
12007
11827
11944
11813
11944
11798
11909
11781
11957
11905
12011
11990
12065
12083
12043
12049
12016
12235
12270
12605
12574
12761
12632
12824
12747
12858
12732
12767
12704
12795
12736
12836
12934
13074
13448
14340
15643
17089
16930
13506
12200
12649
13275
13476
13660
13571
13694
13561
13759
13685
13872
13829
14008
13942
14067
14114
14229
14287
14409
14604
14747
15055
15191
15571
15674
15976
15903
15995
15747
15738
15328
14985
14432
14084
13643
13364
13082
12857
12682
12512
12495
12331
12363
12203
12321
12219
12373
12191
12311
12170
12286
12257
12388
12380
12489
12450
12383
12416
12362
12449
12404
12576
12542
12706
12560
12679
12563
12764
12692
12789
12749
12938
12878
13189
13178
13394
13369
13539
13515
13564
13508
13428
13413
13385
13451
13380
13536
13564
13978
14670
15907
17244
17444
14511
12734
13129
13735
13939
14023
14042
14021
14045
13956
13993
13887
14002
13862
13961
13834
14021
13875
13998
13897
14107
14119
14452
14621
14945
15145
15283
15286
15158
15156
14845
14627
14062
13726
13129
12897
12499
12462
12217
12300
12164
12184
12111
12178
12147
12107
12170
12133
12240
12378
12394
12434
12548
12578
12708
12673
12803
12656
12801
12633
12760
12595
12829
12694
12882
12791
12901
12808
12870
12784
12688
12574
12496
12656
12708
13003
13004
13217
13093
13302
13212
13394
13177
13251
13099
13196
13110
13166
13172
13238
13505
14259
15189
16517
16870
14802
11946
12245
13115
13401
13646
13548
13694
13622
13743
13749
13847
13889
13981
14090
14094
14203
14205
14351
14286
14553
14513
14835
14943
15334
15392
15735
15692
15837
15622
15604
15164
14914
14333
13985
13494
13230
12932
12701
12574
12443
12473
12469
12614
12522
12708
12643
12787
12630
12771
12634
12726
12575
12652
12591
12571
12477
12440
12452
12440
12476
12343
12428
12348
12528
12394
12607
12469
12598
12468
12642
12516
12554
12514
12629
12748
12865
12897
12842
12925
12851
12940
12745
12812
12646
12797
12676
12860
12757
12998
13088
13941
14853
16290
16476
14909
11283
11688
12581
13312
13393
13413
13499
13487
13581
13532
13670
13650
13896
13833
14062
13999
14255
14241
14538
14620
14936
15086
15329
15554
15826
15983
15964
16003
15884
15898
15479
15305
14746
14456
13910
13801
13387
13361
13075
12961
12779
12795
12697
12675
12646
12610
12695
12565
12654
12527
12600
12464
12608
12465
12601
12404
12492
12350
12433
12329
12371
12327
12312
12449
12437
12600
12522
12622
12559
12766
12689
13017
12922
13159
13127
13274
13098
13248
12981
13086
12916
13058
12905
13092
13066
13355
13668
14905
16541
16739
15927
11679
11716
12459
13262
13363
13534
13354
13535
13305
13428
13283
13372
13241
13253
13411
13669
13859
14000
14208
14302
14623
14691
15164
15325
15784
15770
16039
15913
16050
15725
15619
15090
14672
14122
13761
13452
13110
12893
12587
12588
12226
12329
11988
12279
11945
12173
11946
12212
12038
12147
12073
12055
12103
12049
12315
12240
12545
12242
12394
12250
12232
11952
12197
11908
12238
11866
12177
11980
12444
12206
12746
12692
12985
12807
12958
12877
12905
12920
12737
13040
12952
13232
12989
13360
13186
13983
14592
16310
17114
16940
12991
12203
12868
13747
13958
13977
14083
13960
14108
13891
14265
14029
14441
14153
14569
14284
14750
14495
14944
14892
15281
15330
15632
15846
16087
16313
16217
16449
16105
16306
15771
15798
15006
14861
13917
13787
13014
12879
12294
12274
11989
12168
11845
12116
11863
12237
12120
12291
12260
12264
12327
12181
12387
12150
12388
12040
12416
12028
12465
12082
12427
12020
12263
11947
12212
12029
12185
12253
12384
12631
12573
12786
12490
12712
12298
12598
12197
12542
12224
12543
12250
12756
12725
14107
15383
16594
16381
12671
11023
11897
13011
13266
13663
13398
13864
13614
14037
13720
14138
13940
14347
14141
14384
14293
14520
14554
14680
15001
15091
15559
15620
16219
16122
16569
16209
16552
16244
16305
15624
15578
14737
14712
13902
13891
13199
13301
12876
12935
12655
12710
12590
12485
12525
12368
12499
12224
12549
12269
12628
12204
12584
12151
12489
12073
12364
12168
12403
12330
12636
12715
12759
12867
12616
12749
12404
12633
12281
12654
12296
12749
12462
12850
12533
12965
13298
14939
16482
16589
14795
10361
11022
11871
12848
12903
13305
13013
13429
13065
13463
13135
13529
13226
13611
13479
13749
13699
13918
14043
14474
14462
14934
15037
15387
15503
15619
15721
15510
15606
15063
14974
14193
14100
13309
13362
12739
12927
12469
12628
12262
12421
12214
12321
12332
12393
12567
12504
12815
12570
12904
12554
12877
12496
12875
12468
12784
12429
12768
12565
12863
12800
12965
12962
12820
12794
12504
12647
12316
12589
12274
12684
12355
12761
12451
13000
12899
14137
15345
16853
16869
12996
10969
11774
12640
12882
13221
13029
13432
13072
13432
13122
13478
13264
13671
13450
13851
13555
14018
13761
14291
14107
14604
14613
15099
15195
15438
15417
15385
15426
15117
15098
14483
14418
13707
13709
13020
13209
12699
12961
12579
12815
12543
12777
12615
12707
12685
12629
12746
12630
12889
12739
13106
12754
13139
12761
13128
12736
13124
12699
13025
12826
12991
12933
13225
13305
13326
13443
13278
13530
13229
13478
13053
13425
13049
13483
13116
13460
13234
13765
14197
15960
17948
18000
13946
12401
13026
13635
13541
13700
13665
13626
13686
13510
13709
13507
13859
13552
13951
13597
14080
13847
14418
14249
14745
14733
15220
15256
15565
15739
15743
15792
15538
15622
15015
14861
14039
14037
13268
13356
12698
12869
12410
12683
12328
12495
12367
12455
12504
12436
12509
12229
12415
12080
12401
12064
12461
12088
12501
12187
12653
12412
12726
12509
12729
12608
12744
12784
12915
13228
13071
13333
13048
13440
13051
13389
12917
13207
12755
13129
12792
13131
12784
13283
13109
14152
15372
17690
17177
13382
11698
12386
12918
13043
13112
12957
13206
12960
13366
13119
13553
13254
13736
13419
13922
13561
13870
13741
14115
14121
14351
14541
14679
15010
14967
15286
15071
15387
14964
15103
14372
14296
13432
13353
12666
12674
12231
12294
12033
12045
12073
12096
12308
12128
12358
12114
12582
12201
12570
12214
12687
12378
12735
12484
12854
12625
12865
12744
12772
12743
12654
12770
12835
12689
12868
12865
13004
13249
13129
13437
13191
13609
13159
13438
12959
13338
12984
13413
13192
13582
13352
13694
13592
14590
15909
17285
17470
13704
11640
12228
13394
13507
13970
13568
13998
13562
13904
13521
13830
13541
13819
13736
13956
14087
14127
14469
14434
14849
14700
15299
15199
15788
15529
15972
15589
15914
15430
15491
14847
14675
14055
13660
13313
12892
12741
12291
12328
11904
12201
11744
12129
11719
12163
11794
12185
11907
12379
11999
12455
12046
12459
12118
12426
12138
12269
12046
12246
12219
12183
12405
12369
12687
12494
12865
12506
12920
12463
12858
12434
12771
12410
12807
12586
12857
12941
13242
14458
16325
17031
16408
12368
10698
12172
12560
13415
13123
13532
13171
13585
13244
13579
13375
13669
13542
13656
13759
13793
14048
13995
14390
14266
14885
14767
15402
15239
15850
15599
15989
15637
15832
15324
15120
14528
14152
13730
13256
13053
12584
12722
12526
12496
12389
12483
12358
12627
12269
12663
12334
12820
12471
12914
12513
12925
12583
12914
12662
12844
12675
12753
12790
12725
12913
12874
13257
13025
13444
13095
13522
13042
13340
12900
13328
13009
13286
13038
13293
13148
13368
13678
14658
16532
17089
16819
11920
11778
12326
13425
13248
13691
13346
13789
13499
13853
13615
13826
13669
13786
13874
13880
14150
14069
14507
14368
14970
14865
15528
15404
16046
15771
16151
15840
16091
15545
15640
14769
14629
13766
13593
12915
12831
12451
12340
12193
12033
12112
11873
12121
11840
12245
11873
12265
11884
12320
12015
12467
12116
12410
12193
12420
12269
12298
12248
12135
12228
11954
12294
11993
12352
12079
12625
12293
12774
12392
12785
12454
12716
12402
12555
12493
12583
12712
12723
12999
12963
13754
14108
16269
17146
16345
12006
12292
12531
13271
13020
13384
13245
13440
13388
13505
13581
13455
13651
13477
13854
13570
13902
14052
14380
14344
14828
14805
15425
15378
15989
15713
16183
15858
16178
15623
15569
14866
14624
14048
13679
13361
13038
12981
12645
12829
12453
12762
12353
12710
12274
12638
12293
12661
12325
12625
12401
12555
12456
12502
12555
12451
12595
12410
12661
12322
12657
12299
12754
12382
12708
12285
12700
12488
12944
12837
13097
13015
13091
13172
13036
13133
12853
13078
12803
13217
12876
13300
12981
13545
13621
14477
15792
17696
16907
12731
12585
13582
13585
13937
13741
13916
13769
13839
13824
13747
13879
13711
13962
13687
14148
13899
14395
14064
14566
14365
14858
14683
15170
15100
15415
15325
15406
15318
15140
14944
14265
14017
13246
13180
12487
12631
12065
12329
11911
12228
11913
12194
11952
12134
12027
12135
12175
12132
12327
12176
12472
12182
12564
12245
12621
12231
12648
12320
12660
12400
12741
12492
12659
12585
12710
12916
12768
12849
12541
12921
12720
13248
13226
13480
13343
13614
13284
13538
13129
13477
13010
13344
12915
13258
12926
13179
13129
13701
14182
15473
17039
16706
13344
12072
13098
13418
14024
13758
14207
13857
14235
13887
14292
13999
14285
14125
14363
14294
14361
14400
14362
14604
14487
14934
14811
15428
15275
15827
15492
15902
15481
15717
15163
15072
14419
14075
13543
13215
12955
12600
12589
12255
12474
12045
12327
11870
12267
11900
12295
11967
12361
12144
12395
12192
12377
12175
12624
12280
12594
12424
12655
12560
12607
12651
12547
12746
12578
12907
12632
13006
12679
13142
12790
13195
12698
13045
12826
13183
13065
13297
13245
13295
13382
13364
13489
13215
13413
13035
13401
13011
13413
13033
13538
13432
14510
15170
16776
16380
13378
11429
12177
12976
13207
13443
13193
13463
13175
13605
13210
13640
13223
13624
13356
13797
13536
13854
13759
14054
14154
14372
14657
14736
15199
15159
15572
15328
15675
15203
15239
14780
14708
13996
13973
13266
13360
12774
13063
12604
12866
12495
12785
12511
12629
12457
12443
12472
12450
12645
12433
12697
12355
12687
12335
12732
12330
12750
12442
12800
12467
12704
12522
12760
12801
12871
12952
12931
13192
12957
13158
12783
13209
12837
13454
13181
13584
13270
13672
13386
13610
13337
13397
13238
13277
13382
13319
13582
13351
13801
14228
15837
16784
16746
14467
11027
11390
12735
13200
13725
13586
13804
13784
13815
13717
14119
13951
14133
14062
14167
14279
14217
14455
14353
14814
14653
15261
15139
15747
15517
15985
15590
15941
15582
15664
15086
14809
14249
13848
13513
13113
13018
12549
12680
12241
12582
12149
12484
12048
12481
12079
12408
12066
12314
12116
12290
12273
12309
12318
12193
12371
12116
12386
12028
12422
12053
12444
11997
12358
12022
12416
12238
12647
12531
12773
12755
12721
12715
12508
12657
12452
12751
12349
12750
12385
12880
12610
13427
14278
16184
16050
15392
10707
11204
11903
13067
13118
13539
13446
13716
13736
13809
13835
13741
13986
13844
14207
13916
14326
14035
14522
14250
14818
14671
15260
15238
15756
15715
16015
15935
15912
15807
15453
15234
14525
14308
13522
13526
12849
13020
12432
12678
12262
12600
12283
12538
12331
12478
12418
12455
12504
12429
12676
12501
12811
12482
12848
12447
12861
12472
12838
12499
12856
12558
12769
12549
12703
12648
12650
12677
12793
12668
13038
13023
13148
13206
13081
13192
12933
13145
12760
13125
12753
13191
12892
13351
13125
13670
14100
15225
16627
17314
15135
12075
12501
13101
13669
13493
13775
13514
13933
13588
14050
13787
14296
13963
14413
14261
14636
14497
14791
14860
15096
15349
15480
15833
15827
16286
16082
16424
16012
16316
15716
15735
14877
14721
13944
13788
13164
12961
12650
12505
12398
12237
12340
12052
12242
11945
12349
12029
12449
12088
12473
12103
12525
12237
12618
12183
12548
12202
12537
12229
12503
12271
12473
12415
12522
12505
12363
12565
12501
12939
12717
13021
12686
13035
12619
12985
12550
12806
12382
12615
12348
12518
12485
12564
12756
12972
13802
14998
16740
15967
12440
11027
12190
12536
13223
12977
13427
13174
13490
13354
13632
13560
13597
13617
13635
13853
13720
14094
13954
14507
14316
14925
14792
15371
15225
15714
15458
15760
15496
15627
15319
15015
14629
14028
13485
13385
12962
12875
12782
12607
12618
12355
12599
12258
12605
12510
12686
12493
12689
12448
12716
12522
12818
12667
12945
12811
13020
12960
13072
13128
13165
13292
13248
13443
13324
13511
13362
13658
13626
13954
13719
13968
13777
13953
13649
13621
13285
13182
13192
13147
13276
13204
13440
13376
14202
14840
16744
17275
15775
11356
11774
12318
13036
12970
13118
13036
13055
12965
12938
12993
12906
13080
12971
13340
13259
13620
13531
13979
14030
14363
14382
14762
14571
14963
14788
14899
14523
14501
14009
13794
13200
12797
12345
12030
11901
11657
11661
11440
11623
11444
11684
11543
11887
11716
12044
11885
12141
12020
12207
12075
12164
12174
12186
12278
12185
12273
12097
12259
12128
12470
12369
12732
12538
12945
12791
13041
12868
12978
12848
12916
12899
12853
12975
12937
13178
13167
13581
14566
16448
16952
16753
12277
10935
11838
12892
13293
13518
13652
13780
14025
14163
14225
14503
14357
14262
14381
14366
14674
14567
14917
14793
15267
15165
15843
15790
16352
16245
16564
16346
16451
16193
16064
15676
15129
14812
14185
13972
13451
13467
12931
13028
12639
12865
12482
12765
12440
12652
12430
12614
12554
12636
12653
12606
12764
12615
12763
12382
12619
12316
12627
12244
12786
12655
13048
12892
13135
12864
12973
12784
12815
12749
12694
12811
12649
12960
12747
13273
13331
14861
16172
17155
16042
11972
10467
12348
12889
13474
13142
13544
13365
13681
13526
13822
13669
13818
13818
13757
13849
13796
14156
14034
14438
14310
14880
14828
15398
15299
15701
15449
15594
15270
15238
14836
14576
14117
13624
13275
12756
12680
12265
12533
12165
12342
11927
12274
12054
12419
12148
12406
12186
12405
12290
12459
12493
12467
12533
12277
12461
12189
12431
12130
12532
12339
12797
12541
12930
12684
12951
12743
12824
12657
12782
12833
12753
12897
12747
13006
13430
14427
15781
16866
16314
12506
11043
12389
12973
13686
13453
13774
13453
13726
13442
13747
13531
13762
13664
13780
13761
13822
13966
13869
14117
14021
14501
14398
14986
14916
15453
15184
15555
15198
15299
14795
14577
13994
13708
13330
12973
12799
12501
12558
12245
12455
12121
12454
12180
12496
12185
12587
12419
12711
12501
12706
12595
12674
12673
12717
12757
12662
12890
12635
12890
12595
12999
12658
13111
12994
13307
12978
13224
12942
13360
12967
13203
12853
13144
12897
13090
12893
13060
13281
13718
14568
15687
17343
16794
13302
11474
12529
12971
13602
13306
13647
13393
13765
13528
13643
13426
13583
13564
13609
13655
13624
13840
13728
14130
13956
14475
14399
14992
14819
15262
15167
15495
15140
15176
14807
14746
14185
13559
13227
12925
12995
12705
12959
12734
13046
12680
12988
12696
12989
12642
12921
12610
12751
12547
12713
12718
12727
12761
12657
12802
12611
12706
12813
12854
12755
12845
12640
12717
12468
12820
12679
13186
12931
13268
12935
13220
12913
13084
12852
12919
12870
12956
12985
12878
13049
12964
13493
13915
15135
16185
16141
12450
11173
11731
12865
12913
13221
13150
13383
13351
13324
13278
13267
13409
13288
13682
13565
13970
13792
14255
14104
14600
14437
14979
14934
15420
15378
15583
15551
15547
15517
15178
14942
14279
14058
13412
13333
12747
12805
12356
12552
12252
12548
12288
12583
12342
12678
12276
12518
12224
12391
12121
12222
12053
12070
12245
12384
12722
12759
13074
12908
13168
12885
13199
12926
13220
12874
13100
12764
13000
12803
13039
12992
13069
13105
13065
13241
13037
13185
12848
13054
12768
13072
12761
13150
12945
13417
13842
14899
16301
17182
15648
11699
11817
12772
13663
13756
14085
13967
14249
14095
14248
13954
14142
13801
13984
13609
13748
13439
13602
13376
13584
13605
13893
14159
14454
14857
15186
15260
15516
15503
15398
15329
14938
14759
14178
14168
13577
13652
13149
13363
12784
12963
12583
12849
12577
12755
12654
12762
12848
12946
13167
13070
13452
13201
13585
13214
13570
13114
13543
13129
13432
12990
13260
12975
13184
13056
13247
13420
13453
13746
13499
13763
13319
13711
13171
13506
12911
13405
12912
13368
12903
13357
13003
13431
13450
14784
16670
16957
16412
11891
10892
11379
12924
12686
13738
13054
13983
13263
14117
13504
14339
13530
14363
13616
14418
13889
14565
14140
14724
14721
15109
15342
15461
16015
15790
16345
15754
16373
15518
16047
14877
15157
13922
14118
13089
13314
12561
12603
12121
12046
12027
11904
12199
11842
12422
11910
12549
11844
12518
11810
12571
11903
12504
11936
12401
12005
12220
11941
11930
12044
11999
12317
11976
12581
12262
12900
12366
12998
12361
12982
12362
12960
12477
12955
12665
12962
12861
12989
13066
13758
15743
16837
17274
12450
11281
12164
13095
13185
13663
13316
13931
13418
13911
13409
14044
13587
14086
13777
14157
13876
14149
14127
14285
14551
14690
15169
15180
15742
15465
15996
15600
15892
15234
15380
14505
14435
13639
13519
12864
12758
12490
12347
12248
12017
12139
11802
12119
11786
12250
11915
12453
12007
12498
12148
12538
12231
12516
12317
12482
12400
12467
12610
12462
12672
12400
12699
12438
12955
12683
13272
12917
13338
12868
13181
12764
12990
12655
13186
12753
13229
12935
13377
13086
14191
15664
17406
17800
14530
11582
12114
13136
13242
13723
13275
13786
13329
13783
13303
13765
13387
13727
13474
13717
13649
13753
13879
13894
14224
14143
14669
14574
15350
15215
15838
15359
15857
15322
15578
14785
14623
13808
13595
13013
12746
12522
12226
12345
12018
12328
11876
12364
11906
12474
11978
12573
12077
12597
12216
12661
12387
12664
12581
12731
12747
12637
12854
12582
12982
12589
12810
12823
13026
12802
13146
12729
13167
12648
13169
12552
13052
12476
13141
12827
13397
13051
13438
13232
13368
13341
13264
13367
13044
13422
12995
13453
12973
13598
13143
14249
14288
16801
17463
16796
12458
12561
12916
13417
13416
13339
13519
13230
13604
13210
13745
13272
13955
13343
13985
13473
14147
13724
14362
14119
14684
14739
15187
15398
15603
15982
15840
16247
15826
16248
15466
15680
14573
14621
13492
13605
12672
12855
12201
12422
11766
12354
11702
12142
11620
11948
11676
11856
11767
11740
11810
11525
11849
11504
12052
11541
12168
11605
12284
11738
12443
11963
12594
12198
12595
12352
12541
12489
12556
12706
12517
12890
12525
13040
12523
13107
12575
13218
12719
13454
12920
13481
13036
13445
13188
13383
13276
13148
13199
12967
13352
13006
13553
13145
13900
13814
15630
17054
17830
14099
12528
12621
13612
13535
13744
13718
13675
13814
13617
13980
13578
14065
13906
14105
14040
14444
14226
14803
14413
15099
14744
15650
15315
16246
15886
16538
16111
16510
16114
16101
15666
15308
14988
14325
14205
13543
13746
12983
13312
12530
13047
12335
12864
12235
12724
12198
12610
12250
12428
12292
12272
12315
12086
12397
12089
12576
12094
12728
12149
12810
12222
12866
12343
12886
12414
12854
12554
12768
12612
12604
12724
12588
12929
12631
13170
12698
13277
12582
13158
12529
13245
12803
13345
12872
13293
12881
13510
12867
13317
12701
13116
12786
13101
13011
13193
13315
13868
15200
16793
17479
14318
12131
12052
13440
13248
13899
13364
13945
13494
13979
13700
14004
13868
13979
14071
13981
14249
13945
14393
14002
14688
14296
15096
14693
15499
15112
15775
15351
15746
15337
15473
15010
14663
14215
13605
13460
12828
12994
12268
12637
12005
12514
11939
12544
11996
12587
12186
12644
12346
12623
12482
12503
12553
12433
12676
12327
12693
12255
12597
12547
12778
12529
12898
12514
13043
12511
13111
12552
13128
12542
13078
12617
13079
12761
13057
12862
12988
12982
12858
13096
12996
13482
13121
13632
13162
13745
13140
13725
13113
13632
13189
13675
13333
13606
13504
13652
14645
16096
17595
17109
13617
11108
12478
12710
13680
13115
13741
13291
13874
13426
13910
13595
13918
13792
13881
13955
13943
14281
14099
14570
14271
14971
14657
15465
15219
16002
15626
16151
15623
15993
15518
15459
14506
14622
13689
13789
13030
13076
12636
12615
12482
12370
12531
12251
12603
12192
12731
12246
12828
12212
12796
12233
12833
12312
12753
12265
12555
12259
12411
12410
12382
12599
12379
12796
12387
12898
12404
13093
12578
13247
12750
13303
12802
13234
12877
13204
13009
13061
13004
12974
13235
13062
13475
13103
13618
13114
13695
13025
13556
12901
13426
12892
13409
13058
13355
13221
13501
14335
15763
17283
16727
13012
11437
12790
13011
13583
14020
13683
14088
13607
14174
13718
14181
13524
14157
13773
14270
13933
14415
14272
14676
14787
15173
15360
15440
15915
15821
16406
15953
16444
15640
15759
14789
14950
14026
14124
13304
13465
12863
12694
12255
12083
12038
11784
11958
11566
12048
11758
12421
11834
12461
11733
12325
11794
12430
11970
12570
12222
12519
12455
12577
12692
12528
12769
12186
12414
11616
11994
11031
11701
11077
11965
11482
12370
11882
12554
12268
12887
12647
13518
12940
13645
13159
13559
13315
13523
13539
13516
13943
13585
14883
16331
18813
18433
16283
11850
13128
12909
13868
13285
14001
13637
14064
13862
14053
14056
14048
14394
14179
14753
14387
15057
14552
15235
14636
15558
15161
15979
15814
16480
16357
16621
16609
16621
16674
16202
15864
15056
14737
13923
13733
13098
13180
12682
12751
12287
12498
12169
12233
12044
12119
12084
12064
12192
12129
12317
12028
12330
12059
12349
12001
12259
12009
12303
12077
12346
12052
12395
12115
12423
12080
12296
12082
12382
12417
12581
12575
12643
12824
12721
12971
12595
12851
12629
12823
12502
13046
12721
13226
13017
13781
15017
17849
19056
17053
13136
13213
13576
13807
14056
13746
14048
13803
14068
13665
14036
13632
13774
13364
13545
13366
13704
13698
13819
13857
13970
14154
14376
14864
14938
15354
15150
15571
15200
15424
14816
14808
13930
13813
13171
13053
12611
12453
12144
12208
11898
12048
11956
12232
12289
12543
12913
13067
13548
13411
13711
13660
13752
13054
12983
12346
12568
12223
12223
11769
11716
11388
11369
11008
10747
10601
10446
10507
10436
10919
10721
11360
11501
12084
11942
12349
12181
12386
12153
12382
12195
12376
12424
12514
12317
13911
17668
20361
19892
13642
11958
11789
12324
12127
12536
12412
12820
12573
12809
12825
12806
12647
12509
12490
12453
12685
12654
13193
13227
13863
13942
14707
15047
15675
15775
16073
15777
16238
15826
15987
15116
14973
14252
14130
13920
13849
13391
13260
13226
13033
13229
12978
13320
13078
13577
13312
13911
13555
13965
13645
13979
13682
13898
13708
13788
13665
13638
13702
13413
13603
13319
13619
13169
13549
13024
13466
12976
13402
13111
13345
13067
13373
13182
13379
13366
13424
13544
13271
13478
13002
13185
12628
12990
12519
13014
12568
12764
13997
17961
20667
20457
14478
12625
12792
13108
13190
13595
13398
13423
13357
13270
13236
13014
13230
12938
13250
12864
13420
12932
13429
12969
13604
13464
14131
14135
14727
14728
14924
14876
14915
14859
14432
14327
13603
13546
12756
12816
12219
12556
11953
12348
11995
12321
12101
12363
12157
12395
12404
12503
12586
12478
12503
12245
12694
12341
12864
12427
12992
12486
12839
12401
12775
12456
12717
12489
12635
12663
12812
12966
12900
13176
13069
13516
13012
13419
12972
13444
13015
13415
12867
13384
13046
13370
12599
13915
15853
18840
19339
16263
11262
11928
12338
12729
13035
13139
13486
13237
13537
13234
13751
13362
13832
13444
13976
13486
13925
13742
14295
14196
14589
14754
15099
15454
15450
15678
15398
15743
15437
15623
14714
14572
13538
13498
12685
12825
12250
12406
12107
12155
11873
11961
12010
11911
12234
12000
12308
12083
12562
12067
12435
12071
12670
12178
12530
12285
12668
12434
12754
12714
12689
12780
12637
12800
13190
13014
13169
13266
13305
13442
13142
13506
13126
13449
13052
13583
13259
13802
13391
13918
13528
13724
14995
18309
19681
19465
13754
12212
12912
12995
13644
13272
13683
13340
13802
13249
13747
13314
13734
13366
13778
13328
13489
13565
13676
13837
13912
14464
14529
15158
14866
15395
15018
15423
15046
15618
14737
14621
13864
13764
13132
12998
12721
12744
12517
12270
12386
12057
12217
11869
12378
12018
12395
11877
12372
12029
12493
12237
12724
12194
12698
12271
12646
12301
12713
12394
12675
12510
12636
12594
12598
12718
12552
13037
12700
13055
12718
13226
12874
13408
12980
13454
13027
13227
12879
13109
13030
13192
13228
13070
13319
12793
14075
16627
19957
20333
16445
12456
12874
12771
13374
12908
13299
13129
13386
13216
13271
13273
13147
13274
13131
13604
13302
13768
13347
13874
13592
14260
14073
14806
14733
15225
15101
15475
15366
15251
14830
14374
14020
13516
13012
12899
12682
12542
12555
12130
12267
11981
12371
11991
12357
11854
12455
11999
12503
12185
12528
12191
12450
12378
12490
12540
12530
12610
12479
12824
12540
13004
12808
13284
12840
13330
12913
13300
12983
13379
13077
13464
13349
13510
13602
13554
13798
13606
13927
13614
14003
13511
13923
13459
13908
13424
13747
13415
13683
13192
14852
17813
20508
19952
14529
12781
12661
13152
12885
13390
13074
13492
12997
13485
12923
13307
12871
13337
12955
13484
12995
13552
13303
13740
13533
13895
14028
14391
14601
14699
14837
14521
14774
14347
14342
13481
13538
12714
12867
12159
12411
11987
12228
11967
12299
12023
12121
12096
12172
12344
12270
12732
12260
12582
12239
12745
12387
13020
12666
13171
12722
13043
12812
12960
12697
12886
12798
12735
12960
12747
13007
12798
13159
12855
13471
12993
13185
12926
13547
13326
13765
13591
13929
13830
13785
13689
13699
13773
13515
13592
13786
13662
13589
13738
13507
14238
15965
19416
20427
18202
13147
13308
13173
13827
13405
13757
13476
13813
13505
13554
13548
13442
13552
13450
13690
13463
13823
13522
13949
13610
14325
14059
14540
14331
14873
14664
14982
14764
14763
14510
14098
13685
13101
12828
12126
12239
11744
11976
11502
11836
11485
11989
11630
12072
11872
12252
12214
12396
12419
12241
12378
12200
12473
12210
12663
12116
12605
12242
12596
12348
12828
12381
12955
12555
13090
12655
13083
12670
12983
12713
13018
12836
13045
13052
12956
12978
12898
13313
13193
13663
13409
13705
13216
13689
13224
13496
12977
13302
12975
13280
13130
13449
13520
13664
15134
17788
20175
19169
14221
12801
13515
13413
14023
13483
13871
13354
13588
13291
13530
13391
13603
13556
13570
13750
13534
13800
13539
13948
13769
14321
14193
15072
14833
15424
15088
15296
14883
14902
14476
14319
13865
13434
13128
12540
12430
11926
11995
12025
12021
11842
12104
11819
12185
11866
12330
12010
12465
12010
12468
12197
12599
12303
12593
12423
12699
12752
12797
12879
12841
12960
12780
13251
12933
13350
12895
13394
12832
13268
13040
13300
12901
13245
13011
13353
13513
13638
13680
13366
13651
13293
13439
12967
13314
12711
13129
12648
13092
12782
13256
12931
14419
16886
19447
19139
13951
12295
12394
13239
13160
13411
13081
13676
13369
13959
13506
13964
13588
13959
13685
14213
13837
14386
14041
14696
14583
15011
14997
15363
15438
15561
15666
15523
15727
15223
15314
14543
14502
13552
13576
12805
12885
12147
12367
12133
12326
12089
12189
12077
12214
12428
12321
12475
12197
12584
12172
12625
12362
12973
12562
12706
12382
12763
12502
12915
12691
12915
12854
12807
12744
12481
12818
12564
13001
12780
13242
12793
13418
13070
13575
13199
13576
13163
13386
13084
13163
13044
13038
13228
13001
13279
13082
13401
14179
16688
19286
20115
15472
12275
12280
13365
13376
13929
13633
14131
13676
14092
13814
14099
13778
13950
13853
13902
14062
13999
14247
14027
14540
14409
15075
14909
15762
15423
16215
15777
16062
15660
15750
15182
14884
14289
13728
13365
12811
12628
12122
12284
11749
11988
11520
11923
11549
11909
11514
11883
11663
12023
11946
12190
12195
12310
12326
12180
12280
11988
12273
11861
12163
11752
12261
12032
12701
12422
12909
12707
13025
12798
13233
12799
13140
12793
13105
12801
12984
12883
12994
12895
14178
17479
19570
19352
13151
11959
11962
12865
12740
13197
12935
13313
12997
13392
13212
13366
13154
13159
13281
13312
13653
13514
13933
13589
14246
14133
14773
14573
15236
15048
15525
15233
15370
14886
14753
14265
13817
13382
12843
12716
12177
12348
11917
12324
11834
12231
11810
12292
11887
12273
12028
12383
12237
12402
12396
12545
12579
12434
12679
12351
12638
12318
12532
12273
12541
12381
12773
12482
12799
12319
12799
12399
12988
12769
13325
13082
13461
13347
13535
13388
13333
13379
13398
13622
13267
13536
13310
13789
13023
14338
16502
19914
20180
16170
12297
12656
12903
13390
13424
13530
13700
13604
13885
13712
14050
13770
14019
13511
13995
13640
14156
13812
14190
13929
14346
14267
14605
14718
14860
15068
14740
14794
14410
14609
13895
13930
13083
13207
12458
12731
12102
12451
12124
12402
12265
12667
12174
12622
12341
12735
12497
12637
12558
12613
12645
12470
12621
12263
12544
12157
12472
12101
12598
12063
12614
12218
12632
12263
12686
12592
12894
13008
13206
13399
13498
13653
13265
13515
13037
13320
12860
13381
13038
13497
13144
13736
13322
13953
15427
18729
20495
18516
13373
12720
13456
13422
13606
13215
13843
13375
13747
13387
13889
13330
13650
13284
13543
13377
13469
13445
13575
13762
13850
14400
14459
15095
14826
15510
15193
15314
14963
15055
14351
14011
12987
13052
12244
12521
11948
12354
12026
12242
11963
12268
12322
12428
12568
12603
12909
12647
12909
12511
13021
12590
13095
12660
13122
12529
12796
12493
12872
12603
12800
12833
12892
12911
12776
13124
13015
13439
13165
13704
13370
13840
13314
13690
13282
13617
13235
13546
13420
13479
13460
13603
13695
13600
15314
18091
20905
19315
13797
12160
12982
12932
13427
13055
13431
13005
13174
12990
13176
13096
13393
13085
13322
13199
13457
13375
13447
13696
13847
14202
14122
14706
14527
15003
14530
14979
14443
14782
13968
13842
12987
12681
12093
11980
11805
11672
11818
11733
12065
11925
12315
11818
12361
12044
12605
12203
12678
12330
12656
12337
12777
12538
12634
12660
12683
12792
12626
12892
12697
13034
12582
12946
12311
12738
12396
13085
12744
13247
12946
13259
13000
13166
13115
13004
12889
12454
12711
12502
13011
12620
13128
12811
13523
15636
19105
20035
16975
11639
12377
12514
13336
12980
13431
13033
13370
13202
13359
13172
13191
13375
13396
13701
13460
13962
13757
14348
14071
14838
14591
15293
14960
15513
15346
15762
15511
15721
15379
15080
14665
13998
13795
13140
13260
12631
12887
12345
12629
12178
12794
12327
12728
12367
12729
12537
12772
12759
12668
12732
12473
12689
12278
12527
12087
12557
12079
12529
12027
12512
12256
12703
12558
12967
12837
13134
13149
12977
12678
13059
12760
12976
12890
12763
12856
12667
12898
12790
13103
14225
17562
18853
18113
11491
11244
11578
12576
12495
12912
12811
13088
12916
12982
13158
13065
13405
13155
13515
13329
13871
13587
14252
14118
14743
14470
15219
15228
15818
15812
16101
16007
15853
15688
15119
15070
14304
13978
13167
13332
12769
13149
12240
12565
12100
12601
12382
12812
12585
12726
12750
12711
12895
12700
12904
12670
13084
12618
12999
12483
12878
12473
12981
12749
13359
13141
13735
12922
13359
12715
13038
12601
12888
12535
12763
12735
12903
13174
12708
14132
16757
19510
19220
14233
11224
12300
12525
13405
13084
13729
13401
13739
13586
13636
13517
13621
13838
13711
13870
13764
14210
13972
14522
14322
14890
14686
15372
15168
15718
15434
15740
15432
15443
15022
14503
13895
13275
13038
12337
12517
11884
12252
11616
12221
11617
12021
11625
12210
11923
12243
12144
12334
12274
12221
12432
12468
12205
12328
12203
12313
12300
12184
12576
12385
12890
12702
13066
12521
13164
12500
12874
12454
12917
12789
12937
12547
12706
12891
12933
13576
15363
18948
20474
17446
12131
12576
12638
13542
12988
13334
13043
13565
13242
13509
13200
13347
13491
13502
13475
13390
13792
13618
14214
14021
14740
14538
15267
15041
15562
15258
15583
15189
15390
14955
14708
14174
13716
13447
12897
12845
12484
12778
12224
12571
12047
12523
12070
12596
12163
12628
12225
12779
12302
12837
12456
12611
12294
12567
12393
12567
12429
12502
12584
12392
12674
12632
13153
12624
13032
12686
13208
12640
12972
12470
12892
12422
12794
12657
12878
12781
12755
12863
14163
17562
20172
19626
13233
12437
12134
12958
12648
13321
13021
13489
13170
13489
13207
13388
13390
13488
13552
13534
13852
13589
14059
13904
14396
14003
14697
14524
15333
15031
15437
15040
15417
14974
14804
14306
14008
13635
12914
12557
12625
12520
12571
12383
12220
12602
12185
12479
12166
12660
12209
12577
12143
12714
12265
12748
12575
12955
12710
13017
12761
12866
12934
12947
13291
12968
13226
12659
13192
12947
13604
13288
13801
13182
13563
13287
13520
13268
13409
13348
13393
13454
13382
13749
13516
13848
13192
14612
16882
20555
20260
15441
12240
12854
12840
13287
13133
13164
13166
13277
13383
13317
13506
13124
13528
13204
13586
13171
13817
13551
14004
13743
14370
14541
15058
14753
15457
15171
15447
14875
15052
14410
14169
13511
13088
12732
12287
12372
11935
12266
11848
12230
11777
12299
11849
12329
11909
12280
12096
12557
12041
12243
12265
12414
12527
12310
12498
12297
12697
12356
12778
12344
12949
12525
12888
12504
12948
12369
12753
12652
13016
12995
12928
12968
12973
13233
12721
13028
12694
12987
12500
13009
12362
12867
12550
13017
12608
14023
16845
19932
19283
13606
11934
12200
12928
12713
12966
13095
13152
13126
13466
13323
13563
13187
13492
13063
13558
13105
13663
13470
14102
13981
14621
14671
14959
15019
15180
15235
15071
15190
14726
14783
13991
13931
13088
13212
12435
12688
11992
12310
11958
12258
12045
12324
12274
12404
12473
12306
12683
12532
12842
12396
12967
12723
13050
12431
12971
12617
12936
12573
12920
12705
12902
12851
12725
12828
12616
12652
12471
12902
12258
12705
12389
13042
12825
13335
12853
13275
12809
13140
12757
13274
12757
13217
13054
13245
12932
13298
13285
13315
14647
17319
19990
19058
13738
12076
13163
13316
13812
13200
13707
13160
13530
13261
13669
13526
13756
13456
13593
13776
13679
13994
13856
14401
14101
14728
14597
15429
15129
15762
15499
15958
15731
15805
14887
14501
13923
13486
13176
12870
12770
12447
12615
12084
12628
12300
12649
12143
12840
12558
12936
12582
13156
13064
13057
13164
13314
13258
12796
12938
12939
13462
13281
13246
13144
13126
12866
13223
12787
13008
12692
13373
12594
12963
12623
13127
12883
13441
12993
13238
12953
13229
13306
13016
13202
13221
13702
13132
13176
12618
13309
13158
13444
13778
16563
19077
20398
16301
11720
11755
12742
13189
13046
13320
13317
13485
13100
13533
13042
13485
13047
13569
13213
13430
13098
13674
13519
14018
14200
14493
14851
15105
15594
15409
15907
15592
16092
15500
15480
14603
14543
13642
13709
13148
13411
12348
12807
12137
12292
11958
12494
12249
12482
12276
12443
12472
12678
12610
12304
12610
12152
12627
12259
12680
12204
12751
12274
12736
12385
12813
12676
12784
12667
12927
12942
13022
13176
12957
13323
12833
13086
12588
12985
12682
13184
12808
13450
12904
14371
16680
19227
19224
14417
11012
11755
12554
12828
13356
13187
13724
13548
13789
13170
13582
13206
13719
13348
13849
13600
13920
13875
14173
14258
14480
15056
14959
15364
15269
15452
15445
15615
15158
14977
14171
14090
13134
13083
12236
12466
11806
12193
11670
11728
11498
11962
11876
12057
12287
12225
12059
11908
12386
12124
12459
12080
12611
12282
12761
12177
12514
12081
12440
12146
12519
12458
12684
12822
12948
13156
12996
13223
12830
13095
12618
13148
12765
13335
12900
13380
13176
13406
14018
16249
18878
20253
16678
12075
12727
13202
13803
13613
14111
13682
14149
13671
14148
13576
13762
13134
13442
13389
13874
13423
14113
13943
14426
14221
14874
14973
15673
15689
15619
15868
15951
16151
15576
15585
14689
14375
13412
13503
12932
13281
12691
12803
12390
12620
12268
12313
12212
12225
12370
12415
12733
12107
12383
12081
12684
12248
12743
12249
12683
12246
12894
12224
12354
12014
12214
12372
12539
12388
12246
12950
12521
12857
12830
13167
12526
13039
12820
13269
12409
12796
12587
12910
12791
13008
13250
13355
14106
16435
19930
20508
18293
13158
12970
13377
13678
13311
13699
13062
13400
12989
13566
13204
13736
13106
13513
13054
13482
13411
13788
13815
14092
14000
13898
14397
14466
14963
14704
15290
14447
14660
14099
14352
13540
13549
12876
12974
12571
12699
12321
12502
12538
12467
12718
12613
13020
12753
13014
12567
12994
12353
13054
12733
12835
12467
12954
12599
12856
12546
12697
12726
12502
12738
12621
13008
12700
13068
12533
12991
12654
13278
12835
13347
13072
13482
13346
13678
12806
13119
12747
13238
13007
13419
13393
13255
13014
13450
15472
18700
20490
17920
13049
11952
12769
12551
13035
12680
13151
12711
13141
12825
13118
12846
13060
13000
12940
13141
13090
13530
13325
14003
13850
14411
14051
14972
14672
15225
14716
15152
14843
14858
14310
13968
13511
13056
12758
12313
12319
11855
12323
11862
12414
11890
12428
11964
12506
12217
12477
12108
12361
12256
12475
12387
12375
12501
12339
12568
12259
12727
12774
12761
12649
12858
12534
13119
12613
13121
12696
13345
12953
13517
13073
13536
13118
13421
13327
13606
13577
13500
13484
13412
13584
13154
13371
12849
13301
12781
13384
12915
13460
12918
13776
15168
18587
19767
17267
12175
12020
12733
13107
13469
13197
13631
13156
13614
13189
13615
13204
13773
13242
13750
13313
13583
13410
13716
13777
14040
14401
14549
15119
14995
15559
15276
15760
15235
15564
14726
14832
13957
13857
13023
13058
12609
12960
12236
12612
12114
12410
12106
12288
12181
12361
12294
12078
12326
12137
12452
12050
12637
12066
12554
12122
12672
12258
12768
12365
12790
12513
12810
12795
12928
12852
12844
13056
12828
13249
12703
13164
12798
13427
13074
13581
13128
13622
13303
13664
13220
13405
13089
13209
13310
13225
13375
13109
13529
13076
14696
16607
19126
18793
14192
11117
12277
12725
13486
13209
13558
13630
13880
14052
13870
14009
13759
14105
13615
13990
14114
14430
14394
14840
14630
15340
15067
15797
15477
16200
15605
16000
15584
15959
15324
15272
14567
14135
13614
13038
12768
12391
12571
12055
12424
11934
12373
11842
12270
11745
12211
11816
12251
11989
12255
12107
12153
12190
12114
12263
11999
12224
11746
12282
11842
12408
12099
12938
12542
13141
12766
13083
12601
12855
12507
12562
12726
12849
12839
12628
13063
12596
13192
12574
14310
16400
18834
18514
14639
10922
12171
12463
13643
13436
14101
13609
14075
13672
14046
13783
13922
13939
14146
14308
14015
14481
14630
15108
14470
15342
15103
15970
15764
16511
16033
16419
15957
16053
15357
15084
14497
13957
13549
12956
12919
12459
12584
11826
12349
