16701
16982
17082
16662
16273
15439
15003
14299
14133
13573
13444
12928
12834
12614
12724
12656
12708
12651
12574
12593
12444
12597
12448
12610
12392
12673
12496
12835
12646
12918
12610
12803
12570
12706
12667
12843
12962
13052
13140
13134
13338
13126
13238
12977
13282
13044
13315
13056
13420
13160
14269
16046
18487
19128
15055
12932
13139
13731
13717
14050
13784
14141
13753
14138
13762
14148
13756
14136
13922
14197
14095
14222
14278
14334
14501
14952
14964
15341
15434
15487
15655
15484
15553
14986
14864
14025
13979
13158
13295
12682
12981
12532
12840
12533
12721
12515
12644
12601
12575
12768
12580
12872
12571
12932
12525
12880
12430
12877
12418
12794
12417
12703
12338
12541
12389
12570
12776
12802
13090
12942
13243
12869
13239
12819
13245
12816
13378
13041
13590
13355
13781
14016
15560
17763
19141
16981
13074
13166
13393
13864
13536
13999
13533
13970
13608
14134
13721
16318
16417
16455
16437
16397
16613
16471
16859
16569
17014
16468
16871
16226
16398
15443
15290
14276
14051
13257
13038
12544
12291
12137
11948
12023
11712
11950
11516
11954
11531
11995
11559
12104
11673
12064
11698
12073
11801
11982
11918
11952
12074
12032
12219
11950
12295
12028
12539
12244
12857
12393
12868
12476
12873
12449
12672
12329
12412
12304
12302
12422
12342
12681
12741
14076
15916
17944
16001
12024
11281
12284
12267
12754
12462
12961
12503
12991
12635
13136
12758
13119
12864
13095
13102
13266
13433
13476
13923
13917
14560
14481
15181
14853
15406
14881
15314
14673
14781
13918
13773
13106
12889
12459
12327
12337
12139
12398
12143
12566
12196
12707
12264
12808
12325
12877
12416
12771
12402
12764
12538
12654
12509
12481
12523
12379
12641
12334
12720
12285
12833
12453
13111
12703
13275
12912
13450
13142
13468
13219
13250
13129
13056
13182
13017
13401
13239
13746
14828
16956
18662
18249
13106
12985
13217
14241
13857
14364
13852
14348
13863
14243
13862
14215
14006
14247
14207
14169
14374
14234
14600
14424
15018
14899
15643
15472
16155
15788
16333
15885
16219
15691
15673
14993
14668
14224
14039
13822
13266
13202
12619
12942
12498
12890
12395
12815
12290
12709
12312
12681
12379
12672
12487
12647
12640
12644
12708
12523
12785
12578
12948
12657
13030
12716
13270
12959
13350
12944
13297
12958
13387
13111
13667
13384
13882
13586
14952
16731
18236
18473
13872
11782
12620
13500
13586
13939
13632
14106
13704
14124
13709
14149
13824
14204
13882
14169
13956
14161
14246
14420
14739
14871
15382
15343
15848
15570
15953
15503
15768
15014
14988
14128
13978
13223
13057
12537
12419
12181
12015
11976
11757
11941
11747
12155
11861
12255
11922
12344
11983
12403
12054
12336
12079
12306
12253
12368
12351
12532
12834
12854
13142
13054
13313
13138
13182
13084
13212
12988
13228
12944
13392
13297
14326
15450
17435
17447
15480
11023
11896
12466
13083
13219
13327
13472
13395
13602
13429
13787
13528
13976
13649
14072
13686
14111
13728
14160
14042
14516
14591
14923
15124
15289
15423
15258
15407
14894
14808
14023
13840
12945
12992
12392
12592
12111
12342
12063
12335
12210
12402
12471
12514
12667
12520
12762
12477
12826
12534
12940
12612
13059
12703
13059
12625
12931
12717
12918
12794
13207
12923
13319
13033
13250
12981
12979
12794
12702
12716
12537
12731
12596
12916
13289
15425
17577
18822
14666
12473
12354
13093
12944
13118
12948
13057
13069
13125
13224
13138
13324
13036
13280
12944
13302
13007
13527
13269
13812
13677
14206
14201
14673
14672
14806
14821
14698
14656
14086
13909
13197
13148
12430
12603
12078
12376
11920
12337
11978
12359
12054
12249
12178
12282
12279
12182
12368
12224
12503
12207
12561
12161
12590
12346
12725
12488
13065
12913
13477
13124
13590
13234
13595
13169
13399
13102
13346
13198
13356
13353
13529
13726
14324
16157
18233
18916
14495
12683
12643
13351
13257
13660
13367
13610
13270
13498
13410
13489
13588
13628
13855
13836
14300
14132
14584
14348
14960
14637
15215
14895
15341
14913
15114
14752
14849
14443
14127
13654
13158
12927
12469
12545
12116
12463
12053
12494
12186
12580
12311
12772
12359
12630
12362
12505
12325
12364
12423
12838
12536
12819
12681
12692
12689
12744
12920
12950
13274
13098
13469
13259
13605
13156
13488
12988
13384
13026
13357
13123
13417
13352
14069
15249
17376
18685
16077
12643
12587
13510
13491
13938
13598
13967
13531
13770
13389
13713
13434
13606
13437
13501
13558
13458
13770
13740
13964
13843
14496
14456
15079
14894
15412
15116
15525
15136
15195
14590
14392
13888
13591
13308
13002
13012
12639
12856
12557
12866
12479
12899
12492
12909
12660
12945
12543
12929
12553
12994
12592
12915
12527
12798
12435
12627
12521
12646
12783
12828
12993
12919
13175
12832
13132
12640
12959
12578
13007
12663
13096
12843
13209
13736
15714
17666
18082
13549
11724
12368
12695
13112
12872
13242
12895
13304
12933
13329
12896
13206
12836
13098
12900
13204
13086
13286
13414
13527
13942
13985
14386
14198
14619
14257
14679
14221
14519
13826
13853
13217
13298
12727
12742
12638
12579
12515
12636
12446
12688
12528
12551
12487
12433
12593
12553
12823
12747
13217
13050
13438
13115
13442
13120
13507
13195
13601
13384
13550
13428
13457
13408
13216
13250
12969
13304
12967
13354
13007
13682
13617
15136
16735
18746
17271
12658
12220
13015
13333
13559
13635
13628
13808
13683
13907
13754
14118
13957
14242
13971
14285
14089
14499
14379
14765
14762
15151
15369
15610
15698
15702
15678
15556
15492
15096
14929
14319
14093
13520
13383
12955
12916
12662
12755
12556
12780
12559
12809
12535
12756
12519
12636
12417
12487
12340
12260
12227
12162
12328
12134
12447
12328
12701
12328
12662
12272
12522
12117
12295
12024
12396
12404
12602
12674
12887
13798
15351
17081
16654
14244
10140
11360
11874
12943
12822
13264
13015
13389
13166
13292
13244
13355
13461
13391
13607
13475
13885
13694
14116
13824
14369
14250
14877
14773
15250
15025
15374
15042
14906
14485
14064
13578
13102
12661
12599
12240
12079
11936
11788
11945
11749
11999
11770
12118
11835
12126
11898
12263
12059
12295
12108
12368
12258
12470
12434
12674
12783
12860
12924
12936
13013
12916
13034
12910
13155
13139
13329
13292
13806
14730
16502
17553
17573
14413
11696
12672
13448
13888
14043
14214
14340
14579
14136
14457
14322
14563
14393
14665
14602
14707
14683
14762
14985
15023
15412
15401
15992
15781
16326
15947
16300
15734
15858
14968
14848
14037
13786
12979
13073
12462
12760
12284
12490
12077
12224
12225
12255
12309
12195
12361
12140
12495
12151
12532
12013
12399
11981
12253
12021
12474
12248
12578
12428
12448
12460
12475
12302
12192
12390
12159
12395
12149
12631
12696
14146
15069
16042
14762
10589
10603
11645
12094
12439
12523
12524
12596
12531
12787
12665
13187
13024
13390
13238
13729
13535
13953
13813
14209
14208
14681
14792
15129
15258
15369
15415
15192
15338
14815
14599
13904
13602
13250
13205
12822
12905
12571
12915
12622
12978
12785
13113
12876
13205
13006
13262
13065
13211
13141
13084
13084
12980
13167
12979
13248
13111
13511
13167
13526
13148
13440
13042
13314
12998
13254
13160
13397
13332
13481
13591
14285
16352
18112
18509
13715
12845
12763
13478
13279
13711
13484
13890
13638
13794
13636
13734
13653
13669
13700
13568
13755
13632
14055
13897
14386
14366
15019
14975
15494
15321
15652
15461
15605
15213
14965
14316
14252
13654
13641
13274
13294
13078
12942
12883
12656
12734
12440
12567
12269
12580
12292
12619
12247
12581
12213
12537
12194
12271
12042
12144
12114
12261
12497
12455
12654
12493
12723
12422
12669
12236
12533
12270
12610
12280
12603
12485
13121
14153
16613
17778
15767
12114
11854
12437
12461
12749
12555
12880
12542
12953
12700
13040
12782
13192
12967
13157
12991
13143
13120
13249
13376
13498
13925
13953
14473
14348
14812
14654
14760
14356
14189
13390
13368
12596
12717
12104
12359
11931
12306
11966
12312
12110
12374
12308
12299
12355
12306
12478
12325
12612
12329
12664
12296
12596
12237
12566
12307
12693
12476
12898
12889
13088
13024
12965
13061
12972
13128
12920
13246
13044
13402
13189
13687
13423
14331
15388
18076
18875
15989
12759
13143
13610
13854
13891
13853
14011
13800
14023
13754
13988
13630
13990
13708
14089
13873
14294
14142
14456
14548
14945
15078
15697
15545
15928
15756
15902
15696
15514
15083
14490
14152
13572
13540
13092
13208
12746
12977
12610
12855
12648
12604
12326
12570
12353
12507
12307
12523
12385
12580
12532
12578
12481
12346
12282
12134
12221
12103
12450
12476
12732
12612
12922
12764
12913
12746
12836
12679
12797
12832
12977
13066
13172
13725
14591
16737
17749
15477
11723
12358
12921
13476
13178
13372
13193
13327
13125
13152
13081
13174
13187
13236
13420
13392
13584
13898
14026
14245
14545
14774
15129
15199
15433
15299
15520
15186
15199
14559
14468
13831
13685
13247
13149
12806
12826
12776
12742
12774
12639
12684
12396
12440
12117
12269
11995
12237
12026
12389
12236
12490
12274
12447
12309
12439
12475
12592
12863
12914
13084
12940
13122
12870
13087
12665
12896
12664
12952
12781
13022
12917
13223
13854
15877
17433
16632
11934
11581
12547
13038
13369
13148
13416
13168
13379
13103
13362
13149
13499
13376
13721
13528
13884
13732
14096
14178
14631
14789
15250
15433
15651
15724
15642
15651
15307
15139
14393
14089
13385
13309
12793
12819
12434
12610
12334
12496
12314
12465
12446
12509
12570
12487
12623
12568
12734
12593
12847
12623
12923
12706
13048
12878
13216
13073
13365
13180
13269
13068
12927
12901
12743
12870
12706
12978
12867
13279
14204
16403
17121
17307
12619
11187
11933
12887
13156
13346
13384
13542
13535
13430
13550
13517
13687
13778
13890
13954
14123
14159
14481
14445
14766
14782
15316
15349
15807
15693
15932
15602
15580
15048
14750
14111
13633
13188
12829
12742
12395
12437
12197
12288
12034
12295
12018
12305
12060
12359
12275
12535
12387
12545
12476
12544
12516
12597
12839
12828
13033
12872
13020
12736
12930
12555
12752
12472
12724
12562
12868
12934
13666
14837
16535
16565
15165
10858
11157
12222
12767
13168
12903
13209
13013
13373
13155
13424
13202
13581
13521
13965
13804
14194
14090
14468
14480
14875
14973
15374
15538
15679
15744
15623
15629
15149
14973
14268
14069
13390
13288
12810
12969
12496
12590
12251
12367
12217
12234
12175
12212
12280
12218
12383
12300
12491
12240
12516
12241
12566
12375
12763
12587
12951
12758
12893
12705
12763
12636
12641
12764
12703
12887
12887
13269
13877
15547
16851
17651
14145
11180
11616
12528
12763
13089
13034
13211
13209
13256
13358
13318
13456
13517
13541
13609
13713
13702
13963
14027
14462
14549
15157
15136
15578
15429
15767
15460
15569
15023
14781
14151
13814
13386
13094
12868
12664
12682
12419
12532
12283
12508
12253
12579
12305
12532
12234
12526
12334
12439
12269
12416
12322
12384
12477
12459
12700
12647
12800
12571
12851
12553
12732
12464
12792
12567
12871
12801
13148
13807
15496
17290
17912
13903
11717
12399
12744
13150
12967
13277
13015
13283
13056
13351
13088
13335
13226
13622
13463
13861
13694
14116
14111
14553
14616
15041
15156
15337
15423
15347
15381
15074
14889
14270
14061
13397
13359
12845
12993
12574
12785
12545
12760
12574
12773
12663
12724
12716
12681
12739
12559
12710
12513
12706
12458
12717
12497
12818
12670
12996
12856
13111
12943
13061
12931
12917
12899
12867
12989
12923
13252
13182
14028
15190
17762
18545
15771
12261
12678
12917
13315
13145
13243
13130
13132
13149
13190
13326
13210
13354
13571
13631
13641
13796
13838
14145
14156
14574
14571
15052
14937
15243
14994
15244
14791
14735
14082
13798
13291
13074
12826
12663
12660
12486
12660
12462
12634
12368
12601
12303
12541
12253
12502
12195
12381
12240
12448
12349
12365
12277
12264
12374
12332
12661
12607
12905
12806
13154
12898
13173
12880
13070
12807
13131
13007
13255
13337
13593
14129
15617
18179
18575
14763
12499
13071
13194
13541
13239
13542
13260
13462
13167
13413
13196
13528
13301
13636
13411
13702
13584
13905
13948
14291
14438
14666
14881
14957
15166
15065
15181
14851
14875
14242
14105
13491
13393
12854
12935
12590
12651
12431
12502
12418
12427
12456
12408
12509
12384
12544
12314
12545
12267
12469
12198
12467
12190
12398
12185
12310
12141
12284
12269
12480
12598
12652
12819
12727
12927
12760
12990
12650
12934
12707
12955
12751
13111
12935
13619
14628
16957
17636
14224
11679
12152
12973
13240
13240
13392
13396
13325
13434
13411
13600
13502
13788
13618
13901
13668
14023
13900
14306
14248
14622
14744
15102
15165
15326
15362
15300
15283
14903
14587
13912
13602
13030
13028
12617
12727
12407
12619
12460
12674
12512
12634
12552
12591
12558
12530
12593
12473
12661
12553
12758
12584
12838
12611
12843
12534
12748
12601
12941
12945
13104
13050
13135
13115
13109
13170
13057
13162
13020
13252
13072
13368
13242
13614
13942
15712
17405
15902
11722
12259
12831
13526
13374
13624
13457
13671
13638
13754
13779
13802
13929
13858
13971
13809
14000
13845
14191
14134
14595
14626
15137
15124
15455
15277
15389
15200
15124
14802
14411
13987
13493
13271
12880
12940
12553
12661
12363
12578
12343
12556
12319
12516
12342
12482
12363
12381
12313
12328
12367
12314
12439
12177
12394
12184
12491
12421
12878
12613
12939
12794
13006
12810
12933
12780
12879
12939
12999
13141
13178
13428
14291
15930
17798
17355
12535
11927
12630
13452
13324
13490
13276
13568
13339
13560
13355
13641
13494
13721
13670
13786
13793
13883
14001
14101
14401
14529
15049
15181
15569
15402
15616
15264
15275
14791
14582
13949
13625
13137
12928
12704
12540
12526
12420
12479
12368
12482
12286
12433
12196
12429
12249
12438
12207
12347
12235
12334
12196
12251
12279
12362
12548
12653
12939
12933
13189
12972
13066
12770
12882
12581
12848
12685
12907
12873
13225
13765
15318
16912
17925
14407
11309
11918
12821
13259
13299
13427
13409
13473
13321
13519
13354
13591
13423
13690
13572
13900
13847
14169
14185
14480
14532
14816
15104
15343
15483
15445
15537
15291
15242
14775
14509
13822
13621
13128
13131
12749
12753
12453
12533
12465
12520
12481
12554
12570
12559
12667
12525
12635
12453
12640
12409
12658
12447
12679
12580
12789
12650
12900
12827
12807
12690
12587
12673
12650
12862
12806
13019
13236
13944
15190
17093
17759
15179
11203
12062
12618
13342
13212
13400
13267
13405
13253
13409
13390
13537
13589
13592
13704
13737
13997
14011
14254
14078
14482
14549
15010
14993
15284
15050
15324
15072
14939
14509
14140
13521
13130
12900
12625
12521
12357
12491
12324
12438
12286
12498
12187
12333
12212
12444
12430
12562
12446
12440
12470
12575
12680
12763
12902
12888
13022
12920
13049
12756
12847
12637
12766
12596
12794
12722
13045
13022
13893
14886
16753
17268
13983
11285
11975
12704
12967
13019
12981
13080
12981
13064
12979
13218
13150
13349
13191
13436
13333
13611
13561
13864
13983
14283
14404
14613
14764
14781
14850
14706
14726
14281
14107
13559
13434
12941
12901
12553
12584
12292
12419
12307
12412
12521
12530
12658
12754
12933
12866
13058
12961
13043
12692
12820
12581
12713
12602
12816
12720
12880
12825
12815
12721
12681
12689
12650
12785
12717
12896
13092
13623
14529
16533
17660
16308
12165
12350
12855
13464
13288
13419
13265
13420
13235
13309
13318
13466
13529
13736
13884
13951
14092
14083
14371
14426
14796
14875
15274
15310
15630
15550
15681
15469
15435
14989
14604
14190
13819
13522
13234
13096
12897
12885
12832
12921
12630
12797
12561
12771
12533
12614
12387
12431
12286
12376
12394
12464
12689
12929
13036
12880
13157
12826
12925
12677
12796
12434
12685
12556
12691
12656
12918
13838
15597
16656
17258
13258
11799
12499
13223
13557
13632
13785
13606
13729
13446
13691
13499
13761
13506
13811
13632
13913
13830
14070
14099
14428
14641
14915
15171
15183
15331
15101
15215
14746
14611
14010
13624
12813
12770
12269
12341
12105
12207
12167
12361
12450
12506
12616
12615
12788
12643
12803
12583
12726
12323
12487
12253
12516
12289
12502
12566
12758
12733
12797
12770
12816
12831
12593
12770
12614
12893
12728
13024
12887
13630
15172
17702
18166
14445
12256
12938
13169
13482
13118
13374
13180
13290
13142
13243
13229
13174
13138
13099
13221
13163
13431
13283
13651
13650
14119
14139
14513
14463
14650
14587
14683
14419
14205
13721
13334
12909
12606
12471
12393
12493
12489
12658
12605
12716
12507
12605
12521
12564
12400
12494
12410
12509
12451
12475
12447
12540
12591
12704
12953
12989
13107
13129
13239
13184
13352
13185
13240
13102
13238
13221
13354
13412
13762
15638
17896
18719
15361
12194
12668
13198
13428
13409
13447
13532
13467
13576
13504
13642
13512
13558
13400
13573
13511
13695
13665
13945
14167
14520
14752
15040
15254
15299
15184
14949
14849
14485
14228
13664
13427
13013
12934
12748
12762
12600
12627
12495
12499
12379
12354
12365
12419
12588
12593
12706
12670
12663
12401
12390
12167
12215
12046
12228
12165
12359
12271
12286
12243
12225
12186
12175
12271
12260
12430
12582
12887
13622
15793
16755
15656
11634
11854
12680
13353
13290
13493
13409
13508
13409
13535
13507
13574
13581
13735
13802
13893
14029
14109
14379
14431
14749
14821
15224
15268
15446
15264
15341
15181
15058
14794
14449
14165
13803
13533
13279
13212
12934
12978
12894
13167
13114
13326
13143
13199
12990
12903
12709
12794
12725
12659
12589
12440
12424
12309
12451
12326
12524
12621
12874
12825
12804
12596
12534
12508
12951
12998
13095
13349
13687
14810
13096
14386
14932
15289
14973
14884
14681
14635
14331
14312
14027
13919
13629
13451
13167
12958
12931
12782
12942
12869
13183
13170
13416
13409
13764
13752
14076
14162
14263
13969
13696
13327
12971
12748
12455
12396
12277
12365
12177
12302
12257
12554
12445
12762
12815
13024
13042
13232
13235
13230
13134
13056
13001
12783
12945
12813
12950
12882
12968
12693
12777
12555
12768
12704
12900
12938
13168
13447
14135
15017
16180
16437
13283
11305
12367
12918
13135
13201
13117
13197
13100
13201
13108
13254
13148
13388
13340
13645
13561
13801
13876
14116
14297
14609
14809
15075
15313
15198
15191
15002
14881
14402
14164
13571
13368
12893
12862
12582
12521
12408
12506
12469
12515
12503
12459
12502
12407
12532
12301
12490
12387
12519
12483
12475
12343
12645
12699
12847
12846
12913
12865
12833
12813
12752
12695
12655
12814
12779
12926
13071
14096
15190
16243
16198
12656
10746
12183
12969
13328
13390
13474
13356
13474
13442
13549
13590
13585
13682
13817
13936
14005
14225
14405
14517
14736
15124
15339
15638
15678
15735
15578
15547
15327
15062
14688
14320
14016
13803
13583
13283
13163
12977
12902
12768
12823
12753
12880
12898
13056
13118
13316
13255
13256
13239
13271
13204
13257
13323
13431
13426
13407
13335
13160
12999
12797
12721
12549
12536
12551
12653
12818
13721
15206
16731
16872
14344
10501
11371
12211
13005
13141
13383
13369
13379
13296
13263
13315
13467
13552
13739
14003
14124
14326
14396
14556
14491
14761
14932
15130
15147
15265
15156
15167
14936
14621
14142
13705
13328
12886
12503
12134
12095
12174
12204
12073
12251
12303
12579
12694
12930
12902
12997
12922
12958
13132
13218
13349
13456
13495
13530
13667
13505
13449
13320
13381
13139
13173
13093
13201
13120
13319
13639
15028
16760
16954
15698
11077
11346
12054
12653
12840
13060
13101
13267
13275
13423
13413
13551
13374
13397
13343
13492
13456
13693
13831
14063
14266
14616
15022
15198
15350
15375
15347
15063
14803
14331
14031
13493
13295
12988
12772
12506
12453
12330
12355
12333
12384
12386
12429
12540
12511
12504
12423
12520
12466
12581
12594
12735
12687
12831
12780
12861
12728
12750
12704
12707
12690
12596
12574
12552
12714
12707
13649
15457
16945
17190
13590
11478
11928
12299
12588
12666
12861
12810
12872
12873
12961
12970
13086
13110
13155
13207
13328
13420
13503
13704
13970
14309
14506
14823
14917
15153
15084
15210
14954
14691
14204
13890
13470
13150
12901
12755
12675
12555
12614
12574
12717
12654
12759
12598
12670
12472
12524
12407
12424
12384
12413
12326
12338
12401
12429
12472
12518
12577
12429
12479
12349
12371
12171
12288
12155
12259
12248
12422
12542
12791
13510
14779
16579
17167
14318
11235
11738
12269
12789
12754
13006
12864
12976
12937
13152
13113
13443
13349
13554
13508
13662
13574
13830
13934
14080
14345
14655
14881
14849
14924
14777
14745
14193
13760
12977
12751
12432
12618
12771
13094
13148
13252
13233
13227
13266
13120
13125
12896
13031
12756
12855
12668
12841
12630
12820
12808
12951
12901
13183
13405
13679
13893
13917
14063
13972
14099
13871
13938
13684
13762
13518
13713
13448
14119
15323
17631
18530
15538
12396
12675
13236
13453
13653
13664
13742
13512
13688
13805
13852
13793
13911
13786
13895
13687
13905
13807
14100
13984
14110
14252
14534
14849
15580
15512
15330
15074
14597
14164
13595
13290
12805
12719
12299
12447
12193
12410
12257
12508
12376
12542
12375
12388
12279
12311
12368
12357
12470
12387
12621
12530
12745
12587
12917
12687
12879
12668
12906
12682
12901
12684
12759
12689
12714
12860
12906
13015
13372
14985
17047
18794
15946
12226
12227
13121
13213
13424
13266
13404
13317
13552
13405
13635
13444
13618
13443
13501
13457
13522
13678
13772
14127
14225
14597
14674
15002
14885
15178
14975
15093
14567
14341
13654
13405
12883
12755
12615
12644
12744
12708
12783
12601
12748
12579
12744
12500
12649
12400
12538
12262
12440
12368
12560
12540
12728
12764
12891
12904
13000
13076
12977
13023
12773
12896
12698
13020
12878
13242
13015
14229
16112
17600
17950
13559
11285
12056
12729
12984
13226
13156
13416
13265
13430
13298
13532
13466
13613
13469
13847
13827
14210
14185
14608
14643
15079
15141
15484
15439
15530
15447
15274
15020
14607
14280
13690
13425
12942
12917
12554
12616
12314
12424
12170
12332
12199
12417
12422
12647
12749
12900
13000
12894
13022
12841
12862
12689
12831
12651
12828
12785
13042
12926
13166
12993
13030
12799
12843
12767
12865
12990
12997
13105
12992
14130
15713
16899
16642
12141
10500
11575
12098
12702
12581
12788
12789
12996
13071
13466
13402
13685
13699
13920
13961
14141
14317
14538
14762
14870
15301
15379
15667
15550
15767
15560
15471
14998
14812
14237
14022
13532
13348
13128
13165
13071
12919
12899
12846
12750
12480
12505
12349
12468
12279
12533
12415
12468
12223
12267
12206
12337
12334
12543
12609
12623
12825
12817
12927
12786
12830
12519
12458
12167
12153
11965
12115
11985
12141
12268
12965
13548
14942
15536
13306
9939
10456
11642
12300
12798
12807
13137
13115
13469
13353
13519
13410
13691
13569
13688
13469
13606
13642
13963
14208
14686
14980
15148
15370
15241
15452
15114
15309
14823
14701
13917
13659
13207
13073
12841
12607
12547
12382
12587
12396
12761
12527
12824
12450
12791
12416
12754
12451
12734
12575
12758
12620
12652
12635
12633
12740
12630
13034
12915
13323
13111
13530
13183
13497
13053
13310
12984
13249
13029
13216
13174
13731
14307
15811
16644
14271
11137
11362
12625
12844
13217
13268
13581
13270
13629
13331
13696
13341
13790
13468
13885
13664
14108
13914
14268
14341
14644
14882
15087
15382
15274
15517
15274
15504
14870
14843
14044
14017
13280
13362
12841
13014
12654
12783
12670
12749
12799
12741
12872
12714
12973
12694
12969
12573
12953
12533
12893
12531
12845
12546
12834
12594
12760
12691
12811
12960
13083
13344
13154
13411
13112
13457
13002
13322
12865
13198
12801
13203
12884
13305
13502
14132
15533
16598
13292
11103
11677
12781
13113
13328
13440
13430
13611
13405
13669
13382
13801
13458
13876
13528
14067
13780
14240
14044
14597
14540
14975
15134
15376
15521
15510
15643
15331
15481
14854
14763
13892
13973
13187
13257
12660
12955
12561
12799
12509
12696
12637
12685
12734
12671
12807
12545
12835
12457
12829
12421
12872
12474
12864
12438
12795
12563
12974
12866
13188
13165
13174
13292
13192
13357
13069
13312
12942
13386
13023
13482
13381
13948
14530
16184
17070
17477
12721
11529
12058
13247
13288
13678
13610
13807
13731
13775
13820
13716
13878
13680
14044
13729
14150
13791
14347
14108
14761
14623
15237
15144
15493
15375
15568
15431
15323
15166
14640
14384
13637
13543
12920
13088
12516
12848
12375
12738
12299
12679
12446
12624
12419
12620
12536
12506
12680
12601
12741
12414
12782
12407
12794
12454
12980
12644
13123
12734
13057
12743
12908
12658
12742
12749
12731
12723
13227
13878
15435
16791
16986
13840
10205
11338
11997
13009
12851
13301
13002
13456
13070
13504
13209
13525
13292
13592
13477
13751
13786
13863
14169
14284
14785
14772
15328
15180
15640
15196
15554
14964
15070
14282
14183
13436
13266
12814
12714
12518
12434
12551
12317
12575
12318
12679
12420
12873
12450
12951
12609
13012
12658
12893
12573
12791
12624
12802
12831
12850
13056
12853
13085
12667
12996
12463
12831
12421
12898
12617
13239
13213
14739
15927
17062
16376
12161
10563
11808
12288
13021
12995
13199
13262
13252
13381
13178
13411
13088
13571
13228
13685
13342
13974
13761
14284
14175
14733
14763
15208
15196
15393
15374
15249
15197
14717
14558
13816
13826
13026
13168
12599
12934
12444
12785
12400
12753
12509
12748
12693
12861
12897
12815
13028
12861
13133
12767
13135
12686
13073
12644
13051
12692
13176
12847
13160
12968
13152
12934
12928
12904
12764
12994
12781
13095
13355
14083
15105
16872
17392
14855
11089
12084
12479
13413
13101
13608
13257
13599
13246
13575
13411
13682
13594
13675
13747
13765
14020
13865
14326
14159
14770
14629
15268
14925
15463
15030
15353
14884
14943
14361
14122
13553
13250
12986
12676
12720
12366
12585
12141
12504
12124
12601
12203
12663
12300
12748
12457
12800
12643
12832
12673
12672
12766
12662
12929
12792
13207
12916
13381
12922
13265
12786
13152
12718
13004
12687
13173
12995
13583
13887
15517
16882
17571
13373
11642
12266
13007
13251
13155
13367
13123
13429
13087
13539
13146
13604
13212
13777
13491
13943
13707
14149
14083
14467
14631
14922
15164
15161
15434
15200
15440
14851
14884
14009
13974
13127
13264
12604
12720
12313
12529
12321
12495
12445
12430
12466
12313
12510
12278
12628
12225
12696
12323
12773
12355
12730
12340
12766
12499
12858
12841
13022
13043
13083
13210
12977
13192
12767
13029
12803
12946
12882
13249
13179
14159
15225
17285
16747
12850
11226
12375
12614
13158
12977
13338
13191
13323
13253
13236
13379
13334
13614
13405
13822
13462
13970
13633
14207
13969
14583
14449
15035
14977
15291
15107
15226
15014
14647
14298
13691
13568
12936
13078
12598
12906
12438
12884
12496
12930
12570
12929
12677
12854
12693
12753
12693
12658
12843
12668
12944
12605
12929
12493
12952
12490
12956
12642
13099
12777
13186
12930
13126
12799
13216
12796
13179
12952
13217
13153
13410
14030
14865
16596
17200
14936
11563
12384
12773
13595
13183
13656
13257
13644
13271
13597
13312
13552
13415
13488
13463
13421
13542
13418
13768
13631
14215
14069
14721
14480
15083
14724
15069
14576
14654
14025
13802
13303
13078
12818
12535
12575
12314
12569
12263
12736
12405
12925
12518
12964
12551
12915
12556
12819
12617
12831
12781
12850
12909
12867
13046
12843
13120
12809
13157
12759
13004
12782
13082
12842
13331
13027
13469
13119
13615
13246
13605
13214
13507
13246
13401
13237
13312
13371
13484
14176
14604
16467
17012
15958
11742
12131
12511
13479
13187
13575
13299
13601
13398
13597
13569
13692
13717
13629
13783
13629
13980
13772
14268
13989
14662
14457
15132
14965
15432
15195
15443
15114
15115
14713
14320
13906
13403
13291
12753
12865
12402
12686
12282
12688
12260
12716
12342
12709
12438
12700
12486
12674
12562
12818
12632
12882
12662
12827
12728
12713
12708
12545
12695
12401
12740
12444
12845
12431
12852
12484
12849
12442
12793
12562
12875
12704
12938
13045
13265
14076
15092
17040
17053
13670
11222
12405
12885
13658
13326
13790
13536
13874
13511
13804
13622
13799
13789
13798
13924
13847
14163
14044
14473
14269
14852
14700
15313
15063
15439
15290
15313
14824
14651
14041
13667
13073
12882
12493
12369
12268
12354
12430
12471
12649
12628
12877
12748
12745
12665
12748
12646
12762
12639
12753
12561
12710
12577
12814
12667
12848
12703
12730
12611
12711
12730
12875
12986
13043
13096
13015
13109
12972
13069
12957
13119
13049
13282
13197
13378
13472
14292
15091
16569
16787
13861
11044
11820
12818
13355
13459
13455
13598
13488
13662
13680
13944
13892
14109
14078
14198
14217
14420
14490
14629
14748
15015
15282
15488
15762
15730
15786
15616
15557
15154
14942
14418
14065
13480
13205
12833
12701
12490
12527
12381
12432
12331
12384
12293
12300
12309
12342
12372
12262
12334
12287
12472
12426
12599
12618
12716
12563
12715
12634
12650
12593
12728
12800
12999
13205
13344
13465
13503
13652
13481
13455
13203
13337
13210
13330
13306
13591
13675
14612
15687
16969
16367
11658
10622
11695
12805
13137
13279
13218
13371
13222
13388
13356
13493
13381
13655
13723
13949
14019
14172
14302
14393
14548
14705
14984
15213
15424
15357
15420
15196
15147
14824
14553
14083
13846
13462
13406
13137
13193
13013
13046
12861
12908
12787
12818
12757
12813
12909
12910
12926
12769
12823
12718
12858
12677
12771
12545
12673
12532
12615
12479
12455
12315
12341
12418
12571
12711
12730
12813
12806
12893
12667
12693
12422
12500
12393
12585
12531
12772
12809
13616
14463
16097
16502
13470
10620
11391
12453
12975
13188
13157
13310
13174
13302
13183
13387
13315
13510
13428
13592
13678
13867
14503
14726
15107
15235
15508
15590
15565
15487
15398
15277
14970
14621
14143
13802
13249
13110
12770
12748
12532
12605
12517
12653
12612
12630
12624
12637
12625
12604
12642
12573
12670
12568
12702
12599
12702
12554
12695
12480
12595
12553
12688
12689
12960
13071
13207
13327
13293
13288
13224
13227
13092
13279
13179
13367
13272
13455
13931
15240
16742
17281
14460
10439
11209
12174
12899
13157
13263
13284
13452
13388
13620
13622
13825
13789
13823
13778
13961
13916
14139
14184
14569
14821
15240
15396
15662
15762
15750
15564
15352
15021
14599
14202
13633
13345
12976
12948
12722
12799
12654
12844
12718
12864
12783
12872
12869
12917
12947
13002
13112
13126
13211
13114
13219
12987
13059
12898
13059
12871
13078
12999
13161
13167
13311
13210
13205
13201
13065
13064
12963
13094
13009
13268
13247
13978
14885
16627
16828
15273
10528
11055
11957
12802
13024
13124
13227
13214
13266
13395
13396
13485
13611
13592
13688
13255
13756
13560
14153
14050
14620
14523
15001
15056
15250
15270
15233
15171
14831
14662
13961
13848
13134
13228
12600
12852
12319
12687
12389
12770
12547
12854
12721
12926
12918
12913
12985
12802
13000
12673
12995
12661
13047
12563
12954
12592
12941
12696
13145
12954
13291
13116
13139
13040
12950
13005
12758
12934
12667
12974
12653
13208
13491
14946
16119
17012
14133
10711
11170
12224
12659
13111
12936
13302
12995
13232
13089
13213
13191
13180
13372
13297
13590
13341
13804
13633
14209
13998
14680
14534
15105
14865
15169
14842
14887
14489
14147
13710
13362
13176
12747
12805
12346
12603
12215
12633
12281
12721
12376
12823
12532
12856
12660
12855
12807
12936
12981
12916
12975
12825
13138
12832
13161
12803
13151
12766
13286
13086
13517
13358
13614
13392
13618
13532
13515
13520
13433
13615
13439
13742
13589
14712
15481
17434
17335
13166
11715
12910
13248
13886
13570
14063
13732
14094
13758
14106
13951
14090
13940
14003
14039
14020
14252
14113
14540
14412
14961
14803
15416
15133
15491
15106
15388
14911
14904
14230
13986
13475
13152
12881
12547
12549
12191
12380
12000
12314
11912
12374
12056
12476
12130
12557
12293
12616
12429
12680
12609
12632
12647
12606
12831
12586
12838
12503
12881
12447
12825
12481
12953
12755
13194
12914
13143
12971
13137
13020
12976
13009
13066
12944
13153
13075
13205
13383
14114
15624
16737
16940
12593
11291
11709
12914
12954
13489
13231
13615
13350
13594
13374
13523
13463
13498
13597
13516
13829
13694
14170
13979
14554
14399
15051
14914
15505
15216
15550
15235
15335
14920
14657
14113
13562
13275
12871
12951
12524
12728
12332
12694
12282
12711
12277
12622
12254
12568
12292
12493
12334
12493
12498
12417
12534
12365
12625
12369
12719
12371
12831
12380
12641
12235
12683
12524
13048
12757
13173
12748
13177
12866
13077
12700
12794
12525
12693
12676
12689
13017
13188
14062
15188
16839
15784
11936
10878
12137
12475
13050
12853
13270
13272
13446
13382
13690
13691
13992
13977
14153
14209
14367
14623
14760
15026
15152
15522
15671
16048
15971
16183
16026
16141
15735
15566
14971
14635
13970
13596
13422
13274
13141
12901
12777
12598
12595
12635
12898
12750
12901
12719
12888
12848
13040
12976
13276
13379
13503
13569
13765
13589
13627
13452
13445
13283
13305
13198
13145
13225
13204
13466
13454
13564
13402
13486
13302
13453
13238
13266
13091
13129
12956
12984
12910
13166
13810
14560
15902
16057
13886
10436
11269
12095
12783
12810
12916
12831
13006
12860
12958
12927
13000
13048
13138
13181
13217
13351
13373
13555
13616
13922
14104
14607
14721
14977
14997
15053
14799
14707
14340
13978
13548
13185
12866
12627
12433
12226
12242
12196
12249
12214
14211
14255
14244
13928
13697
13509
13312
13059
12988
12830
12829
12749
12532
12624
12447
12471
12471
12645
12531
12849
12726
12699
12528
12541
12450
12504
12562
12594
12660
12706
12976
14025
15473
15943
15663
11626
10293
11216
12320
12719
12913
12960
13085
13143
13269
13272
13272
13355
13401
13561
13617
13774
13736
14012
14075
14414
14667
15004
15145
15324
15344
15339
15291
15248
15003
14567
14037
13478
13216
12900
12803
12671
12662
12586
12681
12618
12702
12570
12654
12549
12696
12723
12916
12860
13025
13076
13081
12979
12966
12906
12892
12906
12819
12898
12794
12838
12651
12760
12594
12807
12750
12851
12841
12946
13257
13421
13304
13186
13111
13160
13197
13205
13253
13078
13192
13164
13294
13400
13751
14307
15410
16396
16328
14197
11105
11757
12635
13373
13332
13379
13536
13693
13635
13807
13863
14046
13939
14105
13984
14084
14142
14192
14252
14451
14739
15125
15479
15884
15959
16129
15953
15912
15702
15161
14885
14306
13821
13229
13168
12795
12761
12520
12662
12416
12524
12420
12462
12364
12421
12450
12489
12563
12511
12671
12612
12615
12527
12661
12546
12772
12667
12817
12727
12823
12682
12770
12656
12681
12705
12880
13110
13117
13241
13147
13176
13052
12987
12752
12836
12774
12901
12878
13146
13233
13572
14367
15657
16454
16062
12240
11414
12320
13020
13370
13365
13540
13498
13642
13571
13656
13658
13889
13829
14020
13962
14119
14039
14308
14437
14669
14840
15203
15486
15639
15761
15614
15614
15346
15117
14543
14201
13645
13307
12814
12749
12573
12583
12608
12555
12465
12465
12532
12558
12657
12631
12733
12753
12901
12771
12967
12943
12947
12771
12902
12730
12774
12726
12802
12730
12760
12745
12687
12681
12588
12731
12865
13017
12954
13058
12946
13173
12968
13053
12864
12907
12898
12933
12892
13081
13166
13772
14551
15763
16246
13163
11133
11910
12719
13030
13220
13288
13447
13339
13507
13452
13682
13656
13851
13810
13937
13955
14130
14118
14279
14358
14651
14908
15100
15336
15416
15589
15398
15404
15161
14922
14372
14024
13501
13260
12904
12811
12771
12725
12648
12532
12466
12426
12503
12559
12652
12569
12712
12638
12697
12612
12777
12727
12855
12807
12879
12884
12868
12901
12867
12854
12860
12780
12601
12656
12629
12933
12824
13037
12851
12984
12906
13021
12893
12958
12925
13077
12883
12973
13039
13192
13882
14842
16220
16394
13729
11134
11749
12409
12925
12994
13199
13099
13340
13296
13448
13376
13546
13480
13613
13687
13884
14001
14084
14205
14316
14599
14772
15256
15330
15557
15428
15520
15221
15072
14666
14286
13794
13423
13110
12949
12798
12682
12630
12467
12558
12394
12387
12265
12427
12315
12419
12276
12359
12317
12526
12576
12687
12705
12722
12714
12656
12683
12591
12576
12518
12581
12556
12692
12750
12894
12867
12939
12796
12885
12690
12778
12588
12740
12661
12839
12884
13108
13787
14609
15906
16230
13947
11012
11688
12481
13113
13157
13329
13265
13509
13416
13619
13498
13688
13689
13829
13817
13715
13859
13902
14076
14147
14475
14720
15168
15296
15603
15572
15788
15635
15608
15243
14901
14360
14008
13616
13364
13202
12994
13011
12928
12956
12756
12886
12714
12770
12691
12802
12680
12785
12704
12855
12916
13111
12947
13114
12940
13062
12988
13066
12940
12852
12850
12885
12995
13021
13222
13220
13264
13177
13182
13004
13074
12842
12944
12805
12908
12861
13046
13534
14224
15499
16110
15066
11270
11520
12376
13120
13190
13398
13269
13476
13350
13587
13562
13727
13683
13790
13818
13879
13978
13998
14213
14296
14618
14736
15122
15271
15581
15563
15697
15584
15529
15003
14638
14132
13707
13311
13064
12908
12682
12736
12612
12684
12535
12654
12705
12794
12731
12836
12700
12833
12758
12915
12757
12875
12755
12793
12627
12716
12607
12652
12699
12630
12558
12484
12653
12672
12912
12900
13003
12915
13105
12922
12998
12892
12965
12874
12971
12883
12991
13000
13166
13717
14376
15713
16068
14595
11044
11449
12249
13028
12997
13239
13209
13391
13315
13336
13348
13497
13517
13530
13662
13675
13729
13727
13930
13982
14324
14400
14813
14943
15267
15124
15222
15058
14994
14659
14308
13869
13633
13224
13114
12856
12899
12891
12801
12765
12743
12822
12728
12811
12758
12924
12777
12928
12833
13040
12928
13063
12919
13057
12991
13062
13026
13015
12949
12849
13074
13065
13270
13276
13323
13202
13400
13310
13413
13197
13189
13102
13180
13034
13113
13112
13252
13948
14609
16059
16202
13755
10690
11549
12294
12955
12900
13107
13040
13162
13075
13171
13254
13343
13329
13345
13468
13457
13596
13633
13922
14100
14471
14711
15074
15262
15473
15347
15373
15070
14903
14369
14139
13680
13433
12909
12787
12552
12505
12368
12380
12443
12401
12487
12412
12563
12470
12624
12462
12738
12673
12829
12750
12947
12838
12919
12925
12943
12965
13094
13253
13329
13475
13419
13416
13177
13288
13034
13070
12958
13106
13050
13270
13338
13980
15300
16952
16949
15277
10986
11479
12464
13098
13485
13455
13777
13720
13946
13783
13835
13777
13936
13848
13962
13973
14112
14111
14457
14617
14891
15057
15403
15528
15652
15711
15597
15498
15109
14703
14197
13857
13424
13166
12745
12663
12448
12481
12328
12330
12365
12500
12521
12508
12579
12573
12520
12490
12624
12597
12758
12678
12806
12671
12724
12666
12839
12783
12866
12848
12937
12979
13036
13019
12861
12770
12628
12725
12640
12839
12834
13077
13130
13493
14459
16212
16541
15912
11283
10858
11901
12654
13073
13120
13239
13219
13373
13243
13409
13322
13454
13473
13656
13596
13795
13794
14118
14186
14536
14750
15113
15262
15462
15396
15369
15276
15066
14653
14198
13806
13374
13225
12914
12932
12721
12777
12658
12734
12678
12782
12811
12897
12842
12845
12865
12859
12930
12867
12853
12793
12860
12733
12875
12757
12755
12675
12741
12680
12881
12871
13005
12968
13039
13046
13026
12932
12847
12911
12907
13066
13028
13240
13329
14186
15051
16583
16797
13947
11121
11855
12567
12957
13101
13160
13261
13358
13359
13507
13576
13610
13651
13689
13870
13806
13879
13819
14075
14185
14538
14647
15050
15039
15229
15161
15105
14801
14484
14063
13643
13295
12910
12736
12496
12441
12224
12340
12290
12414
12301
12477
12410
12513
12509
12654
12648
12776
12740
12753
12895
12933
12953
12840
12847
12691
12764
12643
12779
12826
12988
12988
13146
13099
13120
13026
13100
13038
12992
13075
13019
13200
13256
13551
14057
14864
16341
16961
14452
11812
12626
13518
13631
13912
13865
14065
14111
14118
14088
14195
14084
14092
14020
13986
14005
13969
14068
14227
14584
14588
14999
15194
15314
15300
15482
15274
15274
14974
14663
14151
13793
13410
13170
12922
12784
12663
12385
12500
12435
12536
12365
12476
12358
12339
12246
12175
12180
12370
12389
12477
12490
12519
12592
12335
12597
12338
12648
12255
12603
12572
12811
12732
12843
12589
12461
12527
12489
12681
12764
12827
12886
13022
13146
13308
13616
14227
15154
16231
15929
12402
11160
12183
12874
13316
13267
13499
13390
13543
13469
13658
13729
13877
13864
13916
13967
14026
14192
14288
14530
14562
14950
15028
15470
15586
15779
15669
15756
15404
15256
14646
14240
13738
13381
13157
12864
12802
12696
12782
12628
12774
12644
12831
12576
12700
12499
12611
12473
12532
12434
12619
12607
12610
12722
12698
12766
12758
12893
12893
13246
13214
13455
13365
13424
13190
13253
13063
13191
13143
13322
13025
13336
13641
14617
15876
16720
16065
11761
11492
12339
13031
13246
13366
13225
13394
13263
13422
13373
13538
13173
13340
13477
13586
13488
13710
13900
14103
14389
14655
14884
15041
15297
15231
15391
15167
15126
14633
14423
13891
13658
13114
12994
12693
12612
12511
12454
12371
12284
12294
12251
12394
12249
12397
12260
12362
12271
12331
12047
12136
11982
12166
12143
12278
12329
12416
12486
12488
12581
12450
12480
12483
12463
12358
12568
12630
12889
12914
13329
14315
16248
16613
16470
11802
10591
11507
12623
13107
13439
13511
13381
13560
13463
13829
13536
14000
13455
13929
13716
14255
14037
14348
14454
14930
15167
15370
15727
15686
15932
15499
15691
15153
15193
14294
14301
13612
13761
13276
13478
13210
13383
13189
13192
13202
13247
13508
13352
13586
13247
13629
13163
13600
13161
13524
13098
13376
12894
13054
12751
12926
12917
13133
13274
13245
13187
13407
13199
13193
13130
13034
13082
12913
13138
12845
13300
13195
14518
15595
16779
15697
11594
10948
12193
12769
13230
13169
13394
13466
13498
13704
13542
13848
13596
13956
13589
14019
13587
14052
13841
14396
14227
14813
14847
15287
15256
15374
15389
15254
15139
14493
14279
13474
13446
12736
12910
12365
12729
12228
12597
12222
12583
12350
12544
12463
12513
12603
12605
12770
12596
12971
12673
13089
12641
13022
12563
13039
12677
13271
12938
13408
12915
13284
12778
13181
12663
12958
12673
13007
12908
13114
13348
13738
14328
15534
17156
15959
12346
11693
12953
12979
13638
13168
13657
13219
13601
13318
13634
13462
13607
13645
13594
13752
13564
13973
13726
14334
14116
14904
14657
15396
15018
15478
15012
15274
14749
14593
13918
13525
13074
12646
12610
12311
12583
12182
12550
12135
12759
12456
13027
12662
13199
12902
13200
12921
13071
12848
12803
12792
12629
12711
12644
12473
12616
12668
12782
13068
12874
13125
12795
13216
12768
13230
12694
13082
12602
13035
12664
13005
12797
13086
13478
14585
16511
16691
13128
10861
12015
12526
13286
12998
13431
12959
13435
13041
13481
13226
13626
13427
13696
13714
13897
13982
13997
14266
14184
14678
14593
15254
15054
15573
15161
15597
15062
15136
14331
14135
13434
13213
12804
12644
12624
12489
12680
12483
12786
12440
12868
12466
12862
12427
12819
12469
12746
12390
12842
12455
12886
12484
12850
12496
12796
12545
12809
12891
13089
13168
13177
13378
13110
13301
12818
13128
12713
13138
12721
13171
12847
13265
13812
15488
16741
17229
13194
10717
11739
12545
13175
13055
13452
13195
13576
13121
13466
13040
13454
13094
13509
13272
13672
13612
14027
14084
14320
14635
14814
15313
15255
15598
15212
15462
14881
15006
14132
14046
13279
13275
12630
12694
12377
12491
12343
12361
12491
12440
12627
12330
12584
12642
12697
12650
12756
12543
12877
12424
12869
12616
13126
12810
13304
12977
13356
12994
13217
12792
12849
12681
12649
12788
12749
13134
13539
15050
16264
16788
14303
10605
10899
12220
12557
13130
13080
13601
13388
13515
13478
13574
13707
13727
13952
13745
14084
13859
14313
14013
14665
14602
15236
15169
15785
15457
15763
15494
15434
15010
14521
14085
13513
13327
12595
12720
12295
12629
12136
12600
12352
12740
12381
12743
12596
13099
12870
13273
12636
12871
12452
12764
12492
12774
12807
12987
13231
13221
13323
12897
13179
12806
13238
12875
13468
12871
13413
13126
14387
14898
16114
15951
12773
10882
11696
12620
12775
13037
12756
13175
12693
13214
12846
13615
13308
13963
13616
14304
13869
14338
14151
14469
14579
14755
15235
15285
15608
15202
15481
14853
15156
14309
14379
13446
13573
12712
12899
12207
12585
12339
12439
12228
12192
12317
12160
12573
11999
12522
12394
12426
12408
12740
12224
12577
12277
12838
12470
13212
12685
13395
12932
13384
12954
13273
12958
13015
12973
12952
13044
12911
13455
13134
14088
14205
16230
16426
15403
11596
12438
12689
13707
13356
13833
13703
13940
13892
13958
14031
13915
14245
13966
14501
14148
14745
14370
15011
14711
15461
15371
16066
15753
16285
16104
16200
15879
15672
15507
14652
14511
13808
13958
13174
13620
12991
13375
12802
13290
12881
13285
12854
13285
13093
13385
12938
13277
12847
13131
12901
13163
13079
13235
13252
13087
13495
13123
13518
12947
13430
12746
13120
12743
13330
12854
13445
13585
14679
15766
16125
14897
11179
11461
12244
13186
12941
13422
12826
13366
12806
13479
12890
13444
13077
13380
13209
13467
13292
13579
13715
13637
13882
13936
14471
14319
14783
14266
14739
13905
14257
13390
13557
12744
12668
12164
12274
11989
12133
11926
11811
12029
11721
12109
11812
12386
11890
12417
11981
12363
12024
12572
12164
12774
12380
12941
12367
13111
12526
12909
12534
12791
12518
12707
12611
12538
12803
12547
13129
13545
14919
15558
15923
12367
10728
11137
12673
12570
13099
12831
13232
12932
13072
13150
13135
13386
13079
13476
13093
13686
13228
13923
13432
14088
13849
14643
14369
14879
14585
14794
14556
14466
14210
13724
13582
12922
12910
12370
12812
12216
12764
12207
12706
12098
12673
12238
12678
12376
12593
12510
12446
12302
12881
12490
12816
12591
12709
12698
12808
13155
12851
13264
12795
13104
12594
13121
12547
13109
12450
13052
12685
13318
13095
14296
15356
16261
15982
12010
11421
12199
13310
13150
13624
13144
13753
13321
13901
13432
13907
13518
13924
13766
14150
13995
14196
14327
14425
14856
14919
15331
15110
15683
15285
15831
15126
15487
14729
14781
13900
13993
13376
13308
12923
12916
12866
12712
12874
12558
12918
12568
12984
12412
13021
12456
12932
12650
13227
12669
13212
12677
13248
12620
13125
12815
13323
13001
13137
12862
12993
12997
12915
12956
12680
13114
12746
13183
12743
13396
13154
14501
15264
16757
15809
12036
10985
12494
13177
13518
13515
13531
13723
13441
13791
13431
13788
13339
13979
13501
14071
13604
14227
13981
14505
14424
14900
15194
15407
15510
15425
15617
15297
15577
14718
14750
13862
14000
13217
13499
12780
13148
12648
12991
12608
12815
12709
12766
12733
12606
12320
12632
12419
12583
12507
12426
12718
12469
12709
12320
12605
11963
12970
12895
13455
12959
13488
12956
13174
12846
13117
12821
12845
12868
12752
12976
12760
13235
13404
14533
15390
16425
14006
11041
11248
12751
13079
13608
13324
13587
13531
13629
13750
13660
13862
13644
14129
13801
14351
13928
14594
14126
14851
14501
15240
15166
15626
15356
15523
15343
15265
15118
14619
14381
13706
13723
12990
13230
12683
13202
12725
13221
12690
13263
12708
13265
12749
13234
12771
13198
12756
13243
12983
13183
13011
13037
13040
12831
12941
12560
13002
12556
13096
12692
13191
12716
13295
12890
13333
12939
13105
12693
12963
12894
12980
13101
13075
13406
13848
15121
15914
16412
12813
11221
11515
12976
12968
13507
13212
13559
13334
13606
13529
13616
13779
13696
14108
13959
14552
14137
14705
14331
15088
14786
15492
15231
15828
15476
15814
15534
15532
15227
14774
14397
13933
13472
13514
13163
12983
12926
12779
12970
12578
12933
12495
12881
12383
12871
12332
12880
12451
12992
12596
12967
12652
12746
12526
12572
12634
12490
12759
