13753
14339
14313
14463
14320
14464
14280
14538
14405
14720
14738
15121
15177
15525
15651
15830
15834
15826
15752
15394
15034
14327
13908
13236
13042
12607
12634
12276
12414
12160
12330
12157
12271
12199
12285
12281
12300
12376
12343
12365
12234
12350
12241
12453
12274
12539
12433
12644
12512
12691
12519
12629
12568
12624
12577
12545
12633
12641
12769
12631
12749
12502
12755
12685
12991
12900
13143
13038
13246
13157
13212
13070
13070
12945
13071
13024
13189
13095
13250
13348
13730
14356
16362
17681
15804
11998
11780
12663
12931
13253
13162
13423
13238
13424
13311
13437
13330
13370
13329
13345
13387
13339
13552
13599
13947
13992
14518
14594
15103
15176
15566
15525
15727
15529
15458
14995
14557
14069
13632
13346
12917
12794
12568
12637
12422
12592
12357
12556
12367
12553
12360
12551
12414
12506
12425
12481
12478
12486
12577
12529
12660
12567
12737
12548
12721
12595
12779
12657
12826
12628
12787
12597
12812
12621
12840
12629
12737
12563
12642
12548
12626
12702
12932
12984
13007
13136
13093
13255
13034
13146
12908
13142
13004
13259
13133
13347
13270
13906
14900
16725
17291
15539
11126
11357
12326
12859
13235
13179
13492
13349
13615
13468
13685
13557
13739
13729
13919
13883
13985
14085
14158
14386
14573
15027
15200
15655
15719
16099
16035
16138
15849
15861
15378
15007
14326
13881
13372
13035
12765
12473
12239
12316
12245
12283
12230
12164
12256
12239
12393
12254
12422
12274
12474
12351
12558
12374
12624
12465
12620
12463
12565
12477
12558
12526
12493
12578
12521
12609
12463
12692
12589
12897
12861
13125
12980
13193
13065
13140
12937
12929
12785
12793
12817
12789
12840
12792
13072
13035
14300
16058
16918
16441
12169
10392
11580
12366
13087
13104
13349
13441
13540
13481
13512
13645
13650
13760
13670
13826
13738
14021
13875
14184
14189
17595
17735
17688
17388
17027
16606
15893
15312
14485
14034
13407
13154
12668
12538
12111
12097
11832
11874
11660
11737
11653
11653
11630
11644
11702
11713
11918
11852
12033
11893
12034
11887
12059
11831
11999
11843
12019
11918
11995
11882
11814
11816
11911
12062
12173
12429
12347
12560
12441
12594
12374
12480
12274
12494
12405
12601
12535
12731
12774
12873
13353
14606
16534
17013
15306
10716
11222
11893
12735
12828
13139
13101
13281
13220
13442
13272
13457
13270
13488
13454
13674
13638
13872
13946
14182
14465
14748
15161
15394
15774
15780
16011
15829
15918
15397
15041
14307
13921
13339
13152
12830
12743
12578
12518
12457
12347
12374
12267
12422
12297
12495
12350
12554
12410
12585
12444
12627
12483
12637
12524
12573
12545
12577
12576
12524
12600
12519
12615
12479
12671
12535
12703
12506
12613
12461
12625
12651
12895
12870
12976
12965
12993
13016
12976
13023
12825
12906
13013
13056
13048
13242
13305
13860
14573
17153
18303
16544
12546
12650
13023
13542
13532
13723
13693
13743
13719
13797
13813
13774
13844
13639
13709
13556
13814
13699
13965
13908
14304
14353
14737
14875
15256
15320
15437
15427
15359
15120
14657
14203
13522
13178
12677
12600
12276
12305
12030
12203
12061
12257
12160
12331
12272
12355
12382
12425
12497
12431
12534
12430
12612
12483
12649
12524
12765
12606
12789
12650
12793
12653
12788
12730
12978
12847
12947
12663
12745
12706
12891
12982
13035
13119
13080
13234
13149
13246
13042
13104
12904
13113
12895
13073
12950
13240
13352
13945
15082
17410
17617
13934
11702
12114
12858
12948
13183
13046
13200
12979
13214
13082
13272
13082
13253
13155
13327
13348
13495
13621
13766
14011
14174
14592
14746
15194
15295
15617
15494
15660
15389
15322
14725
14418
13825
13485
13116
12921
12739
12605
12587
12447
12523
12358
12496
12379
12564
12561
12665
12566
12722
12557
12687
12429
12632
12431
12611
12470
12631
12545
12679
12626
12674
12687
12708
12793
12767
12918
12749
12867
12732
12995
12990
13301
13185
13368
13242
13398
13306
13346
13202
13178
13170
13146
13174
13051
13218
13177
13813
14398
16580
17374
15542
11462
11759
12463
13147
13224
13366
13339
13422
13420
13425
13536
13454
13555
13407
13560
13430
13687
13574
13923
13914
14336
14539
15017
15231
15547
15667
15857
15721
15759
15301
14923
14311
13867
13397
12964
12747
12482
12488
12281
12392
12200
12434
12269
12486
12268
12503
12385
12515
12410
12504
12467
12519
12566
12518
12580
12479
12657
12503
12660
12504
12697
12537
12766
12579
12757
12605
12683
12600
12696
12784
12943
13017
13034
13145
13052
13166
12985
13060
12841
13062
12943
13171
13057
13344
13344
13817
14894
16978
17648
16249
11394
11415
12478
13173
13554
13444
13646
13515
13711
13584
13807
13638
13767
13606
13762
13609
13853
13763
14076
14072
14454
14665
15063
15307
15607
15748
15726
15747
15541
15427
14899
14503
13842
13534
13027
12928
12571
12587
12255
12307
12112
12187
12077
12067
12115
12165
12295
12276
12441
12465
12709
12571
12824
12657
12817
12604
12810
12695
12807
12665
12676
12543
12582
12608
12747
12919
12846
12960
12764
12930
12777
12835
12566
12794
12675
12856
12644
12747
12705
12949
12941
14114
16780
16836
15081
10377
10630
11738
12521
12899
13023
13108
13351
13200
13370
13261
13478
13327
13543
13358
13624
13592
13903
13985
14307
14477
14797
15126
15512
15849
15970
16144
15990
16066
15740
15547
14868
14544
13856
13576
13025
12874
12559
12518
12424
12450
12409
12291
12294
12235
12361
12250
12448
12290
12547
12446
12628
12473
12634
12448
12515
12345
12331
12256
12275
12288
12283
12483
12592
12806
12781
12962
12787
12923
12673
12757
12700
12909
12728
12930
12790
13078
12963
14026
15678
17163
17032
13341
10354
11393
12296
12904
13169
13228
13454
13328
13460
13299
13507
13332
13565
13353
13515
13466
13718
13811
14023
14168
14417
14730
15018
15405
15565
15820
15711
15855
15545
15450
14818
14464
13796
13511
13020
12899
12618
12571
12426
12317
12303
12165
12190
12056
12140
12068
12256
12095
12338
12176
12380
12210
12445
12381
12530
12450
12510
12451
12420
12406
12409
12335
12329
12241
12264
12418
12522
12717
12727
12926
12824
12968
12753
12884
12612
12769
12573
12736
12612
12773
12814
12968
13563
15172
17470
17679
13600
11398
12072
12599
13094
12984
13210
13072
13364
13215
13430
13266
13375
13242
13321
13316
13396
13504
13570
13826
13931
14341
14505
14980
15096
15486
15346
15595
15380
15372
14881
14547
13895
13464
13007
12818
12694
12557
12565
12412
12555
12413
12622
12476
12725
12522
12741
12534
12777
12616
12813
12599
12855
12725
12964
12811
12988
12928
12981
12925
12935
12931
12866
12900
12652
12760
12634
12906
12916
13168
13047
13218
13048
13254
13052
13107
12894
12953
12958
12917
12947
12938
13149
13190
13712
14152
16873
17968
16192
12100
12201
12670
13206
13127
13325
13267
13348
13365
13395
13429
13371
13468
13356
13564
13418
13669
13554
13868
13840
14272
14339
14796
14917
15280
15305
15400
15433
15382
15212
14728
14315
13659
13339
13119
12911
12724
12691
12453
12563
12389
12544
12425
12626
12400
12610
12516
12695
12563
12659
12587
12689
12751
12705
12782
12733
12833
12660
12830
12630
12827
12662
12857
12682
12861
12694
12888
12749
12855
12864
12952
13089
13113
13172
13063
13257
13113
13198
12935
13047
12804
12992
12824
12954
12813
12992
13024
13588
14476
16472
17622
15513
11462
11545
12561
13009
13347
13266
13509
13336
13520
13331
13547
13452
13563
13451
13713
13618
13896
13856
14136
14235
14561
14863
15144
15422
15624
15789
15669
15718
15455
15375
14869
14643
13940
13688
13175
13076
12702
12677
12460
12464
12362
12354
12345
12276
12350
12281
12435
12322
12487
12330
12529
12414
12707
12605
12779
12627
12730
12630
12674
12622
12584
12530
12477
12603
12602
12943
12901
13140
12994
13182
12953
13092
12805
12919
12659
12694
12560
12589
12621
12718
12818
13413
15007
16595
17100
14271
10430
11361
12226
12581
12789
12727
12957
12814
13099
12926
13139
13024
13228
13099
13271
13310
13513
13627
13841
14077
14302
14712
14917
15304
15413
15743
15626
15791
15453
15210
14513
14132
13469
13107
12677
12458
12335
12218
12205
12132
12197
12059
12134
11989
12236
12110
12320
12217
12463
12337
12516
12426
12555
12549
12597
12563
12596
12622
12548
12711
12662
12848
12728
12974
12823
12977
12718
12984
12874
13194
13159
13330
13311
13456
13354
13497
13326
13344
13193
13224
13198
13131
13169
13185
13455
13835
14940
17102
18075
15108
12096
12154
12877
13012
13201
13104
13223
13128
13219
13276
13288
13386
13360
13531
13461
13629
13481
13729
13651
14037
14120
14622
14742
15212
15378
15658
15629
15614
15491
15219
14875
14291
13858
13290
13121
12683
12674
12416
12557
12343
12509
12377
12568
12424
12479
12390
12455
12471
12496
12586
12491
12629
12530
12712
12579
12768
12598
12818
12698
12898
12808
13055
12923
13126
12937
13063
12821
12981
12893
13162
13177
13275
13295
13226
13270
13184
13240
13070
13177
13016
13179
12978
13165
13003
13350
13538
14069
15812
17686
16924
12617
11857
12532
13121
13223
13442
13380
13523
13381
13613
13442
13648
13465
13624
13541
13691
13634
13857
13946
14160
14402
14619
14966
15181
15521
15555
15757
15614
15738
15349
15200
14525
14183
13545
13334
12946
12851
12683
12664
12545
12720
12589
12663
12530
12564
12543
12500
12548
12462
12562
12390
12485
12323
12529
12378
12593
12443
12631
12500
12656
12543
12697
12674
12713
12706
12626
12623
12562
12775
12766
13063
12975
13187
12955
13167
12957
13087
12868
12918
12789
12924
12879
12975
12997
13112
13486
13977
15844
17251
16438
11680
11333
11980
12857
12851
13115
12988
13115
13040
13127
13107
13172
13210
13206
13266
13234
13426
13343
13581
13563
13963
14081
14535
14729
15125
15132
15389
15181
15249
14820
14636
14046
13734
13178
12941
12648
12540
12451
12327
12324
12210
12395
12289
12441
12284
12456
12296
12511
12355
12597
12460
12632
12547
12688
12678
12663
12644
12559
12585
12554
12714
12632
12790
12692
12952
12750
12922
12815
13007
13025
13211
13073
13150
13094
13140
13055
12972
12933
12870
12983
12874
13054
12916
13100
12993
13885
15017
17002
17100
13399
10794
11673
12535
13078
13213
13328
13348
13533
13447
13543
13514
13576
13650
13676
13789
13782
14053
14059
14417
14467
14815
14893
15382
15485
15836
15706
15835
15659
15551
15209
14772
14309
13847
13529
13156
13065
12759
12773
12543
12678
12515
12639
12427
12571
12487
12628
12519
12485
12428
12417
12482
12361
12560
12474
12707
12512
12703
12511
12630
12477
12771
12787
12959
12917
12935
12833
12783
12744
12657
12761
12683
12869
12662
12907
12810
13147
13280
15060
17028
17204
13184
10198
11020
12192
12653
13088
13009
13191
13114
13209
13233
13284
13379
13406
13608
13578
13731
13618
13956
13964
14363
14420
14922
14975
15452
15550
15804
15641
15652
15444
15176
14825
14299
13820
13289
13105
12624
12585
12192
12306
12114
12361
12199
12422
12217
12335
12348
12507
12387
12502
12586
12664
12736
12577
12668
12611
12769
12714
12960
12933
13170
13032
13238
12967
13079
12828
12849
12727
12846
12840
12856
12924
13189
13274
14490
16570
17731
17301
12464
10387
11469
12431
12747
13115
13023
13363
13242
13509
13398
13605
13486
13644
13673
13873
13857
13961
14121
14281
14583
14735
15147
15298
15747
15700
15909
15623
15729
15316
15065
14498
14123
13621
13248
12955
12696
12612
12432
12370
12231
12279
12021
12201
12018
12054
11723
11858
11735
11951
11833
11974
11988
12146
12167
12356
12524
12582
12727
12732
12932
12847
13032
12815
12912
12808
13043
13039
13259
13148
13412
13427
14488
16015
17956
18305
15279
11253
12169
12874
13269
13346
13363
13577
13548
13543
13249
13301
13144
13267
12951
12847
12783
12644
12663
12589
13070
12965
13295
13275
13884
13666
14264
13912
14192
13932
14005
13497
13296
12904
12561
12281
12139
12133
11852
12042
11749
12110
11770
12179
11905
12289
12195
12681
12731
13163
13032
13351
13157
13056
13135
13136
13209
12908
13077
12850
13124
12754
13008
12488
12642
12350
12642
12364
12828
12497
12990
12831
13265
13079
14020
15319
17540
18394
15310
12427
12719
13309
13306
13574
13408
13685
13467
13890
13647
14033
13741
14151
13947
14353
14330
14494
14565
14779
14941
15081
15407
15338
15899
15690
15967
15625
15757
15285
15279
14453
14183
13415
12930
12493
12439
12081
11998
12028
12000
11949
11734
11832
11550
11846
11654
12107
11977
12224
11910
12069
11886
12183
12132
12314
12224
12186
12255
12349
12319
12521
12533
12642
12789
12784
12948
12887
13015
12875
13038
12974
13220
13171
13564
13635
14070
14940
17172
19125
18795
14203
13007
13590
14086
14198
14009
13997
13757
13954
13999
14324
14321
14500
14523
14834
15116
15452
15449
15431
15642
15612
15547
15425
15451
15421
15689
15669
15364
15205
14657
14204
13679
13224
12835
12605
12778
12992
13052
12964
12861
12801
12646
12623
12697
12421
12787
12808
13077
12647
12634
12385
12180
11838
12033
11733
11892
11745
11958
12054
12232
12284
12306
12165
12138
12164
12255
12132
12235
12151
12126
11889
11843
11709
11740
11654
11658
11525
11654
11716
11987
12031
12523
13957
16621
17286
13533
10601
10939
11820
12042
12437
12348
12502
12621
12960
12887
12946
12926
13056
13083
13141
13304
13416
13488
13587
13872
14050
14483
14710
15079
15173
15409
15600
15323
14838
14407
13874
13594
13266
12847
12660
12586
12660
12572
12580
12568
12648
12578
12520
12397
12444
12330
12358
12207
12186
12089
12343
12404
12619
12600
12797
12754
12781
12679
12756
12867
12940
12968
12973
13053
12980
13031
12877
12953
12881
13089
13117
13468
13430
13696
13687
13925
13960
14074
14092
13977
14029
14087
14315
14381
14555
14696
15180
15698
17705
19470
19337
14976
14221
15023
16113
16708
17248
17521
17646
17794
17749
17925
17978
18237
18237
18413
18479
18786
18793
19224
19439
19636
19532
19611
19264
18885
18167
17648
16967
16473
15688
14737
13735
12846
11829
10924
10173
9415
9137
8686
8419
8049
8021
7840
8014
7773
7828
7883
8292
8365
8377
8240
8197
8253
8436
8790
9088
9372
9397
9671
9612
9852
9774
10016
9895
10025
9922
10191
10241
10543
10791
10971
11044
11053
11186
11134
11119
10937
11016
10900
11149
11066
11339
11354
11697
11941
13558
15695
16506
14993
10125
10280
11126
11953
12315
12670
12812
13111
13194
13490
13557
13746
13686
13870
13881
14202
14260
14551
14545
14914
15048
15452
15658
16051
16277
16495
16634
16672
16585
16207
15880
15239
14787
14122
13870
13435
13346
13020
13026
12799
12785
12601
12710
12704
12795
12820
12796
12793
12727
12792
12713
12881
12736
12860
12740
12872
12684
12720
12529
12673
12603
12724
12793
12934
12981
13008
13033
12954
12974
12758
12909
12730
12861
12752
12870
12777
13132
13004
14028
15958
17418
17659
12283
11897
12769
13269
13655
13667
13891
13986
14062
14197
14329
14508
14420
14540
14429
14590
14491
14807
14810
15111
15172
15538
15673
16041
16247
16473
16534
16535
16496
16184
15850
15178
14762
14118
13834
13301
13145
12750
12724
12556
12592
12413
12415
12292
12369
12300
12273
12367
12290
12386
12325
12571
12530
12702
12604
12725
12543
12650
12455
12591
12511
12487
12330
12382
12420
12559
12738
12729
12840
12727
12768
12559
12679
12488
12685
12623
12727
12567
12795
12738
12904
13354
14880
16712
17718
15648
11917
11926
12486
13001
13096
13142
13149
13218
13090
13181
13008
13152
12988
13106
12952
13095
12979
13238
13239
13426
13563
13855
14062
14330
14566
14621
14788
14600
14606
14128
13837
13203
12886
12370
12301
11994
11941
11746
11823
11788
11816
11865
11937
12069
12019
12182
12077
12257
12061
12196
12053
12274
12147
12345
12261
12421
12318
12533
12600
12774
12818
13022
12873
12793
12670
12738
12735
12802
12907
12981
13102
13055
13105
12810
12846
12594
12790
12639
12834
12806
13024
13031
13411
14212
16171
17923
17618
13343
11993
12581
12990
13230
13133
13358
13309
13506
13411
13612
13506
13700
13579
13792
13875
13979
14031
14148
14258
14403
14661
14752
15099
15159
15428
15344
15518
15326
15349
14830
14491
13963
13630
13191
12998
12764
12670
12698
12606
12636
12514
12582
12397
12551
12367
12541
12405
12530
12288
12340
12116
12287
12183
12359
12191
12364
12276
12447
12411
12523
12539
12600
12603
12557
12722
12759
13028
13019
13204
13073
13263
13106
13289
13053
13120
12991
13076
12967
13094
13099
13249
13382
14028
15645
17748
18380
14896
12397
12557
13320
13447
13716
13605
13753
13650
13722
13718
13818
13766
13788
13834
13850
13984
13955
14164
14146
14449
14509
14957
15051
15470
15501
15744
15616
15691
15478
15209
14705
14185
13445
13224
12838
12661
12424
12370
12357
12255
12307
12188
12277
12123
12284
12186
12354
12131
12264
12130
12233
12188
12369
12250
12296
12285
12377
12438
12422
12519
12430
12492
12376
12553
12361
12524
12345
12491
12361
12593
12655
12799
12758
12902
13085
13323
13402
13360
13401
13335
13488
13425
13695
13671
13972
14473
15812
17612
18796
16731
13125
13128
13817
14177
14281
14281
14252
14297
14100
14191
14050
14208
14051
14259
14158
14479
14553
14759
14660
14921
14935
15344
15438
15863
15982
16410
16580
16886
16825
16730
16300
15804
15276
14748
14457
13901
13717
13223
13112
12682
12761
12458
12468
12168
12182
12004
11982
11851
11870
11843
11753
11737
11556
11560
11332
11425
11335
11601
11447
11780
11647
11781
11630
11681
11519
11802
11993
12207
12245
12294
12387
12371
12580
12419
12530
12260
12476
12465
12848
12822
13138
13017
13902
14846
16710
17347
15167
11764
12569
13087
13529
13427
13622
13674
13552
13613
13587
13861
13899
14180
13995
14326
14090
14362
14161
14563
14549
14920
14953
15330
15571
15800
15920
15884
15881
15551
15411
14677
14314
13269
12928
12096
11864
11251
11242
10808
10958
10772
10926
10835
10873
10945
11023
11162
11072
11323
11051
11329
11044
11366
11025
11159
10861
11152
11010
11396
11387
11605
11624
11741
11760
11718
11775
11571
11783
11616
11947
11690
11970
11672
12209
13211
15623
16114
16110
11786
10329
11193
12293
12566
13043
12919
13166
13238
13334
13347
13340
13510
13534
13853
13809
14200
14156
14576
14509
15049
15083
15629
15694
16187
16254
16562
16533
16633
16521
16240
15781
15077
14707
14026
13850
13400
13504
13060
13108
12809
12969
12809
13114
13089
13303
13244
13343
13268
13216
13158
12973
12979
12614
12714
12371
12530
12243
12449
12156
12502
12317
12651
12684
12943
12928
13086
12998
13069
14674
14534
14593
14155
14369
14279
15184
16965
19043
18012
13569
12681
13225
13326
13209
13177
12986
13043
12816
12918
12673
12897
12631
12934
12732
12984
12867
13190
13127
13411
13465
13846
14103
14369
14610
14778
14928
14869
14938
14637
14481
13810
13611
12983
12903
12448
12542
12279
12444
12248
12301
12207
12239
12132
12140
12259
12150
12303
12162
12433
12316
12623
12404
12629
12396
12643
12461
12680
12592
12966
13062
13210
13265
13402
13282
13455
13294
13286
13188
13252
13363
13321
13406
13362
13704
14364
16526
18718
18957
13917
13148
13600
14357
14346
14562
14480
14512
14447
14417
14476
14330
14460
14312
14538
14285
14585
14425
14711
14544
14934
14904
15353
15481
15843
15911
16032
16067
16058
16011
15639
15451
14794
14547
13845
13713
13216
13304
12880
12965
12698
12847
12710
12800
12674
12713
12647
12605
12686
12580
12740
12584
12821
12579
12717
12434
12698
12448
12787
12722
13110
12965
13206
12974
13209
12889
12980
12706
12837
12698
12811
12874
12962
13111
13825
15420
17198
18227
14186
11582
11942
12869
12884
13163
12886
13048
12835
12974
12819
12891
12985
12996
13125
13071
13184
13042
13318
13224
13568
13447
13890
13899
14425
14343
14625
14527
14677
14368
14180
13754
13340
12973
12545
12428
12087
12089
11830
12036
11868
12086
11886
12159
12030
12263
12299
12364
12259
12344
12098
12174
11971
12281
12178
12299
12154
12379
12182
12409
12384
12576
12547
12768
12646
12691
12699
12613
12635
12481
12479
12339
12558
12476
12847
13164
14259
16110
17731
15795
11601
11626
12636
13104
13363
13427
13495
13432
13291
13353
13196
13360
13295
13506
13373
13631
13534
13820
13788
13981
14055
14379
14481
14831
15034
15120
15179
15094
15081
14742
14600
14099
13924
13381
13265
12814
12798
12489
12456
12296
12348
12280
12298
12366
12339
12442
12474
12499
12538
12484
12400
12435
12353
12411
12238
12255
12094
12288
12161
12527
12480
12809
12783
13042
12845
12909
12676
12678
12610
12691
12758
12674
12902
12970
13375
14198
16049
17194
16603
11645
11624
12361
13233
13242
13439
13466
13473
13442
13468
13498
13501
13705
13635
13829
13710
14012
13927
14266
14302
14629
14687
15144
15302
15730
15768
15924
15869
15795
15577
15231
14931
14398
14104
13576
13369
12874
12887
12639
12742
12497
12634
12413
12509
12268
12455
12209
12346
12129
12243
12062
12163
12095
12155
12162
12046
12070
11979
12194
12189
12500
12363
12689
12663
12818
12568
12685
12445
12621
12591
12692
12660
12731
12865
12960
13818
14776
16694
17410
14633
11468
12284
12860
13437
13280
13610
13488
13650
13507
13568
13562
13663
13747
13833
14016
14027
14203
14172
14367
14296
14605
14582
15022
15068
15397
15246
15561
15402
15378
15049
14674
14170
13658
13071
12956
12520
12594
12446
12365
12409
12275
12329
12226
12381
12295
12540
12421
12653
12509
12723
12647
12908
12783
12973
12815
12922
12970
12967
13175
13281
13405
13295
13479
13339
13481
13168
13268
12984
13117
12934
13086
12983
13243
13274
14123
15469
17421
17575
13169
11810
12380
13105
13144
13362
13214
13425
13194
13387
13247
13383
13261
13484
13405
13530
13593
13817
13969
13946
14193
14260
14591
14878
15121
15322
15344
15516
15417
15239
14977
14596
14021
13690
13262
13194
12746
12765
12381
12594
12212
12366
12300
12467
12259
12434
12230
12398
12321
12272
12402
12357
12410
12204
12389
12224
12460
12280
12643
12550
12928
12694
12964
12684
12731
12658
12801
12696
12627
12687
12680
12860
12899
14185
15767
17167
17070
13026
10904
12187
12687
13330
13174
13508
13383
13500
13472
13573
13615
13547
13738
13629
13882
13740
14093
13917
14329
14204
14640
14631
15218
15374
15809
15527
15741
15352
15340
14596
14277
13660
13347
12943
12798
12533
12313
12180
12009
12133
11845
12110
11847
12202
11994
12435
12250
12559
12271
12478
12368
12572
12439
12576
12562
12646
12797
12743
12989
12939
13184
12850
13024
12691
12934
12639
12891
12664
12874
12647
13075
13146
14374
16163
17143
17087
12340
11492
12173
13164
13223
13503
13254
13478
13145
13446
13219
13461
13310
13656
13638
13821
13873
14005
14227
14306
14699
15066
15288
15567
15792
15820
15934
15736
15850
15321
15125
14369
14253
13594
13506
12927
12960
12539
12621
12358
12470
12365
12386
12466
12356
12525
12408
12665
12419
12659
12385
12680
12443
12695
12317
12326
12026
12154
12074
12265
12314
12474
12550
12464
12587
12337
12374
12144
12325
12206
12494
12261
12521
12531
13081
13873
15778
17231
16626
11777
11759
12370
13155
13169
13407
13394
13549
13482
13502
13359
13290
13292
13292
13418
13463
13576
13690
13765
13905
14176
14361
14767
14803
15128
15032
15232
14962
15032
14535
14252
13627
13324
12925
12721
12495
12395
12296
12253
12380
12364
12493
12353
12477
12306
12543
12363
12576
12308
12498
12307
12460
12350
12438
12322
12316
12256
12232
12303
12304
12528
12464
12679
12438
12609
12378
12488
12180
12320
12140
12398
12379
12524
12545
12770
13330
14311
16398
17583
15535
11626
12037
12526
13101
12961
13211
13069
13292
13117
13380
13272
13484
13268
13498
13364
13518
13442
13613
13739
14060
14432
14710
15100
15271
15666
15619
15836
15628
15705
15109
14778
14112
13867
13364
13317
13149
13169
13096
13163
13235
13250
13436
13431
13550
13446
13753
13658
13780
13562
13854
13767
13933
13806
13933
13718
13816
13777
13789
13888
14023
14140
14058
14249
14114
14198
13940
13991
13675
13768
13489
13559
13305
13405
13272
14048
15497
16945
17263
13892
11117
12004
13178
13574
13555
13533
13561
13434
13534
13398
13569
13355
13524
13288
13481
13331
13614
13512
13808
13814
14218
14467
14871
15108
15239
15406
15401
15454
15081
14841
14142
13923
13295
13122
12578
12535
12151
12239
12002
12049
12016
12096
12100
12091
12184
12171
12351
12138
12326
12133
12374
12207
12487
12234
12458
12229
12440
12323
12438
12352
12334
12378
12402
12608
12580
12749
12554
12778
12539
12753
12507
12744
12516
12754
12692
13012
12872
13437
13494
14412
16085
17834
16869
12664
11943
12663
13107
13139
13263
13121
13164
12969
13167
12926
13144
13005
13303
13157
13510
13484
13814
13821
14142
14261
14590
14874
15054
15354
15436
15642
15552
15765
15412
15313
14622
14290
13625
13483
13007
12932
12602
12603
12470
12496
12422
12339
12388
12261
12394
12231
12340
12087
12353
12159
12495
12405
12656
12525
12746
12633
12828
12789
12866
12857
12778
12855
12784
13034
13065
13099
13151
13271
13218
13279
13117
13147
12946
13157
12956
13140
13004
13294
13427
14255
15995
17241
15695
11769
11777
12674
13309
13364
13548
13465
13640
13424
13646
13428
13680
13464
13737
13578
13838
13687
13852
13824
14103
14355
14605
14927
15134
15574
15589
15807
15642
15799
15383
15195
14517
14248
13484
13124
12530
12313
11886
11748
11793
11863
11993
12059
12281
12190
12581
12476
12730
12602
12739
12513
12742
12541
12723
12636
13014
12723
12839
12589
12762
12614
12839
12914
13112
13119
13134
13144
12980
13025
12783
12855
12615
12981
12851
13171
13067
13525
14162
15869
17389
17452
14586
11081
12006
12779
13391
13431
13539
13452
13626
13448
13711
13537
13731
13529
13824
13728
13919
13941
14117
14192
14495
14737
14994
15365
15546
15897
15835
16097
15955
16023
15702
15527
14754
14509
13941
13687
13237
13118
12866
12784
12599
12523
12095
13627
12328
12007
11963
12905
11892
12671
11888
12458
12079
12176
12130
11840
12201
11650
12390
11378
12537
11663
12970
11534
13195
11598
13143
11584
13165
11856
13121
12277
13211
12858
13410
14473
16177
17560
16500
12876
10418
12830
12021
14192
12463
14320
12572
14300
12749
14110
13098
13648
13373
13904
13434
13066
13706
11380
14204
13184
15379
12583
15435
13050
15683
14287
16083
14487
15724
13341
13740
12466
11726
12441
11295
12681
10985
12694
9733
12656
11082
12263
10088
12504
8709
12781
10731
13476
9627
13195
11192
13298
11741
13135
12485
12879
12477
12277
12556
10699
12549
11141
13870
11923
14314
10975
14145
11940
14207
11709
13739
11216
13529
12968
13340
13901
16028
17489
18742
18231
13286
13573
13590
15325
14204
15608
14206
15620
13913
15524
14043
15242
13944
14518
14840
14259
14425
14313
14535
14559
14850
14986
15449
15681
15918
16067
16001
16096
15816
15506
14774
14407
13604
12971
12512
12367
12164
12332
12014
12201
11928
12086
11758
11962
11690
11853
11693
11663
11654
11791
11905
11982
12032
11992
12155
12041
12265
12197
12304
12180
12483
12287
12559
12377
12571
12466
12730
12888
13041
13051
13030
13173
13086
13117
12888
12960
12644
12867
12730
12981
12946
13334
13519
14333
15415
16827
16409
12563
11663
12081
12960
12937
13311
13295
13492
13200
13432
13429
13589
13554
13578
13728
13763
14002
13846
14198
14343
14650
14806
15134
15217
15658
15559
15924
15579
15707
15158
15097
14298
14112
13479
13369
12938
12876
12626
12516
12470
12302
12428
12212
12466
12216
12527
12240
12555
12227
12545
12307
12681
12483
12682
12454
12533
12522
12511
12581
12672
12933
12745
12994
12757
12941
12584
12859
12494
12783
12507
12883
12732
13032
13041
13585
14110
15661
16933
15899
11890
11479
12607
12960
13374
13091
13435
13150
13523
13325
13665
13453
13737
13643
13950
13746
14166
14010
14394
14405
14743
14869
15143
15337
15502
15789
15750
15974
15651
15709
15025
14891
14096
13996
13367
13391
12938
13050
12740
12719
12562
12592
12508
12346
12406
12228
12444
12155
12422
12139
12479
12140
12485
12199
12500
12286
12530
12356
12506
12420
12503
12496
12410
12521
12443
12759
12636
13069
12782
13160
12907
13237
12874
13081
12746
12912
12778
12979
12909
13005
13111
13217
14022
14637
16402
16298
14029
11352
12478
13208
13637
13477
13804
13517
13902
13621
13963
13644
13962
13711
13975
13753
13982
13928
14015
14126
14214
14488
14580
15015
15015
15439
15222
15572
15187
15381
14775
14629
13874
13659
12979
12786
12458
12414
12278
12165
12231
12107
12279
12003
12277
12035
12380
12041
12371
12067
12461
12299
12576
12347
12524
12403
12438
12487
12451
12564
12496
12678
12428
12679
12316
12729
12481
12950
12780
13162
12907
13176
12954
13088
12884
13197
12925
13152
12897
13114
12998
13260
13542
14679
16475
16975
16306
11537
11398
12081
13214
13248
13638
13390
13750
13406
13710
13518
13792
13659
13815
13827
13928
14087
14089
14366
14347
14826
14764
15406
15348
15881
15721
16074
15758
16000
15638
15498
14965
14580
14080
13655
13369
12995
12998
12615
12681
12257
12453
12104
12417
12146
12495
12228
12520
12376
12636
12537
12627
12577
12517
12597
12448
12584
12398
12608
12350
12538
12604
12901
12786
13076
12858
13196
12889
13139
12732
13022
12705
12986
12720
12957
12847
13145
13222
14262
15976
17021
16830
12793
10782
11599
12810
13126
13598
13382
13794
13486
13811
13536
13749
13674
13847
13777
13840
13942
13890
14155
14077
14468
14420
14970
14898
15445
15327
15751
15440
15640
15205
15092
14450
14044
13421
13083
12818
12466
12427
12107
12279
11917
12222
11983
12349
12072
12407
12142
12483
12360
12618
12400
12552
13011
12722
12962
12633
12724
12576
12648
12524
12469
12560
12446
12707
12572
12875
12628
12957
12604
12859
12515
12889
12639
12950
12786
13092
13001
13277
13802
14999
16807
16873
15646
11118
11727
12326
13375
13309
13687
13506
13857
13554
13862
13665
13926
13810
13890
13945
13979
14161
14139
14422
14364
14816
14759
15328
15295
15897
15716
16126
15862
16058
15607
15403
14732
14263
13753
13318
13076
12636
12585
12203
12363
12013
12241
12246
12416
12239
12466
12162
12483
12149
12496
12193
12514
12223
12540
12283
12458
12338
12477
12418
12430
12472
12333
12501
12291
12612
12450
12903
12712
13131
12831
13128
12772
12980
12715
12968
12804
12950
12921
13024
13221
13788
14988
16600
17423
14768
11707
11789
12906
13089
13491
13249
13575
13351
13580
13393
13510
13525
13566
13666
13643
13806
13647
13954
13800
14211
14086
14664
14615
15206
15087
15530
15396
15671
15397
15300
14629
14478
13808
13630
13135
13014
12782
12662
12538
12395
12452
12228
12504
12209
12499
12173
12497
12163
12508
12173
12483
12249
12470
12287
12401
12341
12437
12487
12399
12590
12418
12644
12404
12710
12431
12823
12500
12871
12555
12882
12702
13095
13128
13354
13333
13354
13383
13327
13401
13091
13175
12847
13153
12833
13204
12898
13454
13728
14453
15888
16736
14663
11743
11966
12769
13245
13293
13497
13335
13589
13311
13636
13346
13628
13582
13852
13607
13913
13635
14087
13879
14374
14236
14782
14778
15351
15405
15772
15746
15813
15743
15401
15066
14347
14073
13351
13263
12685
12843
12434
12710
12343
12636
12288
12491
12274
12390
12313
12373
12345
12323
12498
12340
12631
12375
12688
12363
12724
12451
12804
12500
12821
12584
12813
12615
12765
12714
12758
12815
12753
12850
12650
12907
12691
13118
12920
13350
13041
13348
13046
13320
13038
13187
12960
13128
13067
13288
13226
13817
14221
14903
16370
16710
14429
11712
12290
12920
13510
13341
13680
13419
13671
13364
13663
13349
13574
13285
13541
13384
13621
13616
13782
13906
14044
14332
14444
14939
14965
15450
15323
15712
15475
15784
15325
15286
14565
14299
13615
13366
12891
12685
12473
12302
12314
12131
12296
12051
12357
12029
12368
12043
12356
12082
12361
12110
12408
12249
12447
12331
12412
12427
12337
12516
12289
12572
12249
12629
12236
12660
12374
12711
12281
12642
12329
12863
12650
13120
12857
13147
12946
13176
12880
12988
12780
12850
12902
12869
13089
13070
13687
14179
15411
16465
16760
13245
11749
12182
13433
13502
13811
13627
13855
13742
13730
13780
13707
13946
13763
14179
13901
14347
14014
14608
14295
14865
14605
15239
15200
15711
15709
15983
15964
16028
16054
15742
15577
14863
14676
13817
13842
13085
13280
12593
12894
12336
12656
12242
12483
12247
12422
12315
12323
12133
12447
12132
12312
12240
12298
12246
12118
12302
12070
12366
12095
12524
12064
12549
12132
12571
12149
12554
12166
12550
12372
12713
12797
12979
13099
13032
13288
13093
13372
12915
13240
12813
13304
12872
13384
12995
13568
13845
14892
16117
16559
14493
11231
11784
12717
13508
13422
13808
13495
13918
13558
14020
13617
14086
13676
14090
13780
14196
14045
14359
14349
14573
14855
14962
15402
15526
16063
15838
16339
15946
16371
15788
15809
15076
15060
14164
14173
13355
13476
12793
13029
12504
12720
12352
12515
12348
12375
12373
12285
12369
12143
12438
12078
12491
12106
12538
12081
12541
12134
12500
12130
12511
12279
12513
12377
12368
12367
12317
12497
12366
12841
12551
13049
12695
13126
12614
13032
12606
13017
12699
13048
12815
13033
13075
13561
14846
16586
16857
15061
10802
10786
12302
12726
13488
13115
13565
13124
13545
13199
13581
13318
13514
13406
13530
13652
13921
13851
14205
14281
14587
14805
15050
15476
15509
15956
15691
16055
15511
15813
15075
15042
14186
14212
13474
13483
12976
13013
12692
12654
12598
12494
12547
12319
12553
12196
12599
12221
12716
12274
12696
12267
12630
12246
12584
12291
12461
12306
12415
12440
12346
12405
12157
12421
12156
12661
12384
12976
12618
13139
12738
13133
12710
12983
12597
12825
12749
12921
12959
12943
13291
13875
15231
16370
16851
13648
11082
11441
12869
13150
13646
13315
13758
13319
13745
13274
13684
13343
13661
13393
13665
13531
13703
13784
13833
14033
14244
14664
14766
15228
15244
15707
15452
15709
15352
15404
14693
14458
13705
13533
13025
12921
12640
12534
12444
12325
12463
12310
12496
12191
12416
12068
12375
12061
12364
12111
12449
12270
12508
12373
12529
12456
12513
12553
12442
12523
12329
12504
12232
12496
12209
12582
12425
12853
12655
13002
12743
12920
12740
12839
12773
12867
12936
15861
17289
18456
18791
15574
12984
13176
14103
14111
14273
14006
14014
13790
13674
13599
13530
13634
13426
13607
13326
13590
13349
13750
13592
14039
13918
14436
14431
14849
14804
15013
14948
14951
14847
14541
14339
13781
13536
12868
12815
12378
12353
12101
12229
12085
12300
12104
12350
12145
12316
12205
12317
12277
12380
12379
12391
12473
12367
12478
12316
12509
12311
12514
12267
12502
12297
12469
12284
12460
12384
12572
12685
12853
12926
13227
13158
13252
13128
13111
13019
13037
13066
13040
13215
13202
13491
14124
15254
16636
16911
13835
11594
12154
13277
13593
13746
13635
13654
13602
13623
13705
13646
13845
13738
13971
13868
14197
14101
14417
14301
14679
14713
15166
15306
15669
15883
16088
16169
16032
16053
15632
15441
14609
14422
13615
13521
12887
12916
12444
12526
12245
12405
12238
12283
12301
12197
12337
12268
12534
12270
12529
12237
12579
12253
12541
12226
12634
12392
12703
12360
12684
12341
12620
12287
12537
12358
12561
12581
12822
12874
12875
12957
12793
12958
12660
12853
12571
12962
12733
13147
12881
13314
13557
14819
16234
17004
15447
11410
11657
12577
13336
13286
13591
13428
13764
13454
13785
13567
13983
13671
14073
13884
14251
14225
14462
14484
14663
14795
14980
15352
15458
15859
15766
16191
15927
16241
15721
15789
15160
15076
14314
14172
13742
13699
13307
13121
12970
12747
12713
12457
12361
12372
12311
12206
12370
12183
12430
12274
12602
12338
12656
12443
12378
12199
12385
12068
12359
12231
12450
12299
12567
12413
12580
12457
12442
12395
12537
12656
12757
12855
12746
12966
13194
14593
15976
16156
13742
9797
10216
11476
12148
12559
12399
12577
12558
12694
12769
12812
12970
12963
13108
13050
13430
13383
13849
13882
14240
14273
14939
15048
15544
15658
15948
15800
15919
15952
15655
15318
14839
14567
14273
14017
13502
13446
13254
13252
13009
13067
12832
12946
12737
12891
12690
12807
12551
12716
12625
12765
12684
12711
12778
12782
12797
12726
12737
12574
12772
12654
12846
12807
12990
12886
13171
13063
13215
13085
13218
13107
13201
13151
13139
13243
13304
13619
14221
15268
16518
16951
13868
11516
12193
13304
13584
13860
13771
13892
13771
13721
13631
13584
13611
13590
13837
13941
14204
14131
14494
14390
14733
14680
15048
15033
15233
15128
15201
15022
15276
14914
14786
14239
13932
13431
13155
12881
12674
12584
12427
12501
12398
12548
12459
12701
12503
12761
12619
12758
12565
12671
12565
12705
12685
12670
12638
12557
12536
12397
12465
12462
12706
12608
13001
13035
13312
13228
13506
13303
13386
13169
13182
13012
13003
13012
13050
13137
13186
13813
14396
16166
16730
15458
11420
11843
12598
13465
13456
13668
13637
13797
13728
13745
13812
13838
13987
13926
14008
13904
14067
13983
14221
14321
14685
14816
15181
15255
15562
15473
15693
15494
15537
15119
14845
14205
13856
13348
13027
12733
12524
12433
12285
12332
12128
12301
12142
12289
12121
12280
12008
12251
12113
12298
12170
12289
12159
12214
12198
12269
12300
12267
12447
12263
12466
12316
12626
12588
12899
12722
12958
12785
12853
12705
12721
12640
12671
12681
12687
12773
12720
13154
13550
14370
15794
16674
14734
11267
11243
12471
12922
13135
12912
13073
13066
13100
13104
13367
13285
13317
13163
13200
13205
13251
13424
13487
13852
13898
14346
14480
14938
14990
15329
15234
15313
15125
14974
14485
14102
13686
13330
13096
12915
12790
12650
12609
12342
12409
12314
12443
12232
12563
12552
12816
12655
12793
12793
12948
12914
12961
13027
12948
12908
12815
12908
12761
12922
12825
13055
13063
13410
13215
13295
13127
13229
13128
13204
13243
13327
13446
13494
13843
14310
15701
17262
17002
15252
11322
11570
13273
13937
14221
14101
14306
14075
14130
13770
13830
13669
13708
13514
13626
13564
13650
13712
13849
14014
14123
14436
14446
14936
15005
15272
15031
15209
14803
14628
14030
13617
13038
12814
12516
12356
12218
12302
12282
12067
12235
12139
12366
12160
12385
12159
12487
12217
12361
12282
12525
12489
12536
12540
12550
12597
12494
12609
12393
12466
12354
12568
12399
12902
12829
13234
13138
13281
13038
13109
12973
12867
12819
12841
13025
13305
13298
13626
14329
15258
16578
16346
13629
11073
11921
12744
13400
13166
13529
13290
13444
13301
13510
13416
13638
13535
13721
13700
13697
13797
13926
14230
14244
14583
14679
15119
15031
15506
15446
15717
15415
15461
14951
14698
14065
13750
13250
12919
12651
12387
12462
12205
12250
12037
12389
12149
12495
12336
12586
12303
12420
12401
12701
12592
12707
12746
12644
12675
12548
12745
12648
12851
12618
12859
12693
12931
12796
13074
13068
13337
13101
13408
13123
13326
12964
13095
12895
13080
12894
12914
12919
12928
13246
13965
14931
16023
15952
12825
10731
11391
12657
12796
13138
13074
13233
13046
13355
13198
13346
13361
13376
13484
13441
13709
13728
14012
13976
14318
14361
14837
14876
15537
15543
15698
15592
15738
15584
15327
14929
14537
14186
13773
13568
13239
13131
12828
12998
12802
13011
12702
12933
12620
12590
12452
12452
12382
12516
12549
12645
12714
12736
12800
12856
12720
12599
12419
12443
12599
12679
12968
12923
13173
13031
13149
12731
12752
12421
12599
12507
12759
12749
12909
12888
12966
13183
13984
15403
16670
16153
11829
11079
11941
12974
13102
13496
13429
13494
13495
13686
13342
13396
13446
13696
13847
13991
14113
14158
14440
14444
14659
14548
14824
14813
14984
14919
15282
15184
15433
15342
15323
14956
14588
14124
13673
13402
12968
12784
12389
12341
12019
12151
11879
12075
12005
12483
12447
12609
12387
12588
12488
12754
12624
12827
12667
12617
12558
12705
12629
12650
12838
12933
13153
13201
13335
13159
13234
12934
13086
12969
13035
12809
12971
12965
13332
13333
14268
16071
17623
17789
12885
11377
12076
12865
13050
13443
13366
13530
13440
13595
13452
13732
13877
13841
13918
14146
13939
14001
14268
14504
14805
15170
15770
15903
16473
16479
16551
16609
16904
16924
17187
17205
17575
17866
18480
19040
19897
20890
20748
20203
19898
19386
18771
18048
17344
17002
16284
15719
14893
14321
13459
13068
12296
11835
11130
10834
10198
10130
9701
9612
9492
9457
9319
9356
9357
9248
9214
9072
9150
8920
9017
8925
9146
9138
9412
9333
10503
12706
14930
14910
9994
8105
8616
9236
9555
9822
10010
10302
10293
10523
10595
10933
11047
11375
11491
11750
11887
12026
12189
12353
12639
12856
13311
13528
13877
13801
14129
14000
14114
13849
13665
13196
12843
12574
12367
12077
12227
12133
12286
12327
12469
12541
12592
12684
12674
12847
12808
12988
12861
13027
12884
13174
12989
13227
13164
13384
13341
13384
13325
13411
13481
13578
13694
13643
13874
13882
14153
14070
14209
13984
14094
13880
13990
13829
13923
13968
14160
14226
14826
16186
18352
19503
16542
13108
13024
13706
13821
13987
13831
14030
13862
14004
13769
13882
13850
14005
14021
14031
13988
14012
14143
14151
14372
14380
14707
14742
15113
15132
15442
15409
15526
15164
14978
14369
14088
13515
13366
12936
12796
12540
12422
12330
12280
12345
12189
12229
12143
12254
12132
12342
12195
12437
12360
12565
12456
12642
12475
12532
12480
12632
12536
12345
12447
12398
12510
12458
12697
12617
12922
12740
12909
12597
12724
12605
12803
12714
12837
12781
12868
13010
13078
14167
15986
18169
17970
13114
11672
12463
12930
13282
13167
13456
13241
13445
13348
13478
13420
13517
13524
13519
13481
13662
13689
13927
14059
14292
14702
14867
15161
15243
15514
15318
15470
15118
15017
14419
14174
13587
13365
12906
12790
12494
12474
12382
12298
12360
12257
12356
12270
12440
12186
12452
12359
12543
12339
12536
12514
12552
12218
12372
12345
12392
12438
12370
12404
12308
12467
12398
12649
12692
13047
13093
13296
13206
13368
13276
13521
13489
13606
13505
13594
13620
13517
13560
14518
17046
18552
18673
13042
11808
12340
13144
13202
13412
13370
13425
13149
13397
13283
13556
13516
13809
13743
13954
13961
14057
14304
14414
14564
14551
14822
14824
15101
14884
15008
14664
14704
14184
13939
13260
12953
12450
12255
12029
11837
11743
11705
11768
11647
11834
11763
12028
11825
11967
11715
11888
11656
11824
11558
11599
11406
11421
11322
11198
11103
11072
10964
10908
11120
11182
11523
11608
12029
12170
12489
12383
12647
12610
12706
12741
12881
12927
13083
13208
13290
13399
14139
16563
20043
20089
14758
13342
13634
14120
14220
14375
14349
14415
14109
14196
14119
14322
14275
14446
14391
14419
14328
14569
14651
14677
14889
15111
15392
15509
15798
15705
15942
15816
15873
15509
15379
14914
14775
14272
14127
13883
13884
13747
13786
13903
13917
14041
13999
14063
13928
14036
13780
13833
13669
13737
13505
13496
13290
13300
13233
13349
13246
13119
12875
12572
12339
12109
11986
11761
11878
11772
11796
11707
11868
11636
11693
11593
11810
11666
11775
11768
11925
11797
11825
12520
14726
17181
17785
13120
10596
10796
11384
11753
11833
12005
12051
12234
12157
12283
12237
12534
12450
12583
12623
12869
12871
13126
13257
13398
13575
13881
14157
14279
14599
14583
14700
14482
14386
13875
13599
13114
12870
12420
12307
12114
12079
12155
12163
12188
12227
12328
12307
12403
12293
12546
12400
12554
12384
12437
12315
12472
12356
12484
12444
12435
12480
12381
12451
12430
12611
12700
12840
12969
12934
12871
12878
12708
12871
12726
12957
12923
13082
13065
13346
14760
17614
19102
18240
12774
12481
13027
13427
13591
13585
13746
13700
13783
13623
13861
13814
13999
13925
14045
13952
14053
14020
14240
14394
14574
14871
15143
15449
15519
15742
15636
15670
15364
15216
14654
14246
13751
13535
13044
12864
12662
12563
12406
12273
12290
12203
12354
12244
12387
12324
12608
12454
12494
12397
12550
12480
12541
12474
12537
12435
12512
12336
12427
12367
12526
12589
12645
12736
12813
12862
12818
12884
12703
12809
12627
12815
12693
12842
12886
12918
13484
15384
17798
18973
15341
12153
12356
12899
13266
13196
13359
13252
13401
13303
13536
13442
13613
13527
13746
13694
13809
13822
13988
14103
14227
14514
14767
15068
15145
15371
15332
15504
15262
15197
14725
14507
13860
13633
13125
12930
12644
12573
12526
12468
12496
12468
12596
12538
12773
12695
12816
12662
12740
12637
12739
12668
12737
12581
12807
12734
12893
12734
12840
12732
12802
12766
12900
12988
13113
13195
13164
13133
12967
12945
12798
12946
12827
12972
12800
12987
12862
13300
14713
17346
18965
16780
12305
12224
12795
13102
13271
13334
13417
13173
13278
13145
13304
13217
13419
13285
13422
13356
13446
13481
13651
13851
14006
14293
14517
14920
15019
15195
15082
15216
14889
14829
14287
14030
13483
13233
12838
12661
12464
12462
12430
12649
12653
12737
12709
12783
12766
12795
12731
12550
12634
12557
12697
12660
12741
12623
12678
12501
12630
12427
12554
12511
12695
12687
12863
12927
12954
12980
12912
12894
12753
12958
12816
12930
12847
13098
13079
13351
13425
14752
17083
19097
17693
12547
12127
12766
13187
13212
13439
13385
13428
13275
13452
13287
13498
13387
13519
13418
13615
13636
13786
13906
14168
14403
14664
15047
15300
15659
15692
15787
15574
15541
15144
14912
14258
13975
13485
13286
12912
12992
12736
12755
12624
12736
12571
12592
12515
12543
12531
12491
12518
12466
12529
12448
12601
12453
12591
12424
12566
12410
12563
12433
12624
12536
12666
12648
12788
12903
12949
12999
12950
13077
12935
13057
13065
13288
13290
13513
13592
13826
14727
17107
19568
19896
14681
13363
13917
14426
14604
14666
14828
14741
14919
14818
14983
14878
15056
14905
15037
14885
15022
14994
15160
15236
15300
15469
15719
16080
16351
16348
16197
15971
15784
15379
14823
14393
13799
13387
12813
12682
12337
12204
11746
11477
11173
11387
11465
11732
11716
11750
11607
11501
11402
11247
11172
11013
10994
10828
10887
10680
10624
10376
10424
10135
10108
9919
9906
9784
9759
9723
9597
9611
9501
9606
9481
9522
9280
9252
9085
9138
10037
12376
13793
13797
8109
6776
7482
8009
8016
7696
7621
7323
6979
6632
6652
6392
6555
6332
6150
5672
5629
5683
5925
6127
6500
7146
7844
8226
8622
8741
8981
8938
8841
8553
8198
7819
7380
7173
6966
7080
7003
7233
7202
7566
7676
7995
8194
8431
8571
8663
8676
8570
8550
8479
8711
8788
9093
9156
9466
9560
10036
10263
10752
11079
11553
11962
12328
12486
12627
12802
12813
13063
13094
13390
13403
13847
13917
14664
16241
18463
18753
16946
12259
12873
13705
14322
14531
14677
14868
14918
15108
15160
15441
15377
15590
15440
15572
15410
15509
15350
15455
15472
15644
15785
16040
16011
15942
15570
15182
14623
14050
13344
12452
11778
11154
10825
10336
10245
9953
10061
9802
9951
9842
10096
10088
10346
10487
10686
10815
10969
11171
11231
11389
11277
11372
11145
11289
11195
11481
11413
11627
11463
11590
11391
11433
11410
11497
11546
11576
11663
11632
11766
11797
12069
12962
14882
16096
16907
12607
10714
11391
12253
12528
12858
12842
13057
13098
13142
13298
13386
13683
13707
14083
14159
14667
14671
15145
15435
16047
16312
16952
17129
17653
17647
17966
17810
18016
17675
17429
16891
16546
16207
15933
15858
15585
15559
15265
15412
15101
15329
15056
15304
15081
15231
14899
15072
14914
14988
14922
14871
14730
14519
14476
14263
14351
14214
14499
14314
14598
14548
14716
14426
14540
14351
14450
14287
14339
14328
14388
14456
14504
15495
17204
18764
18819
14229
12757
13452
13769
14096
13969
14266
14169
14334
14306
14378
14393
14436
14411
14318
14421
14633
14649
14759
14999
15151
15446
16701
16982
17082
16662
16273
15439
15003
14299
14133
13573
13444
12928
12834
12614
12724
12656
12708
12651
12574
12593
12444
12597
12448
12610
12392
12673
12496
12835
12646
12918
12610
12803
12570
12706
12667
12843
12962
13052
13140
13134
13338
13126
13238
12977
13282
13044
13315
13056
13420
13160
14269
16046
18487
19128
15055
12932
13139
13731
13717
14050
13784
14141
13753
14138
13762
14148
13756
14136
13922
14197
14095
14222
14278
14334
14501
14952
14964
15341
15434
15487
15655
15484
15553
14986
14864
14025
13979
13158
13295
12682
12981
12532
12840
12533
12721
12515
12644
12601
12575
12768
12580
12872
12571
12932
12525
12880
12430
12877
12418
12794
12417
12703
12338
12541
12389
12570
12776
12802
13090
12942
13243
12869
13239
12819
13245
12816
13378
13041
13590
13355
13781
14016
15560
17763
19141
16981
13074
13166
13393
13864
13536
13999
13533
13970
13608
14134
13721
16318
16417
16455
16437
16397
16613
16471
16859
16569
17014
16468
16871
16226
16398
15443
15290
14276
14051
13257
13038
12544
12291
12137
11948
12023
11712
11950
11516
11954
11531
11995
11559
12104
11673
12064
11698
12073
11801
11982
11918
11952
12074
12032
12219
11950
12295
12028
12539
12244
12857
12393
12868
12476
12873
12449
12672
12329
12412
12304
12302
12422
12342
12681
12741
14076
15916
17944
16001
12024
11281
12284
12267
12754
12462
12961
12503
12991
12635
13136
12758
13119
12864
13095
13102
13266
13433
13476
13923
13917
14560
14481
15181
14853
15406
14881
15314
14673
14781
13918
13773
13106
12889
12459
12327
12337
12139
12398
12143
12566
12196
12707
12264
12808
12325
12877
12416
12771
12402
12764
12538
12654
12509
12481
12523
12379
12641
12334
12720
12285
12833
12453
13111
12703
13275
12912
13450
13142
13468
13219
13250
13129
13056
13182
13017
13401
13239
13746
14828
16956
18662
18249
13106
12985
13217
14241
13857
14364
13852
14348
13863
14243
13862
14215
14006
14247
14207
14169
14374
14234
14600
14424
15018
14899
15643
15472
16155
15788
16333
15885
16219
15691
15673
14993
14668
14224
14039
13822
13266
13202
12619
12942
12498
12890
12395
12815
12290
12709
12312
12681
12379
12672
12487
12647
12640
12644
12708
12523
12785
12578
12948
12657
13030
12716
13270
12959
13350
12944
13297
12958
13387
13111
13667
13384
13882
13586
14952
16731
18236
18473
13872
11782
12620
13500
13586
13939
13632
14106
13704
14124
13709
14149
13824
14204
13882
14169
13956
14161
14246
14420
14739
14871
15382
15343
15848
15570
15953
15503
15768
15014
14988
14128
13978
13223
13057
12537
12419
12181
12015
11976
11757
11941
11747
12155
11861
12255
11922
12344
11983
12403
12054
12336
12079
12306
12253
12368
12351
12532
12834
12854
13142
13054
13313
13138
13182
13084
13212
12988
13228
12944
13392
13297
14326
15450
17435
17447
15480
11023
11896
12466
13083
13219
13327
13472
13395
13602
13429
13787
13528
13976
13649
14072
13686
14111
13728
14160
14042
14516
14591
14923
15124
15289
15423
15258
15407
14894
14808
14023
13840
12945
12992
12392
12592
12111
12342
12063
12335
12210
12402
12471
12514
12667
12520
12762
12477
12826
12534
12940
12612
13059
12703
13059
12625
12931
12717
12918
12794
13207
12923
13319
13033
13250
12981
12979
12794
12702
12716
12537
12731
12596
12916
13289
15425
17577
18822
14666
12473
12354
13093
12944
13118
12948
13057
13069
13125
13224
13138
13324
13036
13280
12944
13302
13007
13527
13269
13812
13677
14206
14201
14673
14672
14806
14821
14698
14656
14086
13909
13197
13148
12430
12603
12078
12376
11920
12337
11978
12359
12054
12249
12178
12282
12279
12182
12368
12224
12503
12207
12561
12161
12590
12346
12725
12488
13065
12913
13477
13124
13590
13234
13595
13169
13399
13102
13346
13198
13356
13353
13529
13726
14324
16157
18233
18916
14495
12683
12643
13351
13257
13660
13367
13610
13270
13498
13410
13489
13588
13628
13855
13836
14300
14132
14584
14348
14960
14637
15215
14895
15341
14913
15114
14752
14849
14443
14127
13654
13158
12927
12469
12545
12116
12463
12053
12494
12186
12580
12311
12772
12359
12630
12362
12505
12325
12364
12423
12838
12536
12819
12681
12692
12689
12744
12920
12950
13274
13098
13469
13259
13605
13156
13488
12988
13384
13026
13357
13123
13417
13352
14069
15249
17376
18685
16077
12643
12587
13510
13491
13938
13598
13967
13531
13770
13389
13713
13434
13606
13437
13501
13558
13458
13770
13740
13964
13843
14496
14456
15079
14894
15412
15116
15525
15136
15195
14590
14392
13888
13591
13308
13002
13012
12639
12856
12557
12866
12479
12899
12492
12909
12660
12945
12543
12929
12553
12994
12592
12915
12527
12798
12435
12627
12521
12646
12783
12828
12993
12919
13175
12832
13132
12640
12959
12578
13007
12663
13096
12843
13209
13736
15714
17666
18082
13549
11724
12368
12695
13112
12872
13242
12895
13304
12933
13329
12896
13206
12836
13098
12900
13204
13086
13286
13414
13527
13942
13985
14386
14198
14619
14257
14679
14221
14519
13826
13853
13217
13298
12727
12742
12638
12579
12515
12636
12446
12688
12528
12551
12487
12433
12593
12553
12823
12747
13217
13050
13438
13115
13442
13120
13507
13195
13601
13384
13550
13428
13457
13408
13216
13250
12969
13304
12967
13354
13007
13682
13617
15136
16735
18746
17271
12658
12220
13015
13333
13559
13635
13628
13808
13683
13907
13754
14118
13957
14242
13971
14285
14089
14499
14379
14765
14762
15151
15369
15610
15698
15702
15678
15556
15492
15096
14929
14319
14093
13520
13383
12955
12916
12662
12755
12556
12780
12559
12809
12535
12756
12519
12636
12417
12487
12340
12260
12227
12162
12328
12134
12447
12328
12701
12328
12662
12272
12522
12117
12295
12024
12396
12404
12602
12674
12887
13798
15351
17081
16654
14244
10140
11360
11874
12943
12822
13264
13015
13389
13166
13292
13244
13355
13461
13391
13607
13475
13885
13694
14116
13824
14369
14250
14877
14773
15250
15025
15374
15042
14906
14485
14064
13578
13102
12661
12599
12240
12079
11936
11788
11945
11749
11999
11770
12118
11835
12126
11898
12263
12059
12295
12108
12368
12258
12470
12434
12674
12783
12860
12924
12936
13013
12916
13034
12910
13155
13139
13329
13292
13806
14730
16502
17553
17573
14413
11696
12672
13448
13888
14043
14214
14340
14579
14136
14457
14322
14563
14393
14665
14602
14707
14683
14762
14985
15023
15412
15401
15992
15781
16326
15947
16300
15734
15858
14968
14848
14037
13786
12979
13073
12462
12760
12284
12490
12077
12224
12225
12255
12309
12195
12361
12140
12495
12151
12532
12013
12399
11981
12253
12021
12474
12248
12578
12428
12448
12460
12475
12302
12192
12390
12159
12395
12149
12631
12696
14146
15069
16042
14762
10589
10603
11645
12094
12439
12523
12524
12596
12531
12787
12665
13187
13024
13390
13238
13729
13535
13953
13813
14209
14208
14681
14792
15129
15258
15369
15415
15192
15338
14815
14599
13904
13602
13250
13205
12822
12905
12571
12915
12622
12978
12785
13113
12876
13205
13006
13262
13065
13211
13141
13084
13084
12980
13167
12979
13248
13111
13511
13167
13526
13148
13440
13042
13314
12998
13254
13160
13397
13332
13481
13591
14285
16352
18112
18509
13715
12845
12763
13478
13279
13711
13484
13890
13638
13794
13636
13734
13653
13669
13700
13568
13755
13632
14055
13897
14386
14366
15019
14975
15494
15321
15652
15461
15605
15213
14965
14316
14252
13654
13641
13274
13294
13078
12942
12883
12656
12734
12440
12567
12269
12580
12292
12619
12247
12581
12213
12537
12194
12271
12042
12144
12114
12261
12497
12455
12654
12493
12723
12422
12669
12236
12533
12270
12610
12280
12603
12485
13121
14153
16613
17778
15767
12114
11854
12437
12461
12749
12555
12880
12542
12953
12700
13040
12782
13192
12967
13157
12991
13143
13120
13249
13376
13498
13925
13953
14473
14348
14812
14654
14760
14356
14189
13390
13368
12596
12717
12104
12359
11931
12306
11966
12312
12110
12374
12308
12299
12355
12306
12478
12325
12612
12329
12664
12296
12596
12237
12566
12307
12693
12476
12898
12889
13088
13024
12965
13061
12972
13128
12920
13246
13044
13402
13189
13687
13423
14331
15388
18076
18875
15989
12759
13143
13610
13854
13891
13853
14011
13800
14023
13754
13988
13630
13990
13708
14089
13873
14294
14142
14456
14548
14945
15078
15697
15545
15928
15756
15902
15696
15514
15083
14490
14152
13572
13540
13092
13208
12746
12977
12610
12855
12648
12604
12326
12570
12353
12507
12307
12523
12385
12580
12532
12578
12481
12346
12282
12134
12221
12103
12450
12476
12732
12612
12922
12764
12913
12746
12836
12679
12797
12832
12977
13066
13172
13725
14591
16737
17749
15477
11723
12358
12921
13476
13178
13372
13193
13327
13125
13152
13081
13174
13187
13236
13420
13392
13584
13898
14026
14245
14545
14774
15129
15199
15433
15299
15520
15186
15199
14559
14468
13831
13685
13247
13149
12806
12826
12776
12742
12774
12639
12684
12396
12440
12117
12269
11995
12237
12026
12389
12236
12490
12274
12447
12309
12439
12475
12592
12863
12914
13084
12940
13122
12870
13087
12665
12896
12664
12952
12781
13022
12917
13223
13854
15877
17433
16632
11934
11581
12547
13038
13369
13148
13416
13168
13379
13103
13362
13149
13499
13376
13721
13528
13884
13732
14096
14178
14631
14789
15250
15433
15651
15724
15642
15651
15307
15139
14393
14089
13385
13309
12793
12819
12434
12610
12334
12496
12314
12465
12446
12509
12570
12487
12623
12568
12734
12593
12847
12623
12923
12706
13048
12878
13216
13073
13365
13180
13269
13068
12927
12901
12743
12870
12706
12978
12867
13279
14204
16403
17121
17307
12619
11187
11933
12887
13156
13346
13384
13542
13535
13430
13550
13517
13687
13778
13890
13954
14123
14159
14481
14445
14766
14782
15316
15349
15807
15693
15932
15602
15580
15048
14750
14111
13633
13188
12829
12742
12395
12437
12197
12288
12034
12295
12018
12305
12060
12359
12275
12535
12387
12545
12476
12544
12516
12597
12839
12828
13033
12872
13020
12736
12930
12555
12752
12472
12724
12562
12868
12934
13666
14837
16535
16565
15165
10858
11157
12222
12767
13168
12903
13209
13013
13373
13155
13424
13202
13581
13521
13965
13804
14194
14090
14468
14480
14875
14973
15374
15538
15679
15744
15623
15629
15149
14973
14268
14069
13390
13288
12810
12969
12496
12590
12251
12367
12217
12234
12175
12212
12280
12218
12383
12300
12491
12240
12516
12241
12566
12375
12763
12587
12951
12758
12893
12705
12763
12636
12641
12764
12703
12887
12887
13269
13877
15547
16851
17651
14145
11180
11616
12528
12763
13089
13034
13211
13209
13256
13358
13318
13456
13517
13541
13609
13713
13702
13963
14027
14462
14549
15157
15136
15578
15429
15767
15460
15569
15023
14781
14151
13814
13386
13094
12868
12664
12682
12419
12532
12283
12508
12253
12579
12305
12532
12234
12526
12334
12439
12269
12416
12322
12384
12477
12459
12700
12647
12800
12571
12851
12553
12732
12464
12792
12567
12871
12801
13148
13807
15496
17290
17912
13903
11717
12399
12744
13150
12967
13277
13015
13283
13056
13351
13088
13335
13226
13622
13463
13861
13694
14116
14111
14553
14616
15041
15156
15337
15423
15347
15381
15074
14889
14270
14061
13397
13359
12845
12993
12574
12785
12545
12760
12574
12773
12663
12724
12716
12681
12739
12559
12710
12513
12706
12458
12717
12497
12818
12670
12996
12856
13111
12943
13061
12931
12917
12899
12867
12989
12923
13252
13182
14028
15190
17762
18545
15771
12261
12678
12917
13315
13145
13243
13130
13132
13149
13190
13326
13210
13354
13571
13631
13641
13796
13838
14145
14156
14574
14571
15052
14937
15243
14994
15244
14791
14735
14082
13798
13291
13074
12826
12663
12660
12486
12660
12462
12634
12368
12601
12303
12541
12253
12502
12195
12381
12240
12448
12349
12365
12277
12264
12374
12332
12661
12607
12905
12806
13154
12898
13173
12880
13070
12807
13131
13007
13255
13337
13593
14129
15617
18179
18575
14763
12499
13071
13194
13541
13239
13542
13260
13462
13167
13413
13196
13528
13301
13636
13411
13702
13584
13905
13948
14291
14438
14666
14881
14957
15166
15065
15181
14851
14875
14242
14105
13491
13393
12854
12935
12590
12651
12431
12502
12418
12427
12456
12408
12509
12384
12544
12314
12545
12267
12469
12198
12467
12190
12398
12185
12310
12141
12284
12269
12480
12598
12652
12819
12727
12927
12760
12990
12650
12934
12707
12955
12751
13111
12935
13619
14628
16957
17636
14224
11679
12152
12973
13240
13240
13392
13396
13325
13434
13411
13600
13502
13788
13618
13901
13668
14023
13900
14306
14248
14622
14744
15102
15165
15326
15362
15300
15283
14903
14587
13912
13602
13030
13028
12617
12727
12407
12619
12460
12674
12512
12634
12552
12591
12558
12530
12593
12473
12661
12553
12758
12584
12838
12611
12843
12534
12748
12601
12941
12945
13104
13050
13135
13115
13109
13170
13057
13162
13020
13252
13072
13368
13242
13614
13942
15712
17405
15902
11722
12259
12831
13526
13374
13624
13457
13671
13638
13754
13779
13802
13929
13858
13971
13809
14000
13845
14191
14134
14595
14626
15137
15124
15455
15277
15389
15200
15124
14802
14411
13987
13493
13271
12880
12940
12553
12661
12363
12578
12343
12556
12319
12516
12342
12482
12363
12381
12313
12328
12367
12314
12439
12177
12394
12184
12491
12421
12878
12613
12939
12794
13006
12810
12933
12780
12879
12939
12999
13141
13178
13428
14291
15930
17798
17355
12535
11927
12630
13452
13324
13490
13276
13568
13339
13560
13355
13641
13494
13721
13670
13786
13793
13883
14001
14101
14401
14529
15049
15181
15569
15402
15616
15264
15275
14791
14582
13949
13625
13137
12928
12704
12540
12526
12420
12479
12368
12482
12286
12433
12196
12429
12249
12438
12207
12347
12235
12334
12196
12251
12279
12362
12548
12653
12939
12933
13189
12972
13066
12770
12882
12581
12848
12685
12907
12873
13225
13765
15318
16912
17925
14407
11309
11918
12821
13259
13299
13427
13409
13473
13321
13519
13354
13591
13423
13690
13572
13900
13847
14169
14185
14480
14532
14816
15104
15343
15483
15445
15537
15291
15242
14775
14509
13822
13621
13128
13131
12749
12753
12453
12533
12465
12520
12481
12554
12570
12559
12667
12525
12635
12453
12640
12409
12658
12447
12679
12580
12789
12650
12900
12827
12807
12690
12587
12673
12650
12862
12806
13019
13236
13944
15190
17093
17759
15179
11203
12062
12618
13342
13212
13400
13267
13405
13253
13409
13390
13537
13589
13592
13704
13737
13997
14011
14254
14078
14482
14549
15010
14993
15284
15050
15324
15072
14939
14509
14140
13521
13130
12900
12625
12521
12357
12491
12324
12438
12286
12498
12187
12333
12212
12444
12430
12562
12446
12440
12470
12575
12680
12763
12902
12888
13022
12920
13049
12756
12847
12637
12766
12596
12794
12722
13045
13022
13893
14886
16753
17268
13983
11285
11975
12704
12967
13019
12981
13080
12981
13064
12979
13218
13150
13349
13191
13436
13333
13611
13561
13864
13983
14283
14404
14613
14764
14781
14850
14706
14726
14281
14107
13559
13434
12941
12901
12553
12584
12292
12419
12307
12412
12521
12530
12658
12754
12933
12866
13058
12961
13043
12692
12820
12581
12713
12602
12816
12720
12880
12825
12815
12721
12681
12689
12650
12785
12717
12896
13092
13623
14529
16533
17660
16308
12165
12350
12855
13464
13288
13419
13265
13420
13235
13309
13318
13466
13529
13736
13884
13951
14092
14083
14371
14426
14796
14875
15274
15310
15630
15550
15681
15469
15435
14989
14604
14190
13819
13522
13234
13096
12897
12885
12832
12921
12630
12797
12561
12771
12533
12614
12387
12431
12286
12376
12394
12464
12689
12929
13036
12880
13157
12826
12925
12677
12796
12434
12685
12556
12691
12656
12918
13838
15597
16656
17258
13258
11799
12499
13223
13557
13632
13785
13606
13729
13446
13691
13499
13761
13506
13811
13632
13913
13830
14070
14099
14428
14641
14915
15171
15183
15331
15101
15215
14746
14611
14010
13624
12813
12770
12269
12341
12105
12207
12167
12361
12450
12506
12616
12615
12788
12643
12803
12583
12726
12323
12487
12253
12516
12289
12502
12566
12758
12733
12797
12770
12816
12831
12593
12770
12614
12893
12728
13024
12887
13630
15172
17702
18166
14445
12256
12938
13169
13482
13118
13374
13180
13290
13142
13243
13229
13174
13138
13099
13221
13163
13431
13283
13651
13650
14119
14139
14513
14463
14650
14587
14683
14419
14205
13721
13334
12909
12606
12471
12393
12493
12489
12658
12605
12716
12507
12605
12521
12564
12400
12494
12410
12509
12451
12475
12447
12540
12591
12704
12953
12989
13107
13129
13239
13184
13352
13185
13240
13102
13238
13221
13354
13412
13762
15638
17896
18719
15361
12194
12668
13198
13428
13409
13447
13532
13467
13576
13504
13642
13512
13558
13400
13573
13511
13695
13665
13945
14167
14520
14752
15040
15254
15299
15184
14949
14849
14485
14228
13664
13427
13013
12934
12748
12762
12600
12627
12495
12499
12379
12354
12365
12419
12588
12593
12706
12670
12663
12401
12390
12167
12215
12046
12228
12165
12359
12271
12286
12243
12225
12186
12175
12271
12260
12430
12582
12887
13622
15793
16755
15656
11634
11854
12680
13353
13290
13493
13409
13508
13409
13535
13507
13574
13581
13735
13802
13893
14029
14109
14379
14431
14749
14821
15224
15268
15446
15264
15341
15181
15058
14794
14449
14165
13803
13533
13279
13212
12934
12978
12894
13167
13114
13326
13143
13199
12990
12903
12709
12794
12725
12659
12589
12440
12424
12309
12451
12326
12524
12621
12874
12825
12804
12596
12534
12508
12951
12998
13095
13349
13687
14810
13096
14386
14932
15289
14973
14884
14681
14635
14331
14312
14027
13919
13629
13451
13167
12958
12931
12782
12942
12869
13183
13170
13416
13409
13764
13752
14076
14162
14263
13969
13696
13327
12971
12748
12455
12396
12277
12365
12177
12302
12257
12554
12445
12762
12815
13024
13042
13232
13235
13230
13134
13056
13001
12783
12945
12813
12950
12882
12968
12693
12777
12555
12768
12704
12900
12938
13168
13447
14135
15017
16180
16437
13283
11305
12367
12918
13135
13201
13117
13197
13100
13201
13108
13254
13148
13388
13340
13645
13561
13801
13876
14116
14297
14609
14809
15075
15313
15198
15191
15002
14881
14402
14164
13571
13368
12893
12862
12582
12521
12408
12506
12469
12515
12503
12459
12502
12407
12532
12301
12490
12387
12519
12483
12475
12343
12645
12699
12847
12846
12913
12865
12833
12813
12752
12695
12655
12814
12779
12926
13071
14096
15190
16243
16198
12656
10746
12183
12969
13328
13390
13474
13356
13474
13442
13549
13590
13585
13682
13817
13936
14005
14225
14405
14517
14736
15124
15339
15638
15678
15735
15578
15547
15327
15062
14688
14320
14016
13803
13583
13283
13163
12977
12902
12768
12823
12753
12880
12898
13056
13118
13316
13255
13256
13239
13271
13204
13257
13323
13431
13426
13407
13335
13160
12999
12797
12721
12549
12536
12551
12653
12818
13721
15206
16731
16872
14344
10501
11371
12211
13005
13141
13383
13369
13379
13296
13263
13315
13467
13552
13739
14003
14124
14326
14396
14556
14491
14761
14932
15130
15147
15265
15156
15167
14936
14621
14142
13705
13328
12886
12503
12134
12095
12174
12204
12073
12251
12303
12579
12694
12930
12902
12997
12922
12958
13132
13218
13349
13456
13495
13530
13667
13505
13449
13320
13381
13139
13173
13093
13201
13120
13319
13639
15028
16760
16954
15698
11077
11346
12054
12653
12840
13060
13101
13267
13275
13423
13413
13551
13374
13397
13343
13492
13456
13693
13831
14063
14266
14616
15022
15198
15350
15375
15347
15063
14803
14331
14031
13493
13295
12988
12772
12506
12453
12330
12355
12333
12384
12386
12429
12540
12511
12504
12423
12520
12466
12581
12594
12735
12687
12831
12780
12861
12728
12750
12704
12707
12690
12596
12574
12552
12714
12707
13649
15457
16945
17190
13590
11478
11928
12299
12588
12666
12861
12810
12872
12873
12961
12970
13086
13110
13155
13207
13328
13420
13503
13704
13970
14309
14506
14823
14917
15153
15084
15210
14954
14691
14204
13890
13470
13150
12901
12755
12675
12555
12614
12574
12717
12654
12759
12598
12670
12472
12524
12407
12424
12384
12413
12326
12338
12401
12429
12472
12518
12577
12429
12479
12349
12371
12171
12288
12155
12259
12248
12422
12542
12791
13510
14779
16579
17167
14318
11235
11738
12269
12789
12754
13006
12864
12976
12937
13152
13113
13443
13349
13554
13508
13662
13574
13830
13934
14080
14345
14655
14881
14849
14924
14777
14745
14193
13760
12977
12751
12432
12618
12771
13094
13148
13252
13233
13227
13266
13120
13125
12896
13031
12756
12855
12668
12841
12630
12820
12808
12951
12901
13183
13405
13679
13893
13917
14063
13972
14099
13871
13938
13684
13762
13518
13713
13448
14119
15323
17631
18530
15538
12396
12675
13236
13453
13653
13664
13742
13512
13688
13805
13852
13793
13911
13786
13895
13687
13905
13807
14100
13984
14110
14252
14534
14849
15580
15512
15330
15074
14597
14164
13595
13290
12805
12719
12299
12447
12193
12410
12257
12508
12376
12542
12375
12388
12279
12311
12368
12357
12470
12387
12621
12530
12745
12587
12917
12687
12879
12668
12906
12682
12901
12684
12759
12689
12714
12860
12906
13015
13372
14985
17047
18794
15946
12226
12227
13121
13213
13424
13266
13404
13317
13552
13405
13635
13444
13618
13443
13501
13457
13522
13678
13772
14127
14225
14597
14674
15002
14885
15178
14975
15093
14567
14341
13654
13405
12883
12755
12615
12644
12744
12708
12783
12601
12748
12579
12744
12500
12649
12400
12538
12262
12440
12368
12560
12540
12728
12764
12891
12904
13000
13076
12977
13023
12773
12896
12698
13020
12878
13242
13015
14229
16112
17600
17950
13559
11285
12056
12729
12984
13226
13156
13416
13265
13430
13298
13532
13466
13613
13469
13847
13827
14210
14185
14608
14643
15079
15141
15484
15439
15530
15447
15274
15020
14607
14280
13690
13425
12942
12917
12554
12616
12314
12424
12170
12332
12199
12417
12422
12647
12749
12900
13000
12894
13022
12841
12862
12689
12831
12651
12828
12785
13042
12926
13166
12993
13030
12799
12843
12767
12865
12990
12997
13105
12992
14130
15713
16899
16642
12141
10500
11575
12098
12702
12581
12788
12789
12996
13071
13466
13402
13685
13699
13920
13961
14141
14317
14538
14762
14870
15301
15379
15667
15550
15767
15560
15471
14998
14812
14237
14022
13532
13348
13128
13165
13071
12919
12899
12846
12750
12480
12505
12349
12468
12279
12533
12415
12468
12223
12267
12206
12337
12334
12543
12609
12623
12825
12817
12927
12786
12830
12519
12458
12167
12153
11965
12115
11985
12141
12268
12965
13548
14942
15536
13306
9939
10456
11642
12300
12798
12807
13137
13115
13469
13353
13519
13410
13691
13569
13688
13469
13606
13642
13963
14208
14686
14980
15148
15370
15241
15452
15114
15309
14823
14701
13917
13659
13207
13073
12841
12607
12547
12382
12587
12396
12761
12527
12824
12450
12791
12416
12754
12451
12734
12575
12758
12620
12652
12635
12633
12740
12630
13034
12915
13323
13111
13530
13183
13497
13053
13310
12984
13249
13029
13216
13174
13731
14307
15811
16644
14271
11137
11362
12625
12844
13217
13268
13581
13270
13629
13331
13696
13341
13790
13468
13885
13664
14108
13914
14268
14341
14644
14882
15087
15382
15274
15517
15274
15504
14870
14843
14044
14017
13280
13362
12841
13014
12654
12783
12670
12749
12799
12741
12872
12714
12973
12694
12969
12573
12953
12533
12893
12531
12845
12546
12834
12594
12760
12691
12811
12960
13083
13344
13154
13411
13112
13457
13002
13322
12865
13198
12801
13203
12884
13305
13502
14132
15533
16598
13292
11103
11677
12781
13113
13328
13440
13430
13611
13405
13669
13382
13801
13458
13876
13528
14067
13780
14240
14044
14597
14540
14975
15134
15376
15521
15510
15643
15331
15481
14854
14763
13892
13973
13187
13257
12660
12955
12561
12799
12509
12696
12637
12685
12734
12671
12807
12545
12835
12457
12829
12421
12872
12474
12864
12438
12795
12563
12974
12866
13188
13165
13174
13292
13192
13357
13069
13312
12942
13386
13023
13482
13381
13948
14530
16184
17070
17477
12721
11529
12058
13247
13288
13678
13610
13807
13731
13775
13820
13716
13878
13680
14044
13729
14150
13791
14347
14108
14761
14623
15237
15144
15493
15375
15568
15431
15323
15166
14640
14384
13637
13543
12920
13088
12516
12848
12375
12738
12299
12679
12446
12624
12419
12620
12536
12506
12680
12601
12741
12414
12782
12407
12794
12454
12980
12644
13123
12734
13057
12743
12908
12658
12742
12749
12731
12723
13227
13878
15435
16791
16986
13840
10205
11338
11997
13009
12851
13301
13002
13456
13070
13504
13209
13525
13292
13592
13477
13751
13786
13863
14169
14284
14785
14772
15328
15180
15640
15196
15554
14964
15070
14282
14183
13436
13266
12814
12714
12518
12434
12551
12317
12575
12318
12679
12420
12873
12450
12951
12609
13012
12658
12893
12573
12791
12624
12802
12831
12850
13056
12853
13085
12667
12996
12463
12831
12421
12898
12617
13239
13213
14739
15927
17062
16376
12161
10563
11808
12288
13021
12995
13199
13262
13252
13381
13178
13411
13088
13571
13228
13685
13342
13974
13761
14284
14175
14733
14763
15208
15196
15393
15374
15249
15197
14717
14558
13816
13826
13026
13168
12599
12934
12444
12785
12400
12753
12509
12748
12693
12861
12897
12815
13028
12861
13133
12767
13135
12686
13073
12644
13051
12692
13176
12847
13160
12968
13152
12934
12928
12904
12764
12994
12781
13095
13355
14083
15105
16872
17392
14855
11089
12084
12479
13413
13101
13608
13257
13599
13246
13575
13411
13682
13594
13675
13747
13765
14020
13865
14326
14159
14770
14629
15268
14925
15463
15030
15353
14884
14943
14361
14122
13553
13250
12986
12676
12720
12366
12585
12141
12504
12124
12601
12203
12663
12300
12748
12457
12800
12643
12832
12673
12672
12766
12662
12929
12792
13207
12916
13381
12922
13265
12786
13152
12718
13004
12687
13173
12995
13583
13887
15517
16882
17571
13373
11642
12266
13007
13251
13155
13367
13123
13429
13087
13539
13146
13604
13212
13777
13491
13943
13707
14149
14083
14467
14631
14922
15164
15161
15434
15200
15440
14851
14884
14009
13974
13127
13264
12604
12720
12313
12529
12321
12495
12445
12430
12466
12313
12510
12278
12628
12225
12696
12323
12773
12355
12730
12340
12766
12499
12858
12841
13022
13043
13083
13210
12977
13192
12767
13029
12803
12946
12882
13249
13179
14159
15225
17285
16747
12850
11226
12375
12614
13158
12977
13338
13191
13323
13253
13236
13379
13334
13614
13405
13822
13462
13970
13633
14207
13969
14583
14449
15035
14977
15291
15107
15226
15014
14647
14298
13691
13568
12936
13078
12598
12906
12438
12884
12496
12930
12570
12929
12677
12854
12693
12753
12693
12658
12843
12668
12944
12605
12929
12493
12952
12490
12956
12642
13099
12777
13186
12930
13126
12799
13216
12796
13179
12952
13217
13153
13410
14030
14865
16596
17200
14936
11563
12384
12773
13595
13183
13656
13257
13644
13271
13597
13312
13552
13415
13488
13463
13421
13542
13418
13768
13631
14215
14069
14721
14480
15083
14724
15069
14576
14654
14025
13802
13303
13078
12818
12535
12575
12314
12569
12263
12736
12405
12925
12518
12964
12551
12915
12556
12819
12617
12831
12781
12850
12909
12867
13046
12843
13120
12809
13157
12759
13004
12782
13082
12842
13331
13027
13469
13119
13615
13246
13605
13214
13507
13246
13401
13237
13312
13371
13484
14176
14604
16467
17012
15958
11742
12131
12511
13479
13187
13575
13299
13601
13398
13597
13569
13692
13717
13629
13783
13629
13980
13772
14268
13989
14662
14457
15132
14965
15432
15195
15443
15114
15115
14713
14320
13906
13403
13291
12753
12865
12402
12686
12282
12688
12260
12716
12342
12709
12438
12700
12486
12674
12562
12818
12632
12882
12662
12827
12728
12713
12708
12545
12695
12401
12740
12444
12845
12431
12852
12484
12849
12442
12793
12562
12875
12704
12938
13045
13265
14076
15092
17040
17053
13670
11222
12405
12885
13658
13326
13790
13536
13874
13511
13804
13622
13799
13789
13798
13924
13847
14163
14044
14473
14269
14852
14700
15313
15063
15439
15290
15313
14824
14651
14041
13667
13073
12882
12493
12369
12268
12354
12430
12471
12649
12628
12877
12748
12745
12665
12748
12646
12762
12639
12753
12561
12710
12577
12814
12667
12848
12703
12730
12611
12711
12730
12875
12986
13043
13096
13015
13109
12972
13069
12957
13119
13049
13282
13197
13378
13472
14292
15091
16569
16787
13861
11044
11820
12818
13355
13459
13455
13598
13488
13662
13680
13944
13892
14109
14078
14198
14217
14420
14490
14629
14748
15015
15282
15488
15762
15730
15786
15616
15557
15154
14942
14418
14065
13480
13205
12833
12701
12490
12527
12381
12432
12331
12384
12293
12300
12309
12342
12372
12262
12334
12287
12472
12426
12599
12618
12716
12563
12715
12634
12650
12593
12728
12800
12999
13205
13344
13465
13503
13652
13481
13455
13203
13337
13210
13330
13306
13591
13675
14612
15687
16969
16367
11658
10622
11695
12805
13137
13279
13218
13371
13222
13388
13356
13493
13381
13655
13723
13949
14019
14172
14302
14393
14548
14705
14984
15213
15424
15357
15420
15196
15147
14824
14553
14083
13846
13462
13406
13137
13193
13013
13046
12861
12908
12787
12818
12757
12813
12909
12910
12926
12769
12823
12718
12858
12677
12771
12545
12673
12532
12615
12479
12455
12315
12341
12418
12571
12711
12730
12813
12806
12893
12667
12693
12422
12500
12393
12585
12531
12772
12809
13616
14463
16097
16502
13470
10620
11391
12453
12975
13188
13157
13310
13174
13302
13183
13387
13315
13510
13428
13592
13678
13867
14503
14726
15107
15235
15508
15590
15565
15487
15398
15277
14970
14621
14143
13802
13249
13110
12770
12748
12532
12605
12517
12653
12612
12630
12624
12637
12625
12604
12642
12573
12670
12568
12702
12599
12702
12554
12695
12480
12595
12553
12688
12689
12960
13071
13207
13327
13293
13288
13224
13227
13092
13279
13179
13367
13272
13455
13931
15240
16742
17281
14460
10439
11209
12174
12899
13157
13263
13284
13452
13388
13620
13622
13825
13789
13823
13778
13961
13916
14139
14184
14569
14821
15240
15396
15662
15762
15750
15564
15352
15021
14599
14202
13633
13345
12976
12948
12722
12799
12654
12844
12718
12864
12783
12872
12869
12917
12947
13002
13112
13126
13211
13114
13219
12987
13059
12898
13059
12871
13078
12999
13161
13167
13311
13210
13205
13201
13065
13064
12963
13094
13009
13268
13247
13978
14885
16627
16828
15273
10528
11055
11957
12802
13024
13124
13227
13214
13266
13395
13396
13485
13611
13592
13688
13255
13756
13560
14153
14050
14620
14523
15001
15056
15250
15270
15233
15171
14831
14662
13961
13848
13134
13228
12600
12852
12319
12687
12389
12770
12547
12854
12721
12926
12918
12913
12985
12802
13000
12673
12995
12661
13047
12563
12954
12592
12941
12696
13145
12954
13291
13116
13139
13040
12950
13005
12758
12934
12667
12974
12653
13208
13491
14946
16119
17012
14133
10711
11170
12224
12659
13111
12936
13302
12995
13232
13089
13213
13191
13180
13372
13297
13590
13341
13804
13633
14209
13998
14680
14534
15105
14865
15169
14842
14887
14489
14147
13710
13362
13176
12747
12805
12346
12603
12215
12633
12281
12721
12376
12823
12532
12856
12660
12855
12807
12936
12981
12916
12975
12825
13138
12832
13161
12803
13151
12766
13286
13086
13517
13358
13614
13392
13618
13532
13515
13520
13433
13615
13439
13742
13589
14712
15481
17434
17335
13166
11715
12910
13248
13886
13570
14063
13732
14094
13758
14106
13951
14090
13940
14003
14039
14020
14252
14113
14540
14412
14961
14803
15416
15133
15491
15106
15388
14911
14904
14230
13986
13475
13152
12881
12547
12549
12191
12380
12000
12314
11912
12374
12056
12476
12130
12557
12293
12616
12429
12680
12609
12632
12647
12606
12831
12586
12838
12503
12881
12447
12825
12481
12953
12755
13194
12914
13143
12971
13137
13020
12976
13009
13066
12944
13153
13075
13205
13383
14114
15624
16737
16940
12593
11291
11709
12914
12954
13489
13231
13615
13350
13594
13374
13523
13463
13498
13597
13516
13829
13694
14170
13979
14554
14399
15051
14914
15505
15216
15550
15235
15335
14920
14657
14113
13562
13275
12871
12951
12524
12728
12332
12694
12282
12711
12277
12622
12254
12568
12292
12493
12334
12493
12498
12417
12534
12365
12625
12369
12719
12371
12831
12380
12641
12235
12683
12524
13048
12757
13173
12748
13177
12866
13077
12700
12794
12525
12693
12676
12689
13017
13188
14062
15188
16839
15784
11936
10878
12137
12475
13050
12853
13270
13272
13446
13382
13690
13691
13992
13977
14153
14209
14367
14623
14760
15026
15152
15522
15671
16048
15971
16183
16026
16141
15735
15566
14971
14635
13970
13596
13422
13274
13141
12901
12777
12598
12595
12635
12898
12750
12901
12719
12888
12848
13040
12976
13276
13379
13503
13569
13765
13589
13627
13452
13445
13283
13305
13198
13145
13225
13204
13466
13454
13564
13402
13486
13302
13453
13238
13266
13091
13129
12956
12984
12910
13166
13810
14560
15902
16057
13886
10436
11269
12095
12783
12810
12916
12831
13006
12860
12958
12927
13000
13048
13138
13181
13217
13351
13373
13555
13616
13922
14104
14607
14721
14977
14997
15053
14799
14707
14340
13978
13548
13185
12866
12627
12433
12226
12242
12196
12249
12214
14211
14255
14244
13928
13697
13509
13312
13059
12988
12830
12829
12749
12532
12624
12447
12471
12471
12645
12531
12849
12726
12699
12528
12541
12450
12504
12562
12594
12660
12706
12976
14025
15473
15943
15663
11626
10293
11216
12320
12719
12913
12960
13085
13143
13269
13272
13272
13355
13401
13561
13617
13774
13736
14012
14075
14414
14667
15004
15145
15324
15344
15339
15291
15248
15003
14567
14037
13478
13216
12900
12803
12671
12662
12586
12681
12618
12702
12570
12654
12549
12696
12723
12916
12860
13025
13076
13081
12979
12966
12906
12892
12906
12819
12898
12794
12838
12651
12760
12594
12807
12750
12851
12841
12946
13257
13421
13304
13186
13111
13160
13197
13205
13253
13078
13192
13164
13294
13400
13751
14307
15410
16396
16328
14197
11105
11757
12635
13373
13332
13379
13536
13693
13635
13807
13863
14046
13939
14105
13984
14084
14142
14192
14252
14451
14739
15125
15479
15884
15959
16129
15953
15912
15702
15161
14885
14306
13821
13229
13168
12795
12761
12520
12662
12416
12524
12420
12462
12364
12421
12450
12489
12563
12511
12671
12612
12615
12527
12661
12546
12772
12667
12817
12727
12823
12682
12770
12656
12681
12705
12880
13110
13117
13241
13147
13176
13052
12987
12752
12836
12774
12901
12878
13146
13233
13572
14367
15657
16454
16062
12240
11414
12320
13020
13370
13365
13540
13498
13642
13571
13656
13658
13889
13829
14020
13962
14119
14039
14308
14437
14669
14840
15203
15486
15639
15761
15614
15614
15346
15117
14543
14201
13645
13307
12814
12749
12573
12583
12608
12555
12465
12465
12532
12558
12657
12631
12733
12753
12901
12771
12967
12943
12947
12771
12902
12730
12774
12726
12802
12730
12760
12745
12687
12681
12588
12731
12865
13017
12954
13058
12946
13173
12968
13053
12864
12907
12898
12933
12892
13081
13166
13772
14551
15763
16246
13163
11133
11910
12719
13030
13220
13288
13447
13339
13507
13452
13682
13656
13851
13810
13937
13955
14130
14118
14279
14358
14651
14908
15100
15336
15416
15589
15398
15404
15161
14922
14372
14024
13501
13260
12904
12811
12771
12725
12648
12532
12466
12426
12503
12559
12652
12569
12712
12638
12697
12612
12777
12727
12855
12807
12879
12884
12868
12901
12867
12854
12860
12780
12601
12656
12629
12933
12824
13037
12851
12984
12906
13021
12893
12958
12925
13077
12883
12973
13039
13192
13882
14842
16220
16394
13729
11134
11749
12409
12925
12994
13199
13099
13340
13296
13448
13376
13546
13480
13613
13687
13884
14001
14084
14205
14316
14599
14772
15256
15330
15557
15428
15520
15221
15072
14666
14286
13794
13423
13110
12949
12798
12682
12630
12467
12558
12394
12387
12265
12427
12315
12419
12276
12359
12317
12526
12576
12687
12705
12722
12714
12656
12683
12591
12576
12518
12581
12556
12692
12750
12894
12867
12939
12796
12885
12690
12778
12588
12740
12661
12839
12884
13108
13787
14609
15906
16230
13947
11012
11688
12481
13113
13157
13329
13265
13509
13416
13619
13498
13688
13689
13829
13817
13715
13859
13902
14076
14147
14475
14720
15168
15296
15603
15572
15788
15635
15608
15243
14901
14360
14008
13616
13364
13202
12994
13011
12928
12956
12756
12886
12714
12770
12691
12802
12680
12785
12704
12855
12916
13111
12947
13114
12940
13062
12988
13066
12940
12852
12850
12885
12995
13021
13222
13220
13264
13177
13182
13004
13074
12842
12944
12805
12908
12861
13046
13534
14224
15499
16110
15066
11270
11520
12376
13120
13190
13398
13269
13476
13350
13587
13562
13727
13683
13790
13818
13879
13978
13998
14213
14296
14618
14736
15122
15271
15581
15563
15697
15584
15529
15003
14638
14132
13707
13311
13064
12908
12682
12736
12612
12684
12535
12654
12705
12794
12731
12836
12700
12833
12758
12915
12757
12875
12755
12793
12627
12716
12607
12652
12699
12630
12558
12484
12653
12672
12912
12900
13003
12915
13105
12922
12998
12892
12965
12874
12971
12883
12991
13000
13166
13717
14376
15713
16068
14595
11044
11449
12249
13028
12997
13239
13209
13391
13315
13336
13348
13497
13517
13530
13662
13675
13729
13727
13930
13982
14324
14400
14813
14943
15267
15124
15222
15058
14994
14659
14308
13869
13633
13224
13114
12856
12899
12891
12801
12765
12743
12822
12728
12811
12758
12924
12777
12928
12833
13040
12928
13063
12919
13057
12991
13062
13026
13015
12949
12849
13074
13065
13270
13276
13323
13202
13400
13310
13413
13197
13189
13102
13180
13034
13113
13112
13252
13948
14609
16059
16202
13755
10690
11549
12294
12955
12900
13107
13040
13162
13075
13171
13254
13343
13329
13345
13468
13457
13596
13633
13922
14100
14471
14711
15074
15262
15473
15347
15373
15070
14903
14369
14139
13680
13433
12909
12787
12552
12505
12368
12380
12443
12401
12487
12412
12563
12470
12624
12462
12738
12673
12829
12750
12947
12838
12919
12925
12943
12965
13094
13253
13329
13475
13419
13416
13177
13288
13034
13070
12958
13106
13050
13270
13338
13980
15300
16952
16949
15277
10986
11479
12464
13098
13485
13455
13777
13720
13946
13783
13835
13777
13936
13848
13962
13973
14112
14111
14457
14617
14891
15057
15403
15528
15652
15711
15597
15498
15109
14703
14197
13857
13424
13166
12745
12663
12448
12481
12328
12330
12365
12500
12521
12508
12579
12573
12520
12490
12624
12597
12758
12678
12806
12671
12724
12666
12839
12783
12866
12848
12937
12979
13036
13019
12861
12770
12628
12725
12640
12839
12834
13077
13130
13493
14459
16212
16541
15912
11283
10858
11901
12654
13073
13120
13239
13219
13373
13243
13409
13322
13454
13473
13656
13596
13795
13794
14118
14186
14536
14750
15113
15262
15462
15396
15369
15276
15066
14653
14198
13806
13374
13225
12914
12932
12721
12777
12658
12734
12678
12782
12811
12897
12842
12845
12865
12859
12930
12867
12853
12793
12860
12733
12875
12757
12755
12675
12741
12680
12881
12871
13005
12968
13039
13046
13026
12932
12847
12911
12907
13066
13028
13240
13329
14186
15051
16583
16797
13947
11121
11855
12567
12957
13101
13160
13261
13358
13359
13507
13576
13610
13651
13689
13870
13806
13879
13819
14075
14185
14538
14647
15050
15039
15229
15161
15105
14801
14484
14063
13643
13295
12910
12736
12496
12441
12224
12340
12290
12414
12301
12477
12410
12513
12509
12654
12648
12776
12740
12753
12895
12933
12953
12840
12847
12691
12764
12643
12779
12826
12988
12988
13146
13099
13120
13026
13100
13038
12992
13075
13019
13200
13256
13551
14057
14864
16341
16961
14452
11812
12626
13518
13631
13912
13865
14065
14111
14118
14088
14195
14084
14092
14020
13986
14005
13969
14068
14227
14584
14588
14999
15194
15314
15300
15482
15274
15274
14974
14663
14151
13793
13410
13170
12922
12784
12663
12385
12500
12435
12536
12365
12476
12358
12339
12246
12175
12180
12370
12389
12477
12490
12519
12592
12335
12597
12338
12648
12255
12603
12572
12811
12732
12843
12589
12461
12527
12489
12681
12764
12827
12886
13022
13146
13308
13616
14227
15154
16231
15929
12402
11160
12183
12874
13316
13267
13499
13390
13543
13469
13658
13729
13877
13864
13916
13967
14026
14192
14288
14530
14562
14950
15028
15470
15586
15779
15669
15756
15404
15256
14646
14240
13738
13381
13157
12864
12802
12696
12782
12628
12774
12644
12831
12576
12700
12499
12611
12473
12532
12434
12619
12607
12610
12722
12698
12766
12758
12893
12893
13246
13214
13455
13365
13424
13190
13253
13063
13191
13143
13322
13025
13336
13641
14617
15876
16720
16065
11761
11492
12339
13031
13246
13366
13225
13394
13263
13422
13373
13538
13173
13340
13477
13586
13488
13710
13900
14103
14389
14655
14884
15041
15297
15231
15391
15167
15126
14633
14423
13891
13658
13114
12994
12693
12612
12511
12454
12371
12284
12294
12251
12394
12249
12397
12260
12362
12271
12331
12047
12136
11982
12166
12143
12278
12329
12416
12486
12488
12581
12450
12480
12483
12463
12358
12568
12630
12889
12914
13329
14315
16248
16613
16470
11802
10591
11507
12623
13107
13439
13511
13381
13560
13463
13829
13536
14000
13455
13929
13716
14255
14037
14348
14454
14930
15167
15370
15727
15686
15932
15499
15691
15153
15193
14294
14301
13612
13761
13276
13478
13210
13383
13189
13192
13202
13247
13508
13352
13586
13247
13629
13163
13600
13161
13524
13098
13376
12894
13054
12751
12926
12917
13133
13274
13245
13187
13407
13199
13193
13130
13034
13082
12913
13138
12845
13300
13195
14518
15595
16779
15697
11594
10948
12193
12769
13230
13169
13394
13466
13498
13704
13542
13848
13596
13956
13589
14019
13587
14052
13841
14396
14227
14813
14847
15287
15256
15374
15389
15254
15139
14493
14279
13474
13446
12736
12910
12365
12729
12228
12597
12222
12583
12350
12544
12463
12513
12603
12605
12770
12596
12971
12673
13089
12641
13022
12563
13039
12677
13271
12938
13408
12915
13284
12778
13181
12663
12958
12673
13007
12908
13114
13348
13738
14328
15534
17156
15959
12346
11693
12953
12979
13638
13168
13657
13219
13601
13318
13634
13462
13607
13645
13594
13752
13564
13973
13726
14334
14116
14904
14657
15396
15018
15478
15012
15274
14749
14593
13918
13525
13074
12646
12610
12311
12583
12182
12550
12135
12759
12456
13027
12662
13199
12902
13200
12921
13071
12848
12803
12792
12629
12711
12644
12473
12616
12668
12782
13068
12874
13125
12795
13216
12768
13230
12694
13082
12602
13035
12664
13005
12797
13086
13478
14585
16511
16691
13128
10861
12015
12526
13286
12998
13431
12959
13435
13041
13481
13226
13626
13427
13696
13714
13897
13982
13997
14266
14184
14678
14593
15254
15054
15573
15161
15597
15062
15136
14331
14135
13434
13213
12804
12644
12624
12489
12680
12483
12786
12440
12868
12466
12862
12427
12819
12469
12746
12390
12842
12455
12886
12484
12850
12496
12796
12545
12809
12891
13089
13168
13177
13378
13110
13301
12818
13128
12713
13138
12721
13171
12847
13265
13812
15488
16741
17229
13194
10717
11739
12545
13175
13055
13452
13195
13576
13121
13466
13040
13454
13094
13509
13272
13672
13612
14027
14084
14320
14635
14814
15313
15255
15598
15212
15462
14881
15006
14132
14046
13279
13275
12630
12694
12377
12491
12343
12361
12491
12440
12627
12330
12584
12642
12697
12650
12756
12543
12877
12424
12869
12616
13126
12810
13304
12977
13356
12994
13217
12792
12849
12681
12649
12788
12749
13134
13539
15050
16264
16788
14303
10605
10899
12220
12557
13130
13080
13601
13388
13515
13478
13574
13707
13727
13952
13745
14084
13859
14313
14013
14665
14602
15236
15169
15785
15457
15763
15494
15434
15010
14521
14085
13513
13327
12595
12720
12295
12629
12136
12600
12352
12740
12381
12743
12596
13099
12870
13273
12636
12871
12452
12764
12492
12774
12807
12987
13231
13221
13323
12897
13179
12806
13238
12875
13468
12871
13413
13126
14387
14898
16114
15951
12773
10882
11696
12620
12775
13037
12756
13175
12693
13214
12846
13615
13308
13963
13616
14304
13869
14338
14151
14469
14579
14755
15235
15285
15608
15202
15481
14853
15156
14309
14379
13446
13573
12712
12899
12207
12585
12339
12439
12228
12192
12317
12160
12573
11999
12522
12394
12426
12408
12740
12224
12577
12277
12838
12470
13212
12685
13395
12932
13384
12954
13273
12958
13015
12973
12952
13044
12911
13455
13134
14088
14205
16230
16426
15403
11596
12438
12689
13707
13356
13833
13703
13940
13892
13958
14031
13915
14245
13966
14501
14148
14745
14370
15011
14711
15461
15371
16066
15753
16285
16104
16200
15879
15672
15507
14652
14511
13808
13958
13174
13620
12991
13375
12802
13290
12881
13285
12854
13285
13093
13385
12938
13277
12847
13131
12901
13163
13079
13235
13252
13087
13495
13123
13518
12947
13430
12746
13120
12743
13330
12854
13445
13585
14679
15766
16125
14897
11179
11461
12244
13186
12941
13422
12826
13366
12806
13479
12890
13444
13077
13380
13209
13467
13292
13579
13715
13637
13882
13936
14471
14319
14783
14266
14739
13905
14257
13390
13557
12744
12668
12164
12274
11989
12133
11926
11811
12029
11721
12109
11812
12386
11890
12417
11981
12363
12024
12572
12164
12774
12380
12941
12367
13111
12526
12909
12534
12791
12518
12707
12611
12538
12803
12547
13129
13545
14919
15558
15923
12367
10728
11137
12673
12570
13099
12831
13232
12932
13072
13150
13135
13386
13079
13476
13093
13686
13228
13923
13432
14088
13849
14643
14369
14879
14585
14794
14556
14466
14210
13724
13582
12922
12910
12370
12812
12216
12764
12207
12706
12098
12673
12238
12678
12376
12593
12510
12446
12302
12881
12490
12816
12591
12709
12698
12808
13155
12851
13264
12795
13104
12594
13121
12547
13109
12450
13052
12685
13318
13095
14296
15356
16261
15982
12010
11421
12199
13310
13150
13624
13144
13753
13321
13901
13432
13907
13518
13924
13766
14150
13995
14196
14327
14425
14856
14919
15331
15110
15683
15285
15831
15126
15487
14729
14781
13900
13993
13376
13308
12923
12916
12866
12712
12874
12558
12918
12568
12984
12412
13021
12456
12932
12650
13227
12669
13212
12677
13248
12620
13125
12815
13323
13001
13137
12862
12993
12997
12915
12956
12680
13114
12746
13183
12743
13396
13154
14501
15264
16757
15809
12036
10985
12494
13177
13518
13515
13531
13723
13441
13791
13431
13788
13339
13979
13501
14071
13604
14227
13981
14505
14424
14900
15194
15407
15510
15425
15617
15297
15577
14718
14750
13862
14000
13217
13499
12780
13148
12648
12991
12608
12815
12709
12766
12733
12606
12320
12632
12419
12583
12507
12426
12718
12469
12709
12320
12605
11963
12970
12895
13455
12959
13488
12956
13174
12846
13117
12821
12845
12868
12752
12976
12760
13235
13404
14533
15390
16425
14006
11041
11248
12751
13079
13608
13324
13587
13531
13629
13750
13660
13862
13644
14129
13801
14351
13928
14594
14126
14851
14501
15240
15166
15626
15356
15523
15343
15265
15118
14619
14381
13706
13723
12990
13230
12683
13202
12725
13221
12690
13263
12708
13265
12749
13234
12771
13198
12756
13243
12983
13183
13011
13037
13040
12831
12941
12560
13002
12556
13096
12692
13191
12716
13295
12890
13333
12939
13105
12693
12963
12894
12980
13101
13075
13406
13848
15121
15914
16412
12813
11221
11515
12976
12968
13507
13212
13559
13334
13606
13529
13616
13779
13696
14108
13959
14552
14137
14705
14331
15088
14786
15492
15231
15828
15476
15814
15534
15532
15227
14774
14397
13933
13472
13514
13163
12983
12926
12779
12970
12578
12933
12495
12881
12383
12871
12332
12880
12451
12992
12596
12967
12652
12746
12526
12572
12634
12490
12759
13288
14847
15155
14437
14460
13997
13912
13645
13609
13884
14254
15448
16085
16218
11931
10694
11284
12655
12524
12960
12595
12953
12726
12938
12872
13166
13149
13059
13312
13201
13489
13347
13778
13497
14115
13925
14699
14555
15048
14845
15018
14616
14684
14243
13934
13591
13230
13093
12697
12904
12540
12975
12473
12985
12498
12984
12479
12967
12639
13077
12827
12978
12770
12656
12576
12418
12507
12155
12514
12224
12650
12292
12700
12352
12948
12948
13324
12939
13225
12796
13150
12676
12908
12558
12853
12722
12859
12856
12953
13225
13655
14560
15758
16388
13063
11234
11804
13311
13413
13992
13822
14208
14051
14242
14086
14440
14570
14603
14755
14610
14821
14543
15008
14899
15439
15183
15864
15651
16053
15760
16079
15708
15708
15335
15021
14555
14058
13841
13339
13291
12794
12933
12458
12726
12245
12594
12365
12815
12457
12816
12547
12679
12550
12573
12597
12570
12695
12676
12450
12495
12576
12593
12684
12607
12896
12699
12958
12581
12863
12354
12527
12325
12754
12474
12773
12636
13005
13638
14586
15960
16306
13347
10504
11561
12323
13080
12801
13216
12840
13210
12849
13236
13009
13360
13221
13539
13511
13706
13728
13685
13938
13896
14323
14339
14858
14668
15110
14697
15016
14581
14716
14126
14015
13389
13199
12729
12545
12307
12164
12369
12200
12549
12400
12779
12415
12826
12435
12732
12332
12672
12292
12664
12278
12587
12195
12520
12260
12611
12558
12900
12912
13148
13262
13243
13362
13149
13360
13108
13413
13074
13456
13145
13648
14200
16067
17114
17513
13378
10705
11628
12648
13293
13381
13619
13543
13791
13572
13929
13628
14045
13766
14275
14035
14470
14326
14795
14747
15118
15230
15504
15785
15846
16013
15756
15992
15566
15597
14938
14924
14140
14117
13463
13563
13041
13148
12905
12924
12778
12844
12923
12855
13097
12840
12992
13131
13114
12999
13106
12906
13120
12791
13178
12960
13325
12965
13400
13035
13351
12988
13164
12888
13014
12885
12942
12992
13063
13418
14407
16404
16773
16711
11976
10851
11538
12774
12823
13275
13135
13459
13334
13543
13511
13561
13645
13602
13709
13529
13850
13615
14085
13908
14497
14391
14994
14804
15235
15001
15172
14791
14747
14339
13980
13655
13188
13073
12682
12823
12335
12646
12239
12609
12253
12687
12379
12714
12468
12869
12564
12948
12641
12966
12599
12758
12558
12675
12567
12697
12800
12782
12982
12843
13073
12697
12989
12613
12940
12572
12958
12686
13048
12921
13502
14414
16074
16500
15900
11360
10886
12003
12564
13095
12884
13360
13064
13516
13170
13573
13281
13639
13422
13659
13511
13734
13802
14018
14249
14313
14718
14677
15098
14882
15325
14927
15145
14506
14532
13762
13661
13039
12986
12605
12537
12322
12237
12302
12150
12334
12154
12492
12480
12608
12581
12751
12570
12870
12638
12955
12545
12893
12460
12858
12546
12986
12790
13130
12981
13157
13042
12984
12897
12737
12858
12637
12932
12693
13137
13056
14021
14688
16631
16411
12831
11162
12206
12770
13110
13073
13149
13235
13172
13383
13253
13588
13337
13731
13482
13910
13586
14056
13819
14288
14174
14636
14661
14971
14973
14995
15022
14851
14887
14382
14264
13526
13515
12858
12978
12453
12726
12304
12540
12241
12504
12373
12674
12418
12762
12463
12752
12540
12708
12644
12696
12763
12639
12822
12650
13013
12780
13273
12963
13348
12946
13247
12807
13074
12730
12979
12816
12970
12961
13084
13327
13706
14357
15600
17177
15969
12192
11593
12916
13093
13570
13299
13633
13388
13653
13505
13658
13636
13622
13644
13521
13758
13634
14076
13872
14425
14275
14913
14834
15386
15127
15474
15166
15298
14913
14718
14306
13912
13615
13193
13148
12746
12923
12554
12905
12698
12953
12762
13059
12769
13120
12740
13101
12637
13024
12679
12951
12544
12781
12659
12796
12798
12919
13020
12917
13155
12944
13204
12844
13113
12712
13104
12744
13128
12825
13275
13194
14317
15642
16990
16635
11957
11193
11956
12908
12919
13279
13115
13511
13135
13606
13280
13734
13446
13790
13516
13833
13768
14021
14111
14301
14592
14675
15089
15061
15501
15114
15368
14887
15048
14340
14265
13504
13381
12810
12853
12578
12582
12366
12722
12492
12758
12589
12757
12746
12797
12844
12725
12908
12637
12888
12594
12966
12559
12995
12804
13267
13023
13380
13068
13225
12994
13019
12922
12959
13041
12928
13113
13005
13449
14129
15970
16751
17367
13117
11164
11803
12963
13224
13570
13421
13610
13635
13717
13820
13774
14016
13770
14074
13805
14231
13922
14391
14208
14789
14724
15256
15186
15517
15378
15467
15389
15188
14962
14479
14300
13640
13672
13122
13297
12741
13020
12822
13136
12805
13125
12726
13132
12761
13151
12773
13087
12825
13041
12766
12883
12781
12716
12865
12804
13002
12858
13158
12761
13052
12614
12846
12420
12774
12484
12789
12572
12847
12879
13967
15328
16398
16601
12256
10779
11458
12568
12564
13028
12721
13130
12794
13179
12909
13231
13055
13342
13289
13485
13521
13611
13776
13779
14202
14150
14663
14501
14968
14622
14928
14431
14592
13981
13894
13299
13190
12800
12725
12601
12739
12524
12730
12592
12730
12674
12665
12715
12579
12760
12534
12826
12526
12938
12515
12919
12591
12998
12720
13174
12965
13252
13152
13262
13118
13008
12949
12796
13048
12855
13235
12944
13434
13234
14412
15376
17051
16845
12802
11241
12214
12783
13142
13134
13134
13248
13115
13372
13129
13514
13230
13620
13306
13769
13438
13899
13728
14220
14238
14741
14893
15190
15265
15240
15308
15061
15065
14448
14317
13541
13598
12982
13211
12846
13101
12696
13013
12617
12959
12551
12974
12563
12805
12517
12738
12571
12660
12632
12647
12697
12552
12748
12488
12884
12704
13155
12864
13296
12883
13189
12782
13014
12730
12929
12833
13013
13049
13186
13478
14027
15510
16958
17495
13026
11805
12149
13243
13065
13448
13186
13494
13295
13534
13415
13577
13575
13630
13785
13754
14085
13901
14319
14105
14690
14554
15173
14999
15435
15089
15320
14930
14915
14428
14056
13617
13213
12821
12953
12685
12731
12606
12518
12552
12382
12505
12270
12581
12284
12650
12225
12634
12297
12692
12369
12740
12551
12776
12621
12740
12703
12788
12893
12938
13274
13088
13366
13022
13356
12996
13314
12851
13128
12770
13086
12863
13057
12968
13190
13749
14615
16597
17079
14104
11240
12134
12577
13283
13030
13451
13082
13461
13152
13529
13330
13559
13494
13634
13651
13734
13965
13909
14278
14222
14804
14750
15329
15121
15575
15181
15425
14880
14964
14160
14041
13228
13253
12653
12798
12410
12556
12425
12526
12446
12422
12468
12328
12536
12311
12618
12263
12618
12274
12672
12319
12597
12269
12593
12385
12603
12460
12533
12561
12658
12887
12932
13157
12925
13246
12937
13286
12869
13208
12752
13121
12836
13136
12916
13202
13235
13986
14866
16615
17206
14063
11452
11839
12994
13000
13431
13150
13567
13240
13620
13398
13753
13584
13792
13692
13796
13826
13922
14189
14231
14572
15027
15307
15515
15725
15622
15747
15381
15491
14840
14794
13961
13895
13210
13300
12827
12955
12692
12853
12669
12749
12749
12688
12783
12635
12845
12584
12859
12539
12857
12511
12917
12577
12900
12588
12919
12702
12893
12726
12778
12785
12897
13132
13078
13320
13042
13313
12972
13329
12837
13175
12858
13214
12874
13177
13088
13291
14207
15885
17139
17149
12683
10830
12044
12705
13459
13223
13650
13390
13825
13508
13954
13780
14190
13945
14335
14051
14477
14234
14590
14475
14868
14946
15284
15458
15584
15641
15422
15417
14910
14887
14118
14060
13301
13324
12732
12879
12413
12644
12263
12392
12256
12395
12346
12372
12500
12417
12631
12421
12730
12363
12678
12254
12673
12267
12597
12395
12810
12642
12904
12783
12873
12843
12772
12796
12658
12890
12601
12907
12710
13192
12907
14386
15773
17211
16735
12548
10358
11696
12499
13121
13232
13346
13533
13414
13674
13666
13669
13763
13878
13820
14169
14081
14476
14253
14792
14595
15223
15083
15684
15428
15723
15338
15399
14960
14695
14180
13789
13453
12979
12957
12539
12708
12261
12500
12101
12469
12148
12601
12341
12649
12397
12657
12566
12764
12811
12836
12890
12772
12911
12635
12906
12514
12915
12663
13167
12817
13173
12790
13126
12818
12962
12827
12961
12921
12880
12966
12974
13281
14107
16146
16846
17121
12155
11228
11864
13085
13175
13573
13426
13986
13644
14053
13704
14025
13732
13950
13790
14013
14008
14120
14329
14438
14805
14836
15372
15253
15685
15294
15580
15077
15210
14525
14413
13646
13534
13107
12982
12741
12669
12686
12480
12654
12401
12705
12443
12788
12371
12714
12295
12743
12450
12764
12522
12748
12465
12476
12382
12386
12475
12396
12748
12639
13024
12756
13140
12685
13054
12616
12959
12645
12988
12754
13033
12986
13242
13965
15418
16979
17031
12753
11053
12174
12898
13162
13134
13367
13215
13500
13141
13461
13179
13650
13304
13730
13421
13867
13749
14149
14142
14542
14693
14942
15157
15180
15326
15041
15203
14617
14603
13806
13765
13002
13154
12636
12840
12477
12696
12451
12623
12553
12601
12691
12640
12847
12642
12881
12629
13064
12716
13144
12753
13091
12721
13008
12681
12854
12584
12676
12623
12715
12816
12760
13011
12848
13132
12804
13099
12724
13120
12759
13146
12847
13193
13041
13761
14261
16509
17644
17031
12194
12074
12632
13367
13440
13545
13667
13620
13778
13618
13885
13657
14071
13722
14067
13723
14148
13881
14316
14129
14635
14705
15104
15250
15392
15375
15305
15401
15011
14920
14199
14069
13293
13339
12626
12744
12264
12606
12301
12549
12308
12472
12297
12273
12297
12236
12410
12242
12567
12311
12709
12405
12769
12347
12718
12392
12752
12497
12823
12594
12779
12653
12720
12785
12750
13044
12929
13211
12914
13066
13094
13189
12928
13044
12704
12983
12581
13033
12755
13297
13573
14837
16367
17604
15114
11794
11861
12717
13080
13093
13353
13275
13517
13288
13618
13337
13774
13494
13957
13594
14022
13762
14179
14042
14385
14467
14839
15086
15215
15434
15269
15434
15031
15147
14423
14367
13579
13596
12987
13084
12619
12832
12516
12640
12538
12672
12698
12636
12746
12584
12797
12533
12807
12508
12899
12549
12948
12685
13068
12764
13129
12924
13232
12899
13208
12851
13141
12829
13071
12917
13134
13188
13192
13267
13083
13268
13077
13291
12887
13187
12820
13193
12789
13149
12914
13396
13724
14733
16358
17213
14887
11462
11863
12558
13118
12939
13300
13032
13418
13125
13582
13215
13595
13298
13603
13443
13762
13724
13934
14049
14228
14528
14647
15072
15059
15507
15235
15579
15067
15254
14523
14427
13737
13644
13076
13058
12738
12763
12667
12624
12666
12536
12729
12415
12740
12579
12649
12530
12734
12568
12874
12540
12872
12432
12761
12400
12763
12411
12736
12497
12666
12482
12625
12537
12546
12614
12513
12752
12667
13087
12845
13245
12963
13362
12991
13225
12808
13049
12722
13039
12923
13186
13224
13455
14114
14721
16496
17110
15463
11684
12338
12759
13647
13356
13822
13512
13861
13580
13899
13757
13879
13826
13909
14000
13963
14195
14028
14472
14338
14860
14757
15388
15176
15675
15356
15707
15301
15379
14628
14665
13894
13885
13256
13331
12883
12869
12604
12565
12549
12435
12470
12296
12601
12310
12619
12244
12656
12267
12685
12311
12666
12396
12732
12545
12740
12666
12746
12756
12671
12824
12636
13008
12882
13343
13022
13403
12990
13295
12855
13153
12833
13098
12879
13076
12975
13043
13075
13897
15573
16857
17464
13637
11048
11536
12772
12931
13422
13123
13618
13362
13649
13405
13577
13485
13579
13653
13654
13895
13814
14260
14141
14615
14874
15217
15255
15656
15463
15775
15366
15611
14937
14831
13954
13903
13268
13216
12721
12830
12584
12564
12461
12382
12503
12410
12724
12471
12881
12600
13073
12780
13175
12794
13166
12839
13113
12849
13036
12889
12927
12827
12771
12818
12646
12984
12774
13088
12783
13089
12650
12946
12470
12754
12409
12755
12526
12698
12534
12717
12985
14137
16022
16507
15767
10663
10883
11555
12733
12728
13293
13042
13458
13118
13466
13260
13652
13356
13778
13467
13868
13680
14011
14081
14423
14611
14842
15167
15254
15580
15372
15593
15112
15242
14474
14471
13644
13616
12996
13064
12630
12706
12475
12517
12418
12403
12522
12385
12635
12453
12830
12531
12960
12587
13001
12648
13013
12652
12985
12679
12905
12737
12864
12807
12773
12877
12733
12912
12605
12891
12511
12967
12647
13250
12996
13428
13093
13380
13070
13268
13079
13101
12989
12989
13056
12922
13146
12982
13687
15091
17052
17375
14566
11494
12190
12648
13457
13127
13616
13292
13777
13534
13918
13597
13816
13667
13664
13630
13742
13718
13755
13895
14011
14351
14556
14941
15105
15391
15260
15344
15074
14909
14350
13987
13333
12987
12440
12193
11974
11870
11853
11759
11882
11781
12007
12064
12374
12318
12541
12498
12757
12728
12957
12902
12985
12814
12881
12806
12859
12839
12835
12952
12807
12952
12975
13247
13275
13530
13518
13771
13674
13748
13550
13544
13400
13514
13300
13403
13247
13402
13398
13925
14582
16428
17890
16358
12324
12259
13086
13519
13786
13698
13820
13668
13663
13510
13543
13497
13572
13542
13688
13765
13879
14014
14133
14411
14655
14904
15098
15388
15450
15585
15491
15500
15309
14996
14482
14034
13542
13223
13039
13058
13048
12952
12980
12923
12989
13035
13091
13041
12983
12972
13107
13021
13078
13084
13092
13118
13128
13087
13021
13132
13302
13441
13434
13557
13752
13906
14036
14203
14238
14397
14353
14279
14051
13904
13668
13595
13445
13352
13227
13199
13052
13081
13731
14770
16254
16712
13360
10528
11258
12058
12592
12626
12752
12868
12967
12977
13032
13074
13246
13305
13396
13423
13510
13553
13653
13797
13947
14202
14432
14610
14783
14875
14903
14947
14857
14616
14190
13741
13288
12961
12629
12453
12299
12271
12214
12241
12315
12446
12458
12566
12652
12759
12878
12944
13006
13017
12973
12947
12916
12831
12762
12677
12607
12680
12810
12845
12898
12854
12888
12758
12718
12586
12640
12576
12646
12696
12740
12853
13042
13912
15362
16922
17211
14162
10654
11649
12543
13220
13355
13463
13629
13812
13663
13848
13864
13850
13932
13989
14040
14086
14250
14280
14483
14632
14849
14927
15028
14974
14751
14462
14250
13968
13693
13380
12963
12774
12453
12323
12162
12216
12139
12210
12167
12213
12152
12208
12149
12125
12125
12182
12210
12375
12412
12475
12576
12561
12600
12735
12816
12842
13026
12948
13131
13148
13337
13099
13206
13026
13036
13124
13051
13241
13123
13419
13326
14403
15247
17082
16995
15058
10947
11950
12530
13465
13466
13673
13697
13902
13994
13929
14088
13971
14316
14120
14555
14243
14697
14433
14839
14589
15059
15024
15445
15432
15661
15580
15596
15460
15171
14915
14224
14043
13371
13391
12762
12931
12496
12741
12349
12663
12374
12588
12427
12716
12485
12822
12537
12822
12642
12813
12662
12646
12676
12636
12709
12592
12981
12717
13003
12646
12932
12530
12845
12471
12753
12511
12828
12688
12972
13019
13253
13984
14949
16589
17161
14817
10997
11880
12369
13206
12949
13301
13021
13419
13180
13406
13219
13422
13335
13442
13528
13551
13754
13654
13963
13918
14503
14473
15075
14930
15449
15115
15342
14877
14844
14221
13942
13368
13098
12846
12604
12642
12442
12619
12323
12603
12532
12703
12602
12819
12590
12846
12540
12924
12601
12996
12591
12833
12553
12774
12611
12938
12979
13109
13103
13072
13075
12863
13033
12707
12979
12641
13017
12814
13239
13045
13541
13998
15673
16977
17200
13005
11488
12135
12946
13190
13339
13424
13545
13586
13636
13707
13784
13858
13934
14071
14007
14121
14139
14355
14414
14644
14818
15156
15364
15549
15561
15615
15511
15255
14911
14477
14008
13557
13293
13041
12920
12674
12668
12628
12694
12657
12757
12696
12781
12731
12792
12772
12794
12720
12697
12620
12611
12513
12411
12439
12460
12439
12535
12676
12666
12762
12832
12945
12865
12859
12777
12784
12698
12783
12740
12810
12872
13068
13739
14677
16446
17204
14552
11490
11986
12738
13120
13121
13232
13269
13311
13313
13359
13351
13350
13285
13362
13386
13399
13474
13595
13798
13948
14182
14424
14638
14780
15005
15027
15035
14907
14783
14379
13992
13589
13218
12950
12820
12714
12668
12572
12535
12498
12476
12496
12523
12621
12551
12591
12611
12736
12702
12805
12796
12859
12760
12793
12763
12777
12798
12784
12748
12750
12844
12904
13118
13230
13352
13308
13400
13313
13317
13174
13132
13046
13093
13015
13098
13118
13113
13560
14214
15535
16812
16454
12400
11824
12433
13229
13303
13442
13457
13450
13468
13341
13566
13362
13652
13408
13817
13646
14108
13881
14364
14267
14731
14717
15205
15345
15605
16987
16461
16125
15322
15130
14356
14301
13659
13702
13177
13295
12880
12906
12695
12684
12596
12553
12653
12428
12577
12317
12546
12226
12581
12225
12528
12106
12371
11985
12266
12116
12401
12444
12556
12534
12533
12619
12494
12651
12351
12569
12251
12627
12331
12712
12405
12916
13157
13753
14860
15992
14773
11184
11112
11991
12644
12674
12975
12766
13070
12784
13112
12816
13183
12933
13333
13053
13360
13182
13477
13475
13760
13946
14468
14565
14998
14947
15094
15014
14949
14869
14468
14223
13596
13580
13019
13151
12711
13062
12710
13045
12785
13089
12863
13123
12989
13092
13084
13080
13136
13039
13220
13019
13274
12945
13241
12814
13143
12805
13051
12734
13065
12932
13244
13125
13283
13230
13186
13266
13114
13270
12993
13280
12966
13288
12924
13323
13190
14232
14688
16428
16821
14906
11225
11840
12703
13223
13471
13356
13604
13434
13725
13456
13854
13521
13858
13683
14055
13846
14310
14143
14673
14499
15069
15012
15511
15381
15624
15402
15439
15207
14950
14627
14080
13882
13262
13276
12756
12950
12529
12826
12412
12738
12434
12734
12541
12808
12719
12865
12829
12800
12899
12767
12929
12617
12778
12552
12882
12548
12975
12823
13263
13062
13348
13106
13282
13091
13144
13069
13084
13224
13137
13379
13220
13673
14475
16459
16984
17077
12204
10974
11735
12873
13075
13406
13359
13502
13496
13493
13425
13749
13564
13708
13722
13810
13873
13862
14152
14148
14686
14678
15250
15061
15523
15158
15458
15003
15089
14420
14219
13675
13479
13116
12899
12806
12552
12628
12359
12607
12321
12710
12417
12801
12457
12827
12512
12801
12551
12769
12580
12653
12581
12560
12621
12542
12772
12704
13088
12861
13205
12762
13095
12686
12913
12554
12815
12574
12793
12678
12880
13024
13738
14831
15817
16145
12880
10282
11127
12043
12649
12871
12974
13298
13547
13581
13674
13749
13836
13926
13892
13926
13901
14052
14129
14388
14495
14878
15127
15460
15574
15598
15526
15440
15214
14884
14453
14054
13667
13315
13162
12934
12890
12715
12790
12721
12805
12740
12908
12867
12946
12953
12974
12928
12908
12912
12786
12843
12835
12960
12898
12903
12755
12698
12557
12634
12482
12564
12559
12728
12814
12871
12836
12899
13001
12942
12890
12791
12812
12815
12907
12943
13209
13375
14020
14793
17043
17327
14419
11873
12484
13144
13505
13452
13586
13580
13602
13593
13663
13697
13730
13755
13789
13853
13771
13924
14015
14229
14427
14843
15079
15453
15530
15648
15626
15596
15394
15143
14753
14326
13984
13534
13276
13055
12886
12775
12797
12672
12666
12591
12683
12702
12754
12653
12663
12596
12594
12544
12626
12667
12684
12637
12609
12697
12650
12760
12860
12991
12980
13040
12958
12872
12792
12718
12601
12552
12539
12579
12606
12682
13256
13960
15304
16472
15593
11572
11334
12140
12804
12948
13090
13105
13258
13284
13361
13308
13424
13399
13465
13510
13593
13638
13771
13881
14040
14270
14493
14796
14951
15200
15135
15181
15004
14918
14561
14235
13697
13411
13124
12997
12834
12730
12613
12505
12516
12421
12485
12462
12554
12479
12604
12549
12676
12637
12750
12737
12867
12851
12860
12733
12591
12588
12616
12766
12881
12960
12830
12919
12836
12926
12771
12821
12721
12819
12848
13016
12940
13038
13144
13847
14409
15874
16514
14692
11328
11799
12823
13373
13558
13564
13715
13634
13687
13619
13737
13709
13839
13767
13542
13827
13665
14108
13999
14502
14296
14843
14825
15251
15158
15395
15216
15169
14828
14459
14128
13556
13392
12872
12954
12529
12826
12500
12828
12525
12855
12599
12870
12623
12859
12742
12868
12864
12841
12909
12721
12819
12525
12832
12533
12921
12744
13196
12902
13302
13014
13304
13004
13336
12991
13344
13159
13531
13368
13789
13830
14862
15749
17062
17509
14036
11908
12498
13564
13684
14030
13752
14144
13784
14093
13768
14131
13814
13971
13871
14057
14012
14084
14210
14231
14579
14597
15082
15053
15502
15230
15527
15067
15209
14647
14515
13822
13697
13234
13047
12677
12624
12665
12533
12703
12517
12809
12506
12810
12520
12881
12533
12880
12565
12837
12564
12699
12555
12718
12620
12651
12814
12740
12977
12757
12847
12893
12845
12706
12842
12678
12959
12707
13014
12815
13422
14320
16411
16464
15987
10911
10712
11647
12654
13041
13228
13419
13409
13585
13421
13687
13425
13750
13456
13855
13566
13954
13784
14250
14183
14617
14731
15200
15331
15462
15528
15406
15479
14997
14862
14117
14031
13302
13343
12721
12827
12334
12517
12227
12423
12273
12393
12449
12602
12626
12537
12739
12581
12886
12619
12895
12540
12886
12506
12937
12781
13113
12910
13202
12840
13116
12649
12848
12492
12698
12545
12756
12705
12963
13560
14809
16701
16622
15487
10566
11104
11625
12659
12594
12986
12792
13217
12959
13290
13173
13418
13445
13577
13719
13674
13917
13871
14325
14245
14835
14837
15464
15270
15697
15407
15624
15169
15178
14607
14325
13864
13461
13269
12986
13062
12774
12984
12645
12965
12655
13037
12709
13053
12764
13097
12829
13056
12927
13071
12965
12887
12954
12808
12973
12848
13218
13249
13326
13202
13326
13031
13132
12781
13119
12816
13182
12822
13248
13053
14251
15259
16812
16896
13409
10948
11783
12590
12960
13152
13004
13318
13077
13457
13152
13538
13185
13516
13156
13560
13370
13729
13689
13976
14174
14430
14686
14796
15044
14845
15068
14725
14896
14199
14033
13244
13228
12624
12722
12268
12431
12228
12304
12209
12185
12232
12158
12398
12278
12577
12339
12733
12445
12828
12548
12890
12579
12875
12602
12808
12602
13163
12956
13303
13123
13339
13099
13193
12943
12812
12810
12708
12878
12713
13127
13126
14143
14690
16901
17075
14351
11575
12425
12860
13393
13242
13500
13483
13539
13606
13576
13760
13586
13907
13645
14107
13849
14290
14045
14532
14358
14914
14931
15560
15452
15500
15374
15322
15143
14692
14391
13653
13457
12811
12869
12343
12621
12261
12636
12335
12663
12406
12671
12511
12648
12583
12602
12693
12622
12805
12540
12849
12577
12919
12682
12823
12615
12894
12731
13195
12878
13242
12849
13125
12746
12956
12628
12752
12512
12652
12583
12653
12799
12919
13548
13623
15344
16035
15108
11195
11660
12262
13154
12871
13223
13024
13262
13072
13221
13173
13235
13356
13310
13561
13488
13914
13783
14259
14070
14657
14574
15156
14970
15425
15250
15486
15217
15166
14706
14326
13952
13487
13374
12964
13087
12757
13048
12709
13057
12699
13022
12731
13049
12837
13041
12846
12949
12726
13075
12772
13067
12915
13081
12952
12948
12907
12796
12917
12709
12983
12838
13230
12904
13312
12940
13306
12882
13138
12796
13026
12865
13089
13046
13197
13411
13738
14324
15277
16733
15755
12171
11414
12722
13163
13783
13512
13917
13695
13937
13785
13980
13927
13981
14077
14035
14230
14101
14448
14262
14766
14643
15296
15213
15772
15540
15912
15641
15818
15475
15267
14795
14376
14050
13587
13463
13090
13216
12802
13071
12642
12853
12681
12863
12559
12866
12496
12835
12456
12759
12408
12705
12384
12577
12336
12518
12374
12435
12459
12394
12527
12395
12870
12721
13060
12749
13157
12784
13103
12703
12940
12679
12996
12820
13045
12983
13214
13552
14143
15280
16355
16302
12065
11419
12102
13312
13256
13707
13394
13767
13497
13775
13607
13782
13699
13758
13763
13736
13948
13844
14218
14050
14573
14429
15025
14814
15279
14993
15301
14996
15120
14670
14501
14011
13683
13125
13164
12728
12748
12548
12517
12500
12440
12576
12353
12589
12375
12723
12446
12821
12422
12779
12455
12776
12392
12540
12280
12446
12356
12540
12700
12739
12968
12824
13063
12771
13007
12634
13039
12698
13087
12737
13103
13001
13909
14836
16487
16743
14785
10613
11197
12353
12909
13344
13154
13631
13374
13762
13394
13782
13521
13897
13653
13922
13845
14148
14191
14434
14622
14755
15144
15200
15644
15473
15831
15425
15572
14865
14680
13943
13779
13067
13113
12524
12679
12241
12498
12125
12351
12202
12415
12339
12468
12532
12488
12607
12436
12626
12407
12652
12334
12660
12256
12641
12431
12901
12732
13101
12905
13008
12845
12841
12800
12717
12855
12671
12988
12876
13450
14030
15625
16547
17075
13611
10833
11444
12509
12824
13120
13151
13311
13347
13336
13555
13457
13799
13624
14034
13777
14195
13912
14412
14189
14722
14637
15132
15198
15521
15487
15521
15278
15426
14848
14621
14035
13724
13348
13001
12958
12659
12780
12484
12721
12363
12718
12383
12737
12398
12769
12481
12732
12543
12734
12599
12605
12535
12495
12593
12438
12744
12527
12853
12553
12895
12543
12853
12422
12675
12441
12768
12620
12863
12907
13205
14115
15264
16601
16705
13042
10973
12097
12518
13204
12919
13377
13125
13520
13270
13582
13444
13648
13554
13699
13733
13731
13941
13943
14351
14266
14831
14742
15311
15078
15422
15155
15332
14789
14829
14033
13979
13353
13497
12998
13130
12770
12797
12575
12653
12643
12577
12696
12525
12767
12530
12827
12526
12936
12631
13007
12609
12934
12714
13013
12925
13269
13146
13256
13268
13180
13177
12981
13075
12735
13044
12781
13169
12781
13246
13089
14086
14872
16551
16669
13068
11177
12033
12759
13020
13217
13094
13343
13124
13421
13107
13446
13089
13442
13118
13505
13290
13604
13513
13883
13984
14292
14612
14855
15055
15422
15283
15257
14954
14528
14175
13568
13373
12848
12922
12451
12733
12356
12721
12366
12712
12406
12703
12468
12646
12514
12631
12678
12730
12877
12793
13025
12753
13008
12685
13057
12700
13176
13001
13371
13117
13422
13217
13341
13167
13179
13161
13179
13290
13131
13383
13277
13999
14303
16108
17001
16294
11730
11970
12481
13332
13233
13456
13401
13520
13550
13563
13696
13551
13784
13601
13956
13734
14151
13896
14391
14241
14964
14974
15501
15336
15664
15300
15542
15040
14976
14273
13978
13411
13201
12930
12772
12783
12620
12733
12512
12685
12330
12645
12286
12630
12287
12603
12294
12607
12441
12680
12595
12703
12683
12729
12844
12735
12930
12621
12756
12448
12894
12631
13170
12938
13344
13060
13374
13145
13287
12997
13001
12974
12983
13088
13014
13301
13226
14040
14405
16158
16413
14911
11219
11841
12418
13203
13075
13272
13166
13252
13250
13244
13375
13470
13408
13678
13713
13816
13959
13966
14250
14233
14681
14610
15170
14982
15326
14924
15182
14728
14743
14090
13859
13302
13094
12803
12645
12590
12450
12667
12474
12670
12391
12725
12339
12750
12441
12787
12505
12765
12540
12755
12548
12709
12688
12692
12706
12581
12707
12443
12617
12311
12690
12390
12956
12702
13060
12787
13163
12849
13057
12836
12869
12762
12911
13095
13097
13225
13184
13860
14026
15462
15829
15183
11303
11596
12796
13606
13387
13809
13601
13954
13683
14053
13925
14257
14160
14399
14420
14470
14512
14505
14784
14805
15252
15206
15755
15552
15952
15532
15734
15171
15183
14477
14220
13584
13344
12969
12790
12803
12645
12832
12606
12909
12560
12848
12380
12668
12223
12560
12143
12424
12173
12472
12331
12372
12277
12392
12502
12444
12704
12578
12887
12535
12967
12688
13268
12938
13359
13125
13462
13127
13246
12979
12925
12859
12845
13069
13040
13251
13591
14360
15654
17306
17660
14562
11473
12466
12909
13660
13265
13785
13406
13765
13421
13874
13605
13874
13746
13976
14004
14114
14264
14267
14702
14650
15168
14955
15541
15201
15682
15214
15535
15011
15117
14447
14291
13755
13576
13287
13107
13080
12801
12936
12637
12985
12594
13005
12613
13057
12724
13098
12755
13143
12868
13069
12869
13033
12963
12833
12805
12682
12997
12817
13171
12804
13327
13018
13477
13181
13618
13236
13525
13118
13476
13047
13458
13164
14426
15843
17253
16992
13162
10940
11793
12541
12857
13232
13190
13569
13299
13676
13349
13777
13395
13797
13417
13866
13631
13864
13717
13979
14011
14208
14495
14619
15013
14805
15055
14731
14938
14298
14398
13632
13739
13085
13101
12672
12860
12649
12720
12674
12582
12732
12591
12836
12547
12880
12521
12966
12618
13035
12708
13028
12657
12976
12648
12780
12681
12763
12677
12670
12833
12723
13004
12994
12972
12959
12986
12785
12982
12681
13085
12787
13332
13173
14707
16022
16753
16149
12219
11354
12351
12955
13353
13353
13438
13598
13490
13743
13475
13814
13406
13827
13524
14092
13781
14351
14110
14544
14449
14719
14891
15204
15251
15143
15226
14997
15080
14420
14227
13385
13450
12769
12871
12370
12787
12482
12729
12538
12817
12709
12842
12787
12637
12849
12623
12799
12575
12874
12384
12817
12331
12805
12283
12724
12295
12578
12357
12812
12523
13033
12584
12910
12668
12904
12773
12805
12688
12639
12728
12592
12896
12740
13249
13428
15121
16154
16598
14800
11443
11340
12356
12753
13198
13109
13316
13344
13421
13557
13418
13723
13526
13846
13544
14003
13662
14135
13904
14464
14306
14881
14924
15388
15343
15476
15372
15175
15036
14555
14354
13719
13706
13115
13336
12790
13167
12700
13006
12599
12884
12605
12782
12648
12720
12738
12726
12852
12722
12947
12672
13082
13145
13115
13231
13002
13241
12849
13134
12692
13153
12796
13332
13070
13495
13241
13507
13181
13247
13035
13076
13019
12943
13088
12890
13288
13153
14137
14772
16606
16426
14530
11458
12113
12524
13167
13034
13319
13226
13220
13215
13218
13381
13131
13464
13159
13560
13291
13788
13521
14097
13919
14552
14438
15016
14968
15261
15135
15148
14979
14667
14413
13724
13665
13050
13180
12673
13039
12629
13042
12634
13067
12787
13006
12747
13106
12735
13106
12773
13161
12886
13096
12912
13019
12994
12982
13062
12828
13034
12749
13150
12841
13368
13030
13584
13239
13580
13109
13346
12997
13201
13084
13225
13172
13150
13394
13381
14414
15594
16602
16052
12703
11092
12256
12615
13404
13045
13439
13314
13595
13481
13717
13783
13761
13880
13710
13985
13801
14298
14060
14563
14278
14993
14860
15486
15269
15617
15330
15474
15118
14894
14438
13946
13665
13207
13209
12719
13026
12833
12901
12722
12908
12649
12906
12480
12866
12484
12914
12480
12859
12508
12888
12612
12903
12634
12756
12668
12636
12670
12544
12766
12567
12967
12721
13130
12696
13115
12658
13057
12650
13039
12811
13176
12932
13154
13290
13486
14552
16035
16497
15814
12514
10878
12112
12414
13286
12975
13439
13074
13521
13272
13558
13369
13547
13522
13542
13688
13677
14016
13895
14379
14305
14938
14782
15477
15230
15679
15242
15516
15035
14968
14106
