15618
16179
15937
16132
15660
15713
15032
14875
14227
13973
13314
13078
12872
12709
12549
12362
12487
12321
12556
12324
12609
12329
12649
12361
12599
12363
12588
12352
12545
12441
12633
12565
12522
12605
12534
12682
12502
12751
12524
12807
12652
13085
12857
13204
12966
13208
13093
13225
12992
12998
13006
12961
13071
12976
13166
13064
13845
14825
16821
17229
15413
10681
11512
12110
13021
13094
13317
13282
13386
13436
13414
13526
13478
13708
13755
13927
14024
14260
14213
14493
14496
14969
14913
15498
15433
15866
15574
15772
15442
15443
15029
14844
14310
13923
13544
13184
13078
12805
12879
12548
12804
12523
12836
12565
12846
12663
12954
12738
12903
12714
12828
12747
12794
12779
12675
12769
12534
12653
12453
12678
12440
12895
12657
12918
12651
12853
12677
12732
12569
12698
12675
12716
12770
12713
12898
12844
13790
14948
16963
17267
15230
10543
11444
11989
12860
12989
13240
13138
13474
13251
13472
13297
13468
13386
13562
13526
13608
13739
13798
14067
14040
14441
14467
15006
14953
15380
15128
15423
15093
15136
14639
14416
13936
13695
13312
13132
12971
12712
12778
12515
12748
12527
12862
12560
12898
12662
12955
12729
13031
12880
13007
12849
12879
12899
12852
12928
12816
12923
12678
12906
12659
12997
12881
13329
13124
13449
13223
13397
13185
13243
13205
13261
13235
13191
13339
13254
13578
13529
14677
16072
18042
16329
12049
12075
12967
13207
13625
13481
13884
13602
13827
13659
13883
13662
13788
13718
13808
13858
13876
14039
13984
14245
14228
14699
14695
15146
14975
15337
15032
15274
14915
14847
14305
13999
13480
13122
12801
12522
12505
12194
12373
12150
12353
12090
12381
12129
12457
12183
12420
12304
12513
12409
12547
12536
12628
12741
12644
12819
12671
12875
12614
12987
12726
12964
12594
12849
12606
12901
12911
13203
13129
13219
13200
13394
13198
13318
13076
13114
12972
13016
13100
13064
13333
13371
14375
15645
17525
17069
13073
11469
12368
12712
13149
13071
13368
13250
13324
13280
13227
13361
13263
13419
13197
13515
13542
13680
13694
14015
14087
14370
14523
14824
14960
15175
15246
15264
15215
15024
14782
14280
13953
13509
13281
12945
12887
12688
12721
12549
12662
12606
12704
12662
12706
12687
12656
12639
12600
12669
12582
12599
12514
12653
12487
12597
12494
12580
12548
12731
12654
12768
12659
12766
12626
12688
12573
12745
12776
12970
13065
13110
13088
13109
13174
13107
13188
13033
12953
12759
12897
12826
13000
13002
13202
13750
14630
16480
17387
15213
12038
12433
13162
13588
13597
13780
13687
13764
13635
13714
13605
13811
13724
13863
13807
13946
13968
14114
14223
14371
14604
14774
15079
15200
15475
15427
15491
15262
15237
14942
14665
14141
13695
13306
13050
12719
12597
12509
12378
12392
12330
12440
12589
12821
12881
12999
13014
13107
13101
13171
13029
13009
12767
12752
12573
12656
12548
12622
12505
12532
12549
12562
12616
12579
12621
12544
12698
12696
12844
12802
12896
12769
12820
12856
12983
13039
13164
13315
13395
13355
13297
13312
13216
13191
13102
13171
13112
13261
13214
13461
13595
14460
15098
16441
16831
14552
11489
11965
12850
13229
13302
13247
13393
13361
13437
13328
13462
13416
13618
13655
13832
13802
13991
14045
14134
14274
14579
14790
15054
15212
15306
15387
15378
15397
15245
15004
14572
14191
13724
13397
12986
12844
12626
12615
12456
12511
12523
12529
12502
12515
12526
12563
12668
12609
12716
12680
12866
12816
12899
12811
12866
12721
12711
12673
12767
12712
12733
12689
12745
12787
12824
12930
12911
13011
13018
13120
12982
13075
13004
13190
13174
13221
13200
13399
13464
13517
13461
13468
13357
13412
13367
13311
13455
13396
13695
14043
15341
16721
16678
14654
11191
11876
12828
13385
13731
13656
13819
13871
13937
13861
13934
14002
14094
14160
14174
14266
14365
14515
14526
14733
14840
15158
15218
15517
15729
15899
15825
15785
15585
15382
15012
14542
14152
13695
13438
13134
12956
12759
12782
12596
12535
12425
12545
12467
12471
12447
12536
12585
12623
12678
12686
12692
12634
12699
12576
12681
12563
12643
12498
12557
12532
12587
12482
12499
12472
12494
12490
12486
12627
12574
12587
12713
12858
12942
13048
13199
13266
13203
13313
13238
13305
13080
13230
13196
13382
13361
13401
13473
14016
14903
16236
16347
15397
11427
11577
12449
13009
13274
13287
13453
13370
13572
13466
13557
13492
13660
13605
13664
13778
13921
13954
14029
14222
14338
14553
14837
15198
15319
15599
15632
15720
15545
15444
15002
14624
14060
13660
13224
12925
12707
12576
12546
12489
12499
12393
12413
12383
12540
12432
12569
12403
12544
12535
12671
12679
12908
12841
13088
12934
13014
12986
12956
12883
12847
12904
12912
12999
13014
13081
13098
13223
13114
13192
13064
13188
13098
13122
12934
12961
12960
13074
13260
13427
13501
13492
13524
13525
13531
13380
13368
13252
13346
13320
13448
13418
13684
14310
15237
16203
16568
14050
11402
12002
12780
13318
13404
13586
13617
13727
13610
13772
13748
13926
13888
14032
13960
14112
14051
14155
14093
14332
14534
14719
14947
15145
15508
15520
15589
15622
15498
15230
14939
14343
13970
13442
13223
12882
12780
12554
12556
12358
12452
12345
12334
12277
12250
12267
12172
12292
12360
12412
12333
12468
12404
12563
12470
12598
12521
12635
12570
12699
12645
12785
12778
12737
12703
12680
12738
12754
12812
12726
12849
12829
12851
12766
12889
12838
12939
12864
13012
13041
13223
13295
13335
13452
13435
13515
13418
13491
13380
13435
13372
13561
13469
13581
13672
14048
14595
15707
16582
15776
12108
12327
12977
13487
13508
13597
13603
13713
13770
13730
13773
13829
13901
13843
14009
14000
14167
14180
14407
14419
14641
14865
15110
15164
15410
15558
15575
15607
15492
15398
15065
14670
14067
13608
13112
12975
12688
12694
12498
12471
12385
12390
12335
12270
12305
12318
12315
12234
12221
12156
12234
12215
12353
12250
12379
12319
12458
12417
12494
12487
12617
12591
12575
12589
12640
12716
12610
12639
12610
12754
12742
12916
12977
13094
13084
13199
13135
13241
13049
13143
13124
13192
13245
13367
13478
13550
13472
13497
13526
13566
13524
13352
13392
13300
13418
13342
13650
13996
14618
15528
16472
16098
12405
11817
12563
13090
13317
13363
13437
13509
13504
13586
13523
13647
13596
13771
13734
13833
13773
13893
13868
14088
14178
14472
14658
15003
15354
15592
15694
15639
15564
15405
15214
14799
14489
13968
13664
13158
13072
12858
12872
12666
12674
12556
12612
12562
12727
12734
12843
12797
12967
13002
13073
13061
13103
13159
13117
13139
13011
13162
13123
13205
13079
13216
13112
13197
13055
13125
13027
13032
12984
13019
13015
13026
13048
12999
13123
13047
13157
12996
13070
12951
13080
13043
13278
13218
13436
13386
13561
13533
13511
13427
13296
13266
13167
13224
13216
13390
13533
14256
14891
16460
16399
13425
11596
12357
12824
13235
13093
13246
13145
13272
13248
13277
13326
13274
13405
13315
13528
13599
13741
13831
14094
14178
14531
14621
15115
15123
15522
15457
15709
15508
15557
15162
14930
14432
13979
13601
13172
12945
12561
12520
12371
12460
12365
12514
12399
12560
12386
12435
12429
12502
12498
12531
12605
12599
12686
12572
12703
12602
12795
12706
12768
12636
12753
12600
12684
12640
12754
12760
12838
12812
12820
12920
12836
12919
12914
13106
13034
13220
13075
13156
13106
13221
13286
13445
13400
13476
13440
13429
13371
13339
13228
13413
13431
13565
13603
13621
13853
14546
15538
16416
16541
13126
11446
12143
13127
13451
13618
13618
13706
13671
13719
13662
13723
13753
13696
13755
13824
13926
13792
13999
13982
14237
14224
14528
14684
15031
15070
15275
15175
15204
14881
14815
14963
14545
14092
13539
13216
12793
12767
12520
12597
12369
12453
12310
12416
12272
12362
12356
12396
12389
12418
12479
12365
12396
12311
12422
12290
12435
12317
12499
12391
12567
12448
12563
12514
12616
12541
12790
12651
12890
12979
13105
13103
13250
13196
13177
13138
13055
13156
13048
13216
13109
13330
13289
13750
14858
16719
16877
16402
11804
11218
12183
12987
13487
13621
13796
13815
13981
13869
14010
13928
14094
14022
14185
14148
14354
14283
14462
14537
14709
14836
15126
15334
15511
15781
15753
15862
15651
15664
15320
14992
14435
14111
13540
13288
12899
12758
12607
12504
12423
12354
12418
12360
12482
12407
12469
12528
12644
12664
12759
12685
12762
12642
12708
12633
12729
12539
12708
12541
12702
12706
13049
12987
13052
13043
13041
13027
12882
12900
12757
12876
12801
12930
12881
13145
13149
14138
15362
16638
16619
14058
10536
11388
12153
12808
13062
13124
13260
13235
13395
13276
13430
13325
13476
13297
13488
13417
13538
13543
13794
13948
14200
14385
14640
15055
15126
15323
15235
15284
15173
15154
14658
14357
13917
13654
13275
13161
12903
12827
12646
12772
12681
12713
12599
12668
12705
12804
12895
12889
12979
12908
13048
12941
13059
12984
13145
12922
12992
12776
12868
12711
12853
12844
12940
12968
13027
13181
13199
13163
13044
13111
12907
12970
12871
13046
12898
12999
13089
13296
14094
15630
16643
16804
13107
10928
11902
12639
13131
13119
13267
13223
13361
13294
13416
13339
13526
13525
13734
13776
13991
14093
14211
14316
14449
14691
14958
15262
15459
15719
15711
15837
15668
15519
15215
14919
14363
13981
13471
13277
12912
12868
12671
12692
12512
12470
12426
12364
12316
12371
12531
12563
12625
12570
12718
12702
12829
12783
12933
12837
13013
12934
13056
13024
13067
13085
13003
12907
12820
12857
12877
13032
12996
13248
13234
13306
13105
13164
12988
13022
12950
13087
13049
13082
13064
13221
13732
14591
16102
16953
15911
11645
11729
12310
13063
13171
13364
13282
13482
13468
13570
13503
13593
13545
13591
13620
13591
13648
13908
13961
14187
14307
14535
14769
14950
15195
15241
15372
15209
15266
14920
14667
14088
13770
13230
12971
12697
12690
12601
12598
12506
12524
12509
12397
12432
12402
12551
12485
12680
12604
12643
12506
12693
12639
12791
12699
12788
12704
12653
12586
12631
12616
12570
12661
12521
12587
12443
12603
12580
12932
12878
13052
12983
13080
13020
13071
12940
12943
12927
13008
13079
13033
13173
13192
13447
14081
15144
16448
17237
14669
11853
12517
13309
13422
13698
13609
13739
13702
13801
13794
13990
13990
14102
14261
14331
14451
14485
14630
14592
14874
14968
15341
15464
15848
15801
16016
15867
15908
15696
15470
15061
14673
14278
13878
13647
13318
13210
13008
13058
12882
13001
12823
12886
12761
12858
12718
12825
12759
12769
12716
12724
12753
12742
12820
12749
12757
12678
12849
12786
12927
12775
12983
12818
12996
12889
12991
12891
12920
12903
13003
12979
12990
12991
12979
13079
13249
13273
13331
13398
13458
13536
13394
13501
13272
13372
13239
13381
13172
13337
13315
13928
14413
15969
16991
16240
12183
11775
12431
12845
12972
12815
12964
12814
13028
12911
13203
13155
13413
13342
13623
13523
13730
13723
13892
13898
14035
14260
14357
14647
14577
14821
14650
14854
14632
14786
14375
14285
13862
13743
13316
13184
12981
12938
12882
12788
12828
12718
12809
12652
12782
12573
12780
12624
12885
12735
12928
12822
13051
12895
13112
12912
13077
12904
13056
12919
13078
12993
13044
13000
12998
13063
13011
13086
12990
13214
13034
13252
13073
13279
12964
13151
13046
13216
13267
13483
13454
13507
13479
13464
13482
13348
13400
13159
13315
13155
13380
13233
13614
13569
14438
15219
17111
17529
14766
12064
12432
13012
13309
13450
13388
13531
13390
13596
13449
13714
13576
13842
13684
13912
13773
13967
13929
14137
14183
14309
14520
14738
15050
15150
15317
15428
15356
15264
15106
14622
14290
13666
13486
12974
12925
12490
12504
12245
12370
12194
12329
12229
12315
12261
12322
12367
12390
12445
12386
12548
12389
12606
12435
12620
12380
12588
12440
12579
12423
12612
12520
12617
12607
12682
12708
12675
12776
12676
12837
12681
12896
12714
12920
12762
13020
12858
13058
12893
13035
13018
13174
13310
13458
13531
13547
13691
13622
13698
13441
13631
13335
13518
13328
13516
13309
13618
13648
14565
15443
17238
17133
13700
11762
12389
12847
13078
13073
13172
13238
13217
13309
13238
13476
13333
13524
13381
13621
13484
13779
13663
13972
13975
14303
14443
14819
15066
15319
15505
15531
15663
15514
15483
14986
14742
14092
13866
13355
13293
12951
12969
12758
12850
12788
12864
12811
12817
12859
12772
12935
12863
13027
12798
12992
12752
12979
12799
13044
12848
12913
12768
12845
12733
12756
12772
12731
12803
12742
12914
12824
13081
13075
13132
13042
13174
13027
13148
12993
13187
12945
13135
12874
13042
12873
13084
13178
13392
13381
13466
13531
13528
13555
13448
13485
13277
13362
13190
13430
13324
13702
14161
15082
16441
17331
15515
11537
11849
12583
13149
13337
13417
13325
13455
13349
13495
13303
13544
13398
13691
13584
13847
13752
13926
13938
14121
14257
14532
14832
15016
15254
15351
15595
15400
15491
15234
15154
14593
14380
13781
13572
13149
13014
12738
12745
12580
12726
12637
12771
12624
12702
12658
12717
12761
12746
12802
12686
12879
12828
13083
12991
13107
13014
13187
13015
13277
13266
13371
13220
13260
13181
13208
13216
13255
13363
13268
13382
13226
13420
13312
13726
13732
13923
13863
13954
13836
13864
13732
13499
13343
13217
13172
13154
13244
13168
13491
14434
15872
16146
15607
11996
10407
11403
12457
12931
12999
13004
13104
13246
13198
13323
13317
13552
13541
13727
13700
13901
13780
14123
16721
17103
17182
17145
17053
16812
16658
16278
15959
15262
14694
14007
13617
13107
12867
12540
12441
12176
12156
12059
12064
12009
11984
12110
12045
12140
12053
12118
11999
12106
12060
12227
12045
12186
12099
12092
12062
12222
12140
12123
12149
12079
12092
12061
12140
12246
12519
12516
12759
12736
12910
12877
12999
12867
12940
12924
13087
13146
13157
13262
13361
13821
14829
16439
16735
16114
11668
11531
12227
13068
13236
13458
13465
13791
13737
13899
13811
13928
13797
13952
13816
14019
14034
14131
14218
14348
14565
14819
15124
15194
15510
15501
15687
15473
15591
15186
14962
14375
14118
13585
13317
13088
13021
12969
12989
12974
12880
12981
12858
13029
12891
13099
12977
13171
13121
13328
13129
13266
13114
13226
13158
13201
13165
13097
13098
12932
13221
13071
13106
12849
13023
12798
13133
13065
13464
13319
13650
13340
13571
13261
13387
13132
13246
13285
13385
13448
13697
13579
14517
15691
17512
18083
15489
12284
12409
13294
13301
13607
13285
13727
13315
13710
13300
13733
13365
13834
13575
13841
13657
13861
13779
13931
14179
14251
14550
14533
15038
14916
15337
15025
15405
14959
15079
14307
14194
13580
13487
12944
12823
12551
12473
12417
12252
12335
12106
12368
12078
12354
12065
12417
12162
12484
12308
12503
12433
12521
12531
12577
12635
12525
12695
12568
12668
12644
12789
12721
12897
12966
13044
13063
13208
13071
13036
12827
12789
12792
13026
13117
13161
13204
13351
13607
14299
15759
17247
17725
14222
11993
12265
12976
13164
13274
13289
13488
13468
13439
13466
13525
13564
13493
13621
13617
13749
13688
13885
13916
14157
14217
14470
14566
14836
14950
15088
15025
14943
14825
14548
14256
13796
13473
12971
12822
12568
12556
12371
12388
12330
12422
12400
12428
12425
12478
12550
12532
12580
12563
12655
12656
12727
12685
12805
12706
12809
12803
12851
12732
12809
12727
12924
12896
13042
13058
13261
13258
13307
13175
13079
12997
13033
13122
13158
13243
13221
13508
13733
14519
15898
17617
17236
13189
12122
12906
13355
13597
13639
13678
13623
13668
13759
13754
13860
13840
14014
13987
14189
14086
14238
14233
14406
14482
14759
14893
15107
15265
15421
15458
15374
15362
15075
14779
14285
13888
13271
13019
12636
12502
12290
12380
12234
12323
12238
12333
12358
12517
12514
12654
12645
12710
12571
12672
12623
12692
12744
12756
12855
12802
12734
12630
12778
12650
12826
12861
13092
13051
13304
13202
13254
13133
13090
13053
13067
12949
12921
13010
12925
13063
13151
14022
14846
16399
16644
13733
11050
11896
12612
13142
13164
13374
13337
13362
13433
13485
13598
13605
13750
13728
13822
13815
14062
13900
14180
14188
14450
14545
14831
14923
15188
15153
15153
15095
15031
14877
14456
14144
13617
13376
12957
12868
12566
12739
12564
12654
12617
12704
12482
12601
12418
12579
12373
12548
12357
12502
12446
12524
12494
12564
12561
12572
12620
12521
12640
12500
12695
12654
12972
12976
13273
13159
13408
13228
13367
13122
13153
12941
12965
12931
13028
13145
13065
13328
13351
14185
14938
16547
17144
15443
11626
12122
12922
13556
13607
13688
13683
13669
13806
13715
13927
13884
14034
13990
14166
14100
14223
14192
14360
14425
14551
14708
14890
15092
15181
15278
15272
15237
15097
14855
14478
14109
13595
13246
12837
12702
12462
12445
12349
12420
12356
12457
12464
12559
12581
12679
12610
12647
12746
12729
12772
12687
12769
12707
12779
12654
12749
12680
12783
12586
12561
12637
12771
12872
13010
13029
13036
13061
13006
13036
12908
12851
12764
12859
12786
12928
12955
13269
13322
13817
14551
16070
17318
16757
12336
11699
12598
13288
13527
13491
13601
13512
13671
13547
13605
13520
13632
13496
13587
13586
13761
13765
14006
13903
14111
14360
14573
14741
14973
15024
15086
15108
14977
14861
14489
14234
13773
13480
13047
12949
12599
12575
12451
12477
12423
12407
12506
12573
12607
12697
12713
12647
12738
12682
12799
12696
12843
12668
12691
12530
12625
12501
12517
12502
12593
12593
12707
12788
12775
12905
12895
12968
12850
12914
12763
12907
12853
13053
12962
13066
13117
13340
14200
15683
16973
17099
13624
10543
11469
12266
13069
13240
13409
13568
13626
13627
13710
13629
13712
13697
13898
13824
14073
14030
14197
14255
14427
14543
14884
15057
15299
15345
15345
15333
15233
15114
14826
14586
14087
13814
13398
13223
12965
12913
12621
12634
12580
12618
12492
12507
12572
12608
12732
12674
12775
12799
12961
12849
12978
12875
12874
12737
12801
12675
12733
12834
12967
13067
13130
13093
13017
13055
12921
12936
12882
13019
12903
13071
13026
13323
13487
14849
16659
17277
16684
10938
11361
12398
12972
13315
13320
13463
13470
13472
13497
13517
13555
13563
13689
13697
13890
13906
14122
14122
14395
14519
14830
14917
15248
15340
15451
15391
15271
15188
15037
14744
14271
13972
13567
13375
13034
12957
12707
12695
12464
12506
12454
12527
12484
12686
12615
12525
12543
12576
12611
12476
12518
12456
12509
12307
12389
12305
12518
12484
12677
12716
12775
12667
12659
12633
12511
12461
12441
12502
12486
12608
12570
12775
13116
14110
15533
16779
16662
12244
11016
11957
12549
13012
13079
13211
13164
13262
13245
13333
13330
13368
13419
13349
13444
13419
13559
13562
13807
13883
14176
14278
14619
14725
14963
14892
14938
14807
14690
14374
14026
13683
13329
13057
12836
12794
12619
12672
12513
12614
12527
12654
12626
12754
12632
12670
12648
12735
12725
12707
12751
12744
12772
12684
12752
12733
12922
12881
13088
13140
13308
13210
13259
13121
13122
12956
12901
12875
13030
12970
13002
12984
13184
13404
14075
15453
17166
17111
12734
11736
12281
13054
13154
13338
13261
13394
13329
13433
13377
13546
13588
13657
13714
13833
13937
14024
14231
14327
14589
14719
15049
15148
15395
15287
15441
15337
15375
15179
14956
14499
14143
13792
13492
13265
13049
12984
12841
12907
12765
12808
12684
12817
12725
12851
12755
12841
12804
12865
12841
12866
12887
12883
12898
12796
12745
12658
12835
12774
12989
13133
13272
13247
13361
13209
13249
13048
13053
12998
13101
13049
13244
13209
13346
13416
14007
14833
16571
17494
15140
11783
11927
12709
12995
13226
13194
13329
13223
13357
13299
13352
13314
13437
13445
13502
13566
13615
13719
13798
14046
14213
14554
14662
14980
15000
15120
15026
15070
14858
14683
14271
13954
13575
13235
13001
12825
12740
12714
12761
12665
12764
12716
12855
12732
12826
12764
12851
12711
12742
12668
12763
12754
12791
12875
12862
12883
13000
13018
13004
12923
12973
13023
13164
13378
13307
13397
13335
13428
13275
13348
13158
13212
13136
13272
13161
13214
13188
13376
13840
14560
16001
17236
16580
12369
12007
12633
13311
13345
13506
13450
13588
13514
13615
13584
13701
13727
13750
13741
13918
13994
14091
14278
14407
14636
14726
15029
15137
15403
15407
15556
15485
15456
15204
14954
14541
14178
13834
13524
13233
13069
13032
12837
12801
12608
12662
12478
12496
12369
12541
12524
12637
12513
12581
12526
12615
12515
12578
12544
12660
12607
12605
12609
12588
12615
12660
12866
13000
13078
13044
13177
13083
13189
13041
13021
12824
12894
12806
12968
13076
13120
13173
13367
14174
15189
16622
16722
13187
11293
12069
12681
13099
13081
13242
13220
13340
13266
13363
13319
13454
13501
13592
13672
13744
13858
13907
14155
14200
14517
14587
14910
14918
15149
15055
15108
14983
14964
14625
14316
13920
13577
13323
13166
12995
12945
12875
12900
12866
12823
12850
12793
12888
12774
12918
12760
12814
12655
12813
12716
12808
12730
12824
12751
12781
12726
12687
12610
12621
12709
12773
13073
13005
13110
12952
13052
12893
12883
12806
12829
12668
12801
12829
12927
12950
13078
13339
14122
15348
16682
16916
13058
11345
11982
12812
12960
13063
12982
13053
13052
13227
13216
13335
13411
13465
13567
13630
13764
13722
13942
13877
14094
14188
14479
14551
14827
14871
15042
14938
15021
14759
14615
14126
13943
13483
13227
12847
12743
12556
12497
12427
12469
12488
12443
12549
12514
12604
12500
12638
12522
12683
12530
12700
12625
12801
12709
12785
12707
12794
12690
12786
12864
12930
13214
13148
13281
13169
13348
13203
13252
12971
13058
12951
13083
12985
13060
13046
13190
13502
14231
15529
16699
16451
12097
11432
12247
13113
13303
13487
13411
13511
13467
13473
13368
13408
13504
13523
13618
13623
13736
13869
13971
14145
14323
14522
14808
14929
15145
15070
15175
15033
15044
14696
14528
14058
13742
13361
13114
12834
12791
12786
12733
12720
12650
12738
12676
12821
12754
12964
12894
13017
12955
13081
12948
13005
12976
13010
12907
12828
12773
12711
12762
12712
12845
12944
13190
13142
13367
13265
13245
13086
13076
12894
12930
12886
12949
12962
12985
13116
13352
14508
15894
16861
16681
12246
10852
11883
12662
13192
13165
13340
13417
13642
13565
13718
13653
13750
13618
13696
13651
13767
13878
14044
14198
14296
14516
14657
14972
15002
15155
15057
15036
14851
14811
14495
14312
13902
13569
13218
13000
12868
12815
12712
12644
12685
12620
12775
12759
12892
12831
12983
12894
13000
12925
13055
13033
13097
12944
12904
12875
12868
12910
12946
13081
13102
13236
13149
13217
13062
13091
12893
12981
12802
12887
12925
13058
13201
13500
14793
16577
17155
16453
11641
10774
11965
12680
13272
13387
13584
13498
13585
13525
13589
13459
13625
13558
13726
13726
13859
13868
13997
14092
14320
14501
14734
15030
15158
15271
15197
15175
14924
14764
14317
14011
13488
13323
13000
12845
12672
12665
12558
12543
12540
12550
12648
12665
12761
12734
12824
12701
12795
12634
12649
12549
12608
12418
12443
12307
12423
12340
12503
12572
12723
12879
12916
12922
12854
12920
12790
12879
12803
12974
12872
13035
12891
13205
13734
14880
16277
17254
13187
11429
12014
12947
13171
13404
13377
13528
13479
13596
13578
13661
13754
13679
13751
13696
13912
13864
14109
14098
14472
14414
14799
14784
15147
15047
15219
15140
15126
14888
14620
14271
13788
13540
13138
13025
12689
12822
12550
12716
12513
12734
12571
12738
12565
12739
12640
12684
12645
12669
12673
12638
12829
12723
12837
12554
12790
12541
12803
12722
13084
12892
13154
12977
13143
12936
13001
12860
12894
12934
12856
12936
13007
13167
13721
14321
15878
17374
15989
11987
11714
12644
12895
13222
13046
13300
13072
13348
13172
13412
13283
13443
13422
13512
13594
13663
13851
13851
14175
14213
14679
14715
15190
15061
15386
15189
15439
15116
15094
14630
14389
13929
13574
13219
12937
12920
12717
12866
12650
12899
12645
12914
12657
12926
12645
12843
12561
12788
12658
12760
12729
12796
12825
12738
12734
12527
12741
12516
12822
12711
13052
12838
13166
12946
13180
12902
13180
12892
13201
12996
13281
13038
13340
13385
14111
14822
16596
17239
14482
11766
12050
12941
13040
13263
13007
13334
13117
13453
13227
13507
13329
13532
13380
13492
13457
13573
13650
13748
13990
13954
14381
14376
14758
14620
14974
14761
15034
14694
14744
14144
13934
13414
13247
12957
12841
12774
12663
12756
12629
12885
12729
13023
12719
12982
12687
12950
12640
12860
12704
12946
12741
12819
12780
12829
12863
12768
12825
12632
12768
12842
13037
13067
13209
13036
13188
12956
13182
12875
13148
12854
13172
12925
13211
13013
13415
13473
14256
15032
16597
16968
13773
11631
12097
12979
13034
13408
13181
13457
13185
13539
13307
13540
13360
13564
13443
13658
13654
13698
13791
13873
14133
14102
14534
14520
14957
14779
15128
14873
15100
14701
14770
14221
14029
13540
13348
13072
12955
12870
12698
12790
12641
12840
12628
12943
12674
12979
12640
12873
12576
12814
12614
12860
12671
12968
12695
12957
12690
12847
12689
12738
12675
12712
12957
13016
13137
12946
13106
12824
13090
12713
12964
12608
12922
12622
12913
12687
12988
13110
13831
14420
15873
16820
15284
11547
11511
12583
12909
13265
12973
13298
13048
13405
13216
13446
13252
13448
13352
13544
13610
13725
13850
13911
14280
14295
14678
14598
15030
14919
15270
14950
15129
14750
14807
14303
14098
13593
13366
13023
12816
12740
12528
12629
12522
12714
12566
12719
12714
12900
12751
12973
12725
13007
12757
13020
12723
12966
12749
12967
12832
12961
12813
12841
12796
12856
12961
13100
13433
13272
13506
13291
13556
13256
13459
13167
13307
13067
13259
13103
13275
13296
13442
14468
15641
16839
16901
13438
10672
11802
12535
13285
13155
13536
13458
13679
13561
13736
13641
13748
13661
13695
13810
13848
13977
13928
14195
14116
14435
14422
14927
14872
15246
15054
15255
14969
15017
14668
14457
13999
13633
13141
13111
12815
12826
12624
12659
12588
12532
12546
12409
12581
12379
12585
12381
12625
12359
12607
12410
12702
12450
12702
12577
12696
12507
12578
12576
12566
12754
12762
13014
12857
13055
12837
13109
12752
12963
12726
12975
12797
13037
12949
13235
13380
14221
15554
16728
16521
11981
11264
11945
12961
13011
13356
13146
13440
13192
13441
13216
13478
13332
13448
13348
13485
13577
13607
13930
13926
14302
14273
14755
14684
15210
15214
15421
15145
15256
14760
14657
14027
13809
13057
12995
12470
12451
12164
12233
12097
12122
12126
12082
12253
12155
12493
12319
12557
12251
12573
12336
12575
12312
12595
12388
12638
12501
12574
12494
12551
12598
12614
12833
12799
13065
12862
13140
12903
13136
12809
12970
12766
13010
12837
13082
13172
13336
14188
15247
16590
17134
14331
11188
12069
12735
13484
13362
13666
13489
13713
13535
13702
13613
13795
13794
13879
13891
13902
13894
14244
14313
14562
14724
14893
15118
15206
15406
15284
15484
15218
15259
14855
14713
14123
13840
13334
13251
12967
12871
12716
12703
12676
12584
12651
12569
12648
12519
12759
12679
12774
12629
12800
12699
12723
12576
12608
12593
12652
12637
12704
12860
12837
12964
12893
12994
12819
12821
12673
12859
12790
12899
12863
13023
13155
13478
14729
16491
16978
16336
11609
10738
11920
12648
13284
13297
13466
13435
13621
13565
13758
13826
13981
13940
14169
14128
14250
14243
14362
14517
14837
15040
15229
15492
15629
15773
15739
15806
15547
15445
15009
14732
14189
13870
13468
13325
13002
12941
12714
12643
12626
12586
12668
12572
12630
12604
12653
12543
12636
12499
12662
12566
12680
12590
12612
12423
12520
12457
12512
12605
12710
12801
12892
12971
12834
12902
12747
12798
12669
12842
12769
12930
12867
13108
13198
14324
15802
16670
16543
12477
10555
11553
12467
12900
13153
13313
13502
13539
13672
13597
13725
13632
13884
13842
13991
13942
14137
14110
14341
14447
14687
14901
15140
15444
15514
15605
15520
15512
15206
15005
14491
14156
13699
13532
13144
13068
12738
12685
12572
12539
12445
12450
12426
12438
12469
12436
12630
12565
12674
12612
12792
12735
12818
12724
12760
12651
12746
12747
12835
12922
12975
13063
13056
13123
13089
13106
13017
13088
12963
13069
13041
13197
13165
13372
13980
15272
16687
17107
13233
11232
12059
12850
13133
13237
13302
13434
13451
13405
13453
13348
13454
13387
13501
13454
13679
13562
13837
13840
14172
14216
14516
14674
14922
15086
15200
15219
15162
15147
14771
14468
13914
13663
13182
13010
12676
12640
12444
12502
12310
12327
12311
12381
12430
12477
12453
12529
12625
12560
12735
12683
12816
12743
12855
12752
12908
12805
12877
12752
12913
12889
12863
12956
13112
13160
13190
13272
13133
13213
13083
13098
12951
13109
13128
13283
13207
13453
13740
14705
16079
17022
16600
12453
11539
12289
12865
13119
13160
13263
13330
13310
13433
13352
13442
13349
13473
13385
13630
13623
13838
13824
14040
14145
14480
14624
14975
15145
15301
15367
15292
15250
15013
14738
14179
13914
13392
13249
12878
12888
12598
12647
12495
12621
12426
12554
12441
12498
12459
12481
12498
12520
12635
12544
12718
12603
12796
12597
12802
12626
12870
12646
12798
12590
12742
12582
12719
12577
12885
12752
12970
12807
12948
12883
12895
12866
12916
12982
12843
12989
12965
13267
13174
13449
13241
13433
13169
13398
13221
13378
13146
13199
13103
13218
13218
13292
13704
14077
14485
16331
17608
16041
12979
12584
13273
13236
13469
13250
13498
13377
13488
13414
13490
13494
13472
13650
13659
13878
13751
13992
13839
14198
14095
14487
14436
15060
15052
15409
15373
15559
15452
15390
15113
14677
14322
13827
13664
13195
13209
12789
14252
14387
13964
13918
13522
13396
13141
12958
12816
12645
12714
12468
12676
12404
12700
12332
12650
12269
12554
12294
12566
12287
12489
12334
12493
12488
12531
12601
12552
12785
12562
12721
12347
12701
12463
12918
12670
13059
12755
13023
12844
13027
12959
13095
12994
12995
13085
13015
13209
13174
13889
13579
15199
16638
16772
13129
12420
12741
13333
13223
13444
13404
13506
13550
13564
13730
13610
13788
13620
13921
13743
14081
13848
14324
14357
14748
14659
15113
15044
15500
15390
15679
15444
15732
15396
15292
14805
14452
14002
13636
13488
13222
13243
12919
13151
12851
13055
12782
13073
12777
13042
12778
13009
12821
13003
12866
12953
12966
12930
13054
12961
13190
13015
13327
13145
13495
13223
13606
13384
13724
13559
13845
13662
13838
13763
13874
13917
13897
14000
13887
14129
13934
14228
13910
14166
13885
14134
13745
13951
13750
14006
13998
14122
14104
14123
14124
14173
13978
14033
13837
13822
13806
13729
13852
13895
14432
14460
15611
16961
17320
13760
12538
12795
13437
13351
13514
13335
13422
13335
13395
13396
13281
13373
13169
13312
13179
13429
13295
13605
13380
13704
13721
14127
14162
14489
14521
14691
14697
14577
14595
14337
14172
13617
13364
12760
12613
12145
12148
11867
11961
11834
11984
11950
11990
11914
11895
11885
11756
11858
11704
11832
11638
11732
11570
11677
11526
11717
11629
11771
11707
11909
11803
11866
11765
11877
11816
11833
11834
11842
11829
11806
11848
11698
11766
11577
11701
11598
11882
11821
11985
11884
11952
11842
11901
11689
11583
11500
11477
11562
11549
11730
11877
12436
13402
15061
14991
14191
9699
9690
10642
11612
12035
12301
12407
12596
12750
12792
12877
12953
13080
13086
13280
13303
13506
13509
13791
13794
14108
14248
14597
14677
15020
15216
15369
15353
15333
15370
15124
14895
14507
14266
13775
13550
13192
13171
12909
12847
12623
12745
12554
12707
12617
12819
12781
13001
12968
13115
13108
13209
13252
13262
13388
13364
13413
13284
13351
13113
13235
13002
13098
12992
13204
13200
13410
13350
13479
13498
13584
13591
13457
13483
13498
13609
13473
13619
13507
13803
13822
15085
16577
17175
16675
13070
11096
12130
12953
13475
13545
13576
13791
13741
13793
13698
13887
13768
13882
13781
14042
13999
14086
14113
14325
14391
14576
14820
15040
15351
15691
15741
15823
15705
15622
15372
14884
14509
14012
13768
13289
13145
12840
12801
12459
12559
12448
12499
12414
12507
12543
12621
12634
12722
12776
12692
12794
12777
12867
12800
12932
12722
12712
12523
12654
12580
12799
12840
12950
12938
13064
13070
13095
13127
12974
12980
12888
13015
12898
13104
13036
13361
14164
15682
16656
16809
13846
10758
11501
12350
12910
13003
13145
13274
13356
13312
13514
13410
13536
13445
13666
13636
13907
13914
14156
14150
14478
14553
14821
14922
15273
15385
15547
15497
15521
15349
15052
14696
14217
13880
13453
13328
13024
13059
12807
12870
12671
12725
12665
12770
12676
12727
12676
12803
12836
12850
12965
13016
13160
13104
13232
13030
13221
13077
13197
12954
13006
12802
12865
12782
12976
12915
13068
13084
13061
13029
12892
12942
12841
13001
12916
13090
12972
13234
13182
13833
14323
16056
17252
16536
12197
11778
12341
12904
13085
13303
13346
13503
13439
13469
13452
13419
13519
13477
13625
13522
13696
13598
13900
13763
14119
14126
14538
14590
15001
15005
15122
15051
15008
14839
14504
14112
13562
13276
12762
12704
12409
12588
12313
12463
12300
12475
12227
12386
12235
12330
12248
12332
12328
12380
12491
12441
12638
12497
12768
12595
12852
12625
12918
12733
13025
12805
13029
12886
13022
12970
13002
13013
12951
12947
12865
13083
13062
13401
13286
13534
13313
13585
13416
13625
13341
13579
13330
13552
13272
13569
13649
14376
14477
16408
17298
16106
12695
12496
13152
13285
13508
13431
13687
13523
13798
13583
13900
13677
13893
13727
13947
13832
14060
14048
14144
14245
14365
14634
14747
15137
15181
15543
15402
15661
15364
15474
14885
14738
14083
13879
13305
13256
12977
12960
12888
12796
12819
12681
12812
12570
12738
12506
12709
12417
12669
12405
12626
12388
12640
12499
12667
12603
12742
12785
12785
12809
13029
12914
12923
12943
12939
13059
12936
13113
12957
13144
12842
13089
12787
13094
12846
13095
12771
13011
12908
13105
13146
13231
13282
13265
13313
13137
13356
13066
13268
12918
13141
12831
13156
12988
13517
13776
14010
15128
16576
16123
12799
12163
12714
13312
13246
13445
13235
13513
13247
13557
13382
13675
13438
13709
13478
13725
13699
13887
13907
14130
14306
14433
14776
14844
15237
15166
15440
15229
15517
15139
15218
14695
14417
13811
13737
13255
13346
12967
13178
12856
13017
12818
12878
12772
12781
12714
12688
12755
12628
12739
12502
12797
12494
12723
12508
12775
12528
12749
12570
12791
12638
12799
12699
12774
12839
12761
12945
12838
13058
12857
13141
12972
13240
12981
13240
13004
13288
13080
13238
13067
13048
13078
13140
13317
13350
13572
13443
13709
13571
13874
13554
13788
13364
13636
13314
13548
13350
13644
13836
14310
14812
16229
16434
13518
11979
12371
13279
13528
13640
13559
13685
13540
13764
13491
13808
13563
13923
13686
14065
13827
14109
14001
14294
14242
14547
14689
14878
15113
15247
15498
15307
15480
15111
15194
14572
14403
13702
13602
13071
13065
12656
12704
12499
12562
12545
12606
12677
12549
12679
12539
12804
12535
12784
12551
12881
12637
12905
12676
12925
12784
12909
12777
12836
12798
12823
12965
12882
13053
12867
13153
12936
13212
12949
13276
13010
13215
12964
13162
12949
13259
13057
13433
13163
13294
13092
13301
13376
13594
13525
13591
13656
13571
13707
13451
13581
13223
13441
13181
13485
13273
13714
13803
14573
15096
16181
15868
12776
11447
12132
12874
13011
13226
13062
13307
13114
13466
13227
13499
13212
13509
13365
13690
13563
13923
13922
14094
14213
14388
14708
14749
15150
15202
15571
15390
15636
15282
15399
14933
14855
14151
13986
13453
13326
13018
12923
12813
12719
12727
12532
12692
12424
12622
12562
12703
12572
12725
12519
12727
12431
12702
12438
12740
12450
12733
12427
12669
12479
12729
12640
12788
12790
12842
12961
12847
13046
12888
13154
12905
13178
12907
13323
13007
13231
13005
13252
12984
13149
12946
12977
12987
13096
13404
13323
13550
13394
13699
13444
13656
13291
13532
13172
13487
13320
13578
13413
13814
14486
15063
16076
16117
14281
11427
12189
12824
13548
13350
13680
13459
13726
13536
13704
13550
13964
13936
14025
13989
14321
14218
14371
14414
14607
14794
14938
15205
15295
15543
15465
15617
15412
15499
15238
15070
14582
14291
13843
13451
13039
13052
12908
12768
12664
12518
12553
12490
12779
12623
12738
12623
12778
12607
12742
12641
12813
12742
12748
12671
12668
12645
12655
12765
12714
12790
12618
12713
12587
12734
12580
12724
12590
12847
12835
12943
12956
13018
13015
13053
13197
13257
13474
13454
13542
13410
13515
13314
13368
13149
13118
12979
13005
13009
13312
13285
13568
14531
16157
16635
15961
12034
10195
11330
12188
12870
13059
13290
13326
13561
13472
13630
13560
13676
13614
13792
13786
14004
14039
14188
14295
14436
14631
14843
15101
15261
15588
15586
15715
15510
15451
15124
14963
14454
14101
13609
13332
13013
12772
12598
12426
12336
12192
12294
12283
12373
12319
12468
12318
12417
12330
12387
12326
12432
12332
12365
12377
12437
12451
12431
12447
12381
12488
12452
12598
12581
12652
12574
12649
12651
12775
12660
12759
12560
12695
12517
12611
12580
12747
12758
12865
13096
13187
13188
13179
13227
13137
13122
13002
13125
13048
13226
13153
13450
13887
14732
16045
16782
15527
11646
11754
12691
13383
13545
13673
13646
13794
13796
13976
13875
13975
13841
13996
13937
14146
14216
14400
14418
14559
14628
14781
15011
15279
15600
15609
15750
15701
15762
15528
15487
15099
14840
14265
13947
13490
13270
13050
12924
12779
12922
12769
12837
12809
12865
12917
12970
12969
12902
12989
12966
13069
13027
13108
12987
13125
12987
13075
12976
13060
13001
13084
12984
13018
13013
13050
13101
13073
13137
13059
13148
12980
13022
12836
13011
12937
13152
13126
13250
13209
13228
13215
13233
13184
13064
12930
12834
12862
12787
12929
12891
13149
13801
14707
15956
16302
13765
10988
11544
12494
13022
13163
13251
13358
13451
13395
13572
13537
13631
13553
13736
13674
13899
13968
14185
14209
14460
14491
14799
14902
15198
15284
15474
15436
15419
15322
15163
14862
14463
14116
13681
13459
13083
12925
12692
12764
12535
12641
12520
12570
12469
12489
12396
12431
12432
12449
12482
12484
12567
12526
12651
12581
12689
12550
12604
12425
12534
12467
12621
12562
12648
12634
12659
12700
12724
12781
12746
12795
12660
12680
12678
12873
12905
13149
13137
13342
13235
13328
13218
13252
13167
13123
13117
13160
13232
13237
13422
13693
14525
15607
16634
16341
12729
11095
12057
12806
13261
13211
13441
13371
13548
13489
13670
13623
13739
13714
13835
13891
13906
14000
14061
14174
14184
14447
14566
14859
14940
15330
15258
15366
15235
15179
14882
14695
14330
14024
13597
13365
13093
12850
12778
12626
12589
12471
12545
12515
12654
12632
12797
12682
12808
12706
12830
12810
12777
12806
12887
12849
12805
12826
12833
13165
13136
13180
13142
13236
13103
13220
13131
13381
13361
13531
13515
13722
13720
13927
13779
13819
13713
13636
13433
13482
13540
13519
13555
13537
13775
14009
15415
16955
16896
15529
11149
10920
12098
12903
13407
13415
13583
13657
13658
13677
13722
13796
13792
13972
13972
14092
13979
14157
14137
14354
14363
14591
14654
14931
15172
15320
15322
15288
15247
15107
14920
14550
14198
13705
13414
12973
12873
12584
12558
12281
12321
12258
12331
12331
12287
12325
12458
12557
12502
12598
12613
12670
12695
12706
12644
12638
12579
12635
12553
12608
12407
12510
12440
12526
12501
12764
12861
13075
13083
13165
13250
13278
13247
13152
13178
13122
13203
13054
13216
13245
13509
14457
16214
16873
16598
12242
10743
11850
12751
13277
13396
13535
13610
13744
13659
13800
13677
13880
13780
13944
13832
14063
14050
14216
14239
14481
14651
14865
15074
15327
15595
15690
15778
15641
15602
15277
15049
14522
14151
13616
13372
12953
12880
12594
12630
12442
12510
12404
12502
12413
12544
12545
12579
12630
12634
12675
12616
12661
12600
12684
12569
12703
12539
12666
12544
12680
12554
12573
12472
12438
12503
12620
12772
12815
12951
12858
12880
12829
12843
12674
12680
12543
12697
12614
12753
12765
12961
13458
14317
15959
16804
15393
11277
11467
12206
12925
13041
13263
13226
13430
13307
13411
13457
13567
13518
13572
13635
13788
13842
13927
14098
14161
14426
14636
14971
15096
15456
15621
15692
15530
15511
15144
14971
14423
14083
13656
13434
13073
13002
12804
12770
12634
12561
12593
12611
12632
12663
12818
12740
12883
12772
12834
12756
12808
12799
13028
12865
12984
12965
13015
13013
12972
12958
12945
12957
12955
13087
13009
13039
12700
12858
12672
12990
12984
13476
13267
13499
13321
13553
13344
13377
13288
13272
13204
13130
13159
13048
13153
13221
13954
14187
15745
16700
16232
12216
11845
12367
13178
13261
13570
13464
13576
13530
13815
13667
13842
13920
13924
13758
13805
13886
13918
14022
13915
14212
14235
14778
14739
15265
15089
15417
15177
15330
14905
14852
14302
14018
13544
13266
12988
12765
12787
12540
12671
12465
12740
12458
12788
12428
12684
12383
12666
12427
12595
12415
12551
12496
12499
12550
12436
12592
12424
12705
12410
12739
12442
12729
12454
12758
12434
12792
12544
12785
12554
12762
12686
12966
13020
13029
13170
13002
13251
12954
13023
13101
13155
13038
13163
12980
13398
13148
13868
14064
15381
16281
16734
13074
11620
11947
13172
13287
13496
13458
13477
13515
13400
13647
13439
13797
13418
13792
13336
13902
13570
14065
13708
14225
14206
14643
14712
15024
15187
15208
15363
15171
15353
14863
14826
14024
13958
13178
13263
12763
12889
12482
12627
12474
12554
12563
12598
12730
12583
12818
12683
13012
12678
13027
12755
13070
12742
13012
12773
13007
12822
12928
12827
13019
12752
13052
12805
13049
12954
13029
12928
12909
13023
12957
13290
13148
13383
13125
13465
13153
13500
13138
13380
12990
13246
13040
13271
13213
13418
13562
14145
15340
16641
16865
15027
11067
11141
12328
12818
13419
13201
13619
13413
13642
13419
13569
13453
13517
13540
13531
13745
13666
13937
13784
14204
14090
14625
14538
15082
14999
15474
15300
15564
15332
15335
15001
14753
14404
13973
13749
13312
13321
12913
13085
12650
12902
12753
12936
12686
12957
12705
13003
12650
12991
12729
13045
12775
12947
12647
12798
12654
12673
12678
12663
12801
12648
12907
12704
12953
12602
12995
12684
12945
12489
12833
12618
12946
12896
13173
13086
13256
13278
13279
13403
13273
13361
13082
13453
13080
13508
13106
13736
13553
14817
15411
16815
16356
13723
11101
12078
12801
13250
13316
13334
13781
13577
13946
13621
13993
13635
13843
14022
14102
14024
14134
14113
14226
14499
14618
14775
15129
15279
15503
15660
15618
15709
15582
15301
14779
14455
13858
13580
13188
13057
12962
13073
12877
12920
12851
12943
12929
12928
12967
12921
12907
12915
12818
12537
12556
12351
12325
12212
12443
12209
12287
12294
12364
12339
12364
12307
12324
12431
12324
12423
12376
12531
12316
12446
12362
12554
12681
12924
12906
13014
13030
13063
12880
12839
12833
12681
12710
12678
12712
12700
13186
13211
14151
14885
16312
16417
14022
11132
12099
12684
13083
13019
13174
13123
13232
13236
13315
13355
13414
13387
13412
13580
13574
13687
13708
14024
14023
14275
14437
14819
14907
15146
15206
15359
15311
15266
15064
14828
14457
14023
13711
13353
13195
12921
12908
12602
12637
12458
12571
12505
12663
12563
12675
12676
12808
12699
12799
12788
12764
12841
12727
12730
12587
12675
12454
12718
12609
12837
12780
12960
12866
12992
12882
13025
12993
12985
12919
12950
13162
13066
13144
13340
13395
13397
13489
13379
13415
13241
13430
13331
13515
13374
13622
13608
14020
14618
15668
16916
17166
13930
11959
12695
13484
13937
14001
14246
14167
14369
14217
14357
14199
14300
14121
14277
14194
14375
14272
14433
14524
14620
14740
14894
15222
15392
15613
15612
15766
15566
15543
15215
15019
14549
14212
13752
13412
13085
12940
12831
12783
12839
12747
12806
12775
12852
12694
12894
12745
12831
12714
12811
12738
12899
12958
13048
13078
13290
13285
13358
13278
13312
13244
13229
13196
13102
13050
12891
12814
12375
12287
12050
12441
12354
12651
12607
12985
12812
13042
12932
13037
12928
12990
13013
12984
13056
12964
13180
13213
13999
14414
15930
16469
15912
11647
11544
12100
13016
13056
13202
13135
13173
13326
13222
13380
13401
13640
13476
13784
13591
13988
13789
14126
13919
14294
14224
14608
14671
15031
15093
15159
15129
15016
14931
14614
14433
13834
13766
13112
13086
12602
12705
12407
12604
12271
12572
12216
12542
12297
12566
12336
12634
12442
12453
12366
12398
12349
12304
12358
12223
12477
12182
12326
12056
12394
12088
12433
12227
12573
12495
12921
12879
13120
13198
13352
13427
13302
13291
13081
13338
13074
13316
13060
13438
13318
13904
14949
17132
17387
16858
11723
11266
12251
13029
13495
13643
13932
13834
14047
13780
14029
13701
13971
13681
14088
13847
14107
14045
14338
14286
14655
14811
15094
15316
15814
15756
15855
15780
15797
15704
15294
15044
14411
14161
13622
13569
12993
13092
12637
12798
12397
12712
12475
12626
12485
12620
12573
12653
12698
12657
12908
12734
12952
12688
12918
12482
12749
12389
12610
12388
12876
12753
12994
12868
12910
12870
12901
12926
12777
12932
12731
13023
12808
13203
12979
13547
14456
16877
17079
17085
11973
11217
11865
12721
13068
13320
13391
13494
13685
13564
13790
13515
13833
13477
13845
13540
14108
13941
14385
14208
14776
14609
15329
15154
15704
15421
15749
15420
15505
15160
14883
14345
13850
13471
12911
12932
12487
12667
12242
12566
12097
12428
12092
12407
12123
12393
12251
12379
12292
12328
12392
12307
12517
12333
12569
12310
12628
12288
12579
12298
12692
12490
12837
12704
12889
12881
13053
13048
12967
12910
12651
12738
12510
12744
12497
12893
12732
13086
13643
15612
17296
18202
14582
11625
11840
12387
12733
12795
13027
14780
15237
14789
14995
14492
14750
14416
14638
14376
14689
14705
14928
15035
15180
15300
15172
15284
15001
15054
14471
14261
13445
13309
12589
12610
12078
12223
11933
12062
11918
12023
12035
12105
12201
12039
12163
12011
12315
12021
12364
12098
12488
12215
12527
12286
12519
12338
12490
12442
12527
12493
12455
12561
12514
12818
12722
13073
12849
13177
12887
13174
12828
13062
12843
13101
12968
13158
13101
13270
13422
14082
15606
17725
17495
13210
12247
12633
13192
13200
13362
13193
13568
13333
13640
13315
13677
13395
13784
13527
13848
13687
13908
13896
14106
14248
14370
14691
14765
15172
15085
15429
15098
15478
15002
15069
14292
14123
13476
13367
12911
12885
12716
12674
12606
12538
12623
12418
12631
12349
12657
12386
12737
12464
12780
12436
12685
12455
12697
12571
12723
12696
12769
12807
12736
12871
12694
12979
12763
13064
12734
13085
12792
13109
12808
13003
12669
13034
12875
13321
12990
13314
12982
13326
13195
13292
13195
13097
13118
13014
13178
13013
13355
13275
13943
14158
15858
17254
17559
13395
12231
12539
13329
13388
13561
13620
13671
13751
13726
14007
13794
14097
13843
14270
13949
14359
14106
14558
14345
14750
14693
15125
15199
15522
15686
15749
15846
15676
15773
15255
15170
14384
14268
13473
13466
12886
13021
12600
12811
12548
12648
12474
12489
12437
12351
12411
12218
12454
12175
12443
12245
12398
12352
12607
12381
12656
12361
12728
12437
12810
12482
12828
12581
12854
12690
12878
12793
12934
13006
12946
13065
12850
13056
12803
13181
12863
13180
12722
13037
12762
13199
13073
13391
13253
13415
13396
13454
13433
13351
13507
13273
13500
13232
13633
13387
13940
14173
15201
16495
17762
16071
12628
12392
13124
13536
13667
13783
13669
13827
13590
13854
13482
13819
13465
13814
13512
13934
13639
13951
13752
14080
14087
14423
14676
15175
15135
15489
15379
15431
15228
15012
14740
14200
13885
13208
13189
12659
12797
12337
12618
12279
12574
12254
12496
12255
12481
12346
12485
12441
