14149
13632
13147
13344
12715
13072
12465
12890
12249
12746
12229
12659
12270
12679
12408
12619
12484
12539
12600
12404
12623
12319
12647
12203
12767
12337
12919
12468
13042
12484
12847
12326
12610
12328
12574
12474
12565
12717
12791
13187
13771
15574
16862
17974
14180
11362
11567
12840
12800
13235
12880
13323
13099
13305
13301
13364
13477
13352
13616
13375
13864
13485
14093
13767
14504
14202
14961
14740
15455
15212
15584
15310
15394
15155
14986
14147
14024
13315
13129
12663
12537
12345
12157
12339
12001
12390
12052
12537
12030
12604
12158
12703
12235
12733
12300
12731
12465
12668
12486
12565
12617
12601
12932
12742
13193
12779
13262
12713
13172
12564
13020
12458
12932
12554
12952
12728
12965
12903
13480
14594
16527
18220
16083
11847
11378
12571
12564
13179
12758
13429
13042
13507
13153
13613
13385
13584
13585
13680
13805
13700
14058
13897
14530
14332
15109
14930
15677
15469
15954
15536
15965
15251
15463
14434
14475
13488
13551
12825
12889
12498
12670
12447
12488
12546
12440
12647
12377
12841
12476
12996
12540
13071
12537
13093
12644
13131
12741
13081
12781
12936
12847
12878
12999
12769
13105
12899
13326
12945
13389
12885
13397
12810
13187
12669
13063
12593
12884
12700
13012
13106
13320
14204
15622
17850
17804
14048
11598
12739
12962
13736
13248
13754
13270
13762
13408
13805
13596
13767
13667
13639
13554
14012
13852
14241
14237
14451
14635
14731
15167
15011
15406
15038
15432
14856
15150
14256
14267
13294
13271
12480
12621
12192
12379
12218
12266
12342
12189
12394
12099
12469
12014
12463
12067
12655
12175
12714
12304
12863
12535
12858
12561
12805
12733
12811
12886
12767
12989
12658
13023
12514
12990
12539
13225
12869
13413
12980
13483
13131
13404
13094
13242
13163
13202
13287
13219
13540
13291
13819
13506
14700
15447
17791
17637
13045
11896
13071
13213
13912
13468
14047
13573
14038
13644
14020
13751
14029
13918
13980
14016
13961
14231
14013
14458
14230
14867
14629
15448
15135
15699
15261
15657
15146
15309
14712
14546
13995
13623
13315
12828
12799
12407
12677
12196
12603
12103
12643
12189
12688
12203
12705
12313
12710
12445
12685
12606
12607
12637
12488
12794
12549
12968
12597
13040
12496
13003
12545
13050
12618
13106
12688
13012
12746
12900
12728
12801
12937
13272
13045
13340
13164
13261
13284
13139
13250
12851
13153
12710
13177
12725
13271
12934
13739
13982
15674
16872
17251
13313
11609
12083
12836
13156
13076
13349
13123
13522
13175
13630
13142
13659
13248
13872
13463
14002
13693
14184
14023
14360
14459
14727
15039
15094
15500
15335
15740
15289
15659
14901
14995
13972
13993
13119
13292
12653
12851
12503
12637
12487
12526
12615
12467
12740
12400
12822
12461
12927
12396
12884
12372
12922
12582
13060
12625
13089
12539
13050
12568
13038
12614
12972
12693
12912
12817
12867
12846
12728
12964
12674
13059
12652
13052
12525
13084
12649
13269
12822
13366
12911
13281
12979
13161
12954
12938
12943
12819
13048
12799
13277
13058
13996
14051
15951
16671
16683
12154
11761
12162
13277
13255
13568
13526
13588
13636
13454
13695
13365
13805
13436
13999
13542
14139
13691
14288
13857
14426
14226
14818
14795
15186
15305
15393
15505
15278
15488
15084
14562
14125
13679
13180
13080
12519
12725
12186
12632
12105
12602
12057
12566
12103
12630
12219
12596
12325
12489
12381
12468
12598
12429
12665
12311
12670
12164
12626
12110
12583
12104
12570
12059
12477
12068
12398
12166
12381
12348
12328
12422
12228
12546
12283
12921
12578
13083
12569
13185
12750
13265
12741
13062
12623
12903
12681
12885
12915
13126
13617
14089
15621
16513
16479
12153
11502
11865
13303
13142
13723
13358
13808
13381
13972
13517
14104
13692
14210
13847
14209
14040
14351
14293
14407
14689
14748
15256
15170
15753
15482
16035
15565
16083
15455
15676
14848
14853
14021
13956
13420
13348
13108
12996
13035
12822
13017
12636
12985
12548
13070
12575
13111
12518
12982
12531
12902
12506
12907
12720
12911
12861
12834
12937
12695
13007
12659
13001
12524
13030
12536
13066
12566
13052
12606
13049
12771
13205
13219
13456
13391
13306
13414
13121
13269
12700
12672
12717
12776
12627
12946
12759
13352
13753
15126
16067
16691
13260
11010
11311
12741
12948
13405
13245
13448
13409
13404
13570
13458
13738
13452
13926
13524
14032
13645
14314
13971
14684
14400
15132
15063
15699
15623
15885
15845
15793
15787
15392
15308
14504
14429
13543
13682
12917
13127
12427
12881
12392
12811
12360
12639
12417
12578
12552
12531
12701
12584
12962
12615
12935
12439
13015
12482
12991
12540
13043
12559
12987
12689
13129
12789
13491
13114
13665
13356
13710
13439
13585
13450
13377
13460
13334
13671
13397
13853
13490
14136
14436
16366
17527
18062
14606
11116
11563
12869
13377
13811
13885
14018
14220
14058
14351
14068
14521
14129
14669
14277
14858
14409
15004
14626
15188
14995
15550
15540
15891
16001
16015
16144
15854
16053
15458
15511
14561
14545
13552
13597
12745
12986
12338
12605
12214
12501
12321
12518
12542
12536
12689
12513
12862
12476
12903
12694
12833
12642
12831
12429
12835
12413
12843
12289
12872
12453
13006
12555
12966
12571
12855
12498
12602
12613
12639
12764
12599
12898
12631
13164
13843
15974
16792
17228
12743
10380
11033
12309
12517
13003
12844
13138
13203
13168
13323
13180
13555
13306
13760
13336
13906
13481
14125
13752
14415
14193
14826
14793
15420
15449
15654
15677
15670
15704
15286
15300
14484
14416
13553
13744
12988
13291
12670
13064
12580
12960
12670
12972
12656
13280
12913
13365
13089
13469
13335
13497
13422
13470
13531
13293
13625
13361
13862
13531
14217
13798
14406
13921
14395
13847
14075
13653
13894
13697
13833
13721
13672
13980
14033
15403
16669
18103
17367
13206
11315
12761
12947
13784
13409
13876
13575
13888
13583
13668
13647
13574
13762
13546
13880
13537
13968
13594
14228
13886
14572
14299
15044
14841
15403
15127
15384
15163
15099
14794
14334
14061
13359
13239
12539
12721
12149
12337
12041
12261
11865
12294
11767
12203
11682
12232
11767
12305
11961
12420
12103
12359
12104
12218
12207
12243
12517
12466
12878
12517
12895
12333
12789
12234
12656
12108
12495
11986
12371
11994
12320
12341
12954
13730
15476
17253
16269
12047
11188
12267
12382
13082
12697
13314
12899
13433
13124
13564
13311
13649
13556
13723
13818
13832
14073
13905
14358
14130
14783
14524
15249
14972
15636
15274
15761
15283
15431
14776
14596
13996
13685
13102
13378
12911
13143
13017
13212
13236
13101
13138
12818
13058
12615
13044
12573
13014
12492
13013
12492
12953
12367
12753
12466
12786
12692
12944
13035
12981
13197
12971
13234
12793
13182
12694
13170
12674
13225
12745
13312
13069
13837
14424
16373
17500
17214
13474
12247
12999
13328
13787
13336
13786
13321
13791
13286
13781
13410
13947
13549
13984
13759
14181
14212
14499
14634
14814
15180
15073
15582
15282
15803
15346
15683
15129
15182
14438
14387
13446
13547
12745
12959
12375
12715
12153
12511
12287
12546
12286
12372
12339
12232
12397
12194
12539
12121
12507
12032
12554
12106
12515
12056
12524
12220
12641
12444
12728
12580
12747
13016
12969
13051
12788
13107
12873
13352
12986
13368
12741
13085
12646
13316
13152
13627
13412
13834
14111
14785
16160
17294
16791
14343
12524
12623
13868
13882
14669
14361
15029
14666
15064
14663
14977
14724
15003
15096
15189
15232
15381
15227
15444
15533
15988
16196
16305
16368
16213
16542
16087
16439
15919
16022
15211
15274
14525
14533
13903
14146
13682
13799
13511
13418
13518
13391
13805
13352
13650
13240
13573
13086
13496
13086
13452
13054
13449
13086
13571
13135
13272
13301
13317
13473
13451
13670
13191
13687
13252
13614
13346
13903
13598
14003
13751
14276
13996
14168
13837
14012
14028
13974
13943
13884
14256
13921
14120
14049
15020
15786
17779
16429
15566
12154
12968
13124
13922
13483
14261
13820
14197
13789
14328
13939
14085
13987
14047
14081
14026
14165
13960
14288
14067
14555
14203
14840
14571
15038
14680
15102
14724
14855
14338
14255
13562
13249
12931
12687
12545
12463
12561
12366
12602
12230
12446
12032
12397
11912
12154
11786
12069
11876
12099
11875
12042
11890
12008
12125
12075
12174
12013
12335
12116
12465
12169
12516
12248
12640
12383
12722
12462
12763
12569
12691
12645
12736
12580
12976
12795
12989
12884
12925
12873
12756
12852
12536
12781
12445
12818
12586
13025
12790
13456
13886
15570
15269
14724
11929
10974
11660
12499
13132
13123
13436
13330
13715
13406
13724
13450
13815
13415
13913
13543
13922
13739
14113
14057
14420
14538
14713
14860
14934
15093
14878
15113
14738
14849
14306
14334
13603
13567
12903
12983
12575
12733
12589
12624
12524
12453
12488
12306
12573
12359
12754
12527
12936
12591
12935
12572
12852
12577
12793
12365
12703
12334
12694
12344
12593
12319
12585
12417
12587
12628
12677
12708
12681
12818
12509
12810
12585
13078
12818
13161
12901
13249
12994
13327
13007
13142
12921
12954
12963
13012
13254
13353
13967
14521
16366
16636
15841
13437
11930
12090
13159
13379
13821
13771
14053
13940
14097
14103
14153
14208
14037
14179
14044
14391
14179
14622
14298
14706
14517
15041
14891
15345
15190
15449
15196
15123
14933
14673
14426
13949
13466
13216
12896
12793
12792
12566
12663
12404
12639
12385
12727
12410
12725
12366
12683
12478
12802
12606
12772
12645
12898
12778
12827
12878
12725
12875
12684
12850
12649
12867
12492
12838
12556
12880
12619
12980
12685
12941
12804
13047
13002
13095
13295
13239
13444
13307
13636
13358
13662
13280
13505
13154
13496
13178
13525
13454
14139
14601
16243
16411
15287
12681
11247
12047
12736
13418
13346
13786
13559
13994
13725
14140
13853
14285
14084
14590
14343
14855
14624
14987
14843
15255
15171
15457
15489
15685
15701
15584
15562
15204
15181
14529
14404
13671
13640
12965
13155
12637
12733
12307
12473
12282
12341
12261
12277
12293
12246
12468
12327
12570
12379
12772
12418
12725
12415
12745
12436
12812
12618
12844
12685
12784
12817
12813
12786
12699
12838
12579
12810
12583
12942
12715
13166
12805
13195
13013
13435
13206
13360
13076
13053
12951
13011
13164
13119
13460
14026
14879
16557
16080
14809
11801
11307
12356
12910
13569
13511
13985
13701
14080
13840
14130
13939
14224
14053
14230
14244
14280
14336
14312
14610
14435
14896
14808
15293
15071
15509
15167
15371
14965
14986
14481
14246
13780
13444
13020
12851
12727
12535
12617
12313
12577
12350
12637
12407
12784
12530
12933
12727
12929
12664
12825
12740
12850
12824
12878
12830
12623
12809
12685
12910
12681
13024
12654
12825
12528
12934
12786
13139
12834
13211
12912
13075
12681
12785
12428
12510
12294
12470
12422
12389
12669
13035
14078
15561
14861
12865
9606
9663
10915
11593
12310
12260
12649
12510
12787
12779
12932
12946
13045
13131
13068
13225
13162
13593
13539
13944
13901
14369
14304
14785
14628
14921
14738
14850
14669
14577
14286
13930
13596
13228
13064
12658
12762
12415
12486
12247
12576
12334
12583
12418
12734
12597
12872
12783
12885
12991
13052
13050
12922
13003
12760
12824
12789
12924
12821
12958
12820
13172
12990
13363
13258
13518
13118
13222
12922
13197
12985
13135
13074
13234
13556
14157
15762
17019
15751
14028
11024
11280
12437
12905
13602
13509
13954
13801
14092
13874
14098
14035
14168
14163
14200
14352
14280
14543
14571
14998
14863
15358
15272
15656
15501
15882
15544
15656
15209
15157
14764
14485
14103
13774
13558
13074
13208
12934
13085
12733
12994
12670
12940
12643
12966
12717
13028
12891
13132
12995
13264
13042
13282
12990
13104
12950
12986
12869
12816
12808
12725
12910
12778
13035
12893
13087
12742
12949
12547
12735
12552
12723
12556
12754
12736
13078
13898
15438
16130
14820
12421
10387
11395
12137
13016
12989
13429
13342
13636
13476
13738
13628
13825
13785
13838
13915
13942
14054
14017
14166
14076
14414
14351
14707
14614
14945
14653
14769
14461
14529
14200
14023
13589
13273
12950
12711
12618
12395
12466
12294
12506
12275
12615
12598
12750
12634
12865
12723
13018
12736
13047
12727
13013
12794
12922
12712
12829
12697
12779
12741
12782
12987
12976
13128
12908
13179
12969
13184
12768
12930
12670
12973
12746
12966
12785
13078
13323
14168
15833
17134
16004
13384
11151
11443
12537
12891
13538
13446
13876
13605
13929
13641
13978
13784
14056
14077
14176
14238
14317
14572
14535
14878
14783
15156
15023
15442
15145
15366
15073
15255
14719
14727
14175
14085
13652
13484
12970
13091
12775
12803
12590
12625
12576
12637
12721
12567
12787
12587
12910
12658
12989
12665
12963
12622
12879
12501
12761
12524
12536
12320
12454
12532
12657
12913
12759
13045
12872
13231
12951
13186
12734
13059
12778
13146
12897
13151
13070
13535
14164
15946
17181
15988
13334
10851
11743
12400
13359
13369
13855
13734
14130
13877
14230
14021
14349
14219
14404
14319
14429
14488
14509
14709
14704
15172
15104
15483
15372
15738
15478
15586
15285
15345
14781
14660
13961
13877
13291
13297
12872
13023
12746
12773
12626
12838
12895
12871
12970
12892
13092
12862
13147
12923
13237
12861
13125
12757
13058
12725
12856
12517
12749
12667
12710
12860
12872
12962
12840
13050
12811
13034
12650
12794
12447
12710
12412
12727
12557
13008
13272
14797
16687
16160
14535
10870
11043
11686
12719
12710
13159
12962
13285
12958
13300
13080
13401
13202
13386
13314
13466
13453
13479
13592
13972
14003
14260
14407
14505
14628
14534
14633
14345
14463
13952
13861
13270
13360
12767
12800
12280
12468
12137
12332
12213
12417
12451
12569
12774
12782
13045
12953
13211
12846
13182
12864
13057
12714
13120
12785
13057
12630
12735
12723
13002
13172
13309
13349
13285
13510
13192
13376
13043
13306
12950
13321
13005
13382
13249
13796
13869
15167
16985
17267
15720
11824
11369
12078
12927
13006
13468
13253
13649
13319
13648
13445
13918
13741
14094
13791
14171
13862
14359
14138
14564
14385
14713
14526
14789
14788
14774
14675
14534
14435
13883
13827
13180
13144
12487
12517
12002
12176
11808
12129
11918
12212
12137
12351
12430
12632
12836
12798
13082
12830
13061
12775
12963
12588
12697
12094
12310
12004
12288
12074
12501
12569
12698
12816
12761
13001
12784
12996
12367
12708
12256
12785
12452
12883
12698
13802
14513
16455
16068
14250
10525
10943
11965
12564
13056
13209
13155
13328
13435
13408
13629
13445
13788
13475
13935
13501
14109
13693
14256
13945
14506
14276
14921
14743
15003
14852
14827
14722
14427
14381
13928
13940
13188
13295
12600
12918
12417
12918
12403
12815
12534
13073
12921
13198
13030
13066
13102
12839
13062
13099
14036
13542
12893
12177
12734
12462
13067
12868
13987
13717
14216
14138
13222
12464
12471
12728
12934
13145
12869
13225
12900
14105
13995
15281
16403
17204
15716
12260
12000
12828
12640
13483
13231
13938
13548
13947
14110
14222
13743
14174
14648
14389
14175
14032
14165
13985
14728
14398
15141
14951
15560
15153
15317
14911
15131
14680
14782
14113
13791
13591
13123
13139
12528
12557
12261
12850
12073
12521
12492
12919
12268
12192
12392
13113
13057
13297
12856
12969
12970
12684
12961
13034
13236
12773
12967
12871
13678
13340
13610
12874
12807
12332
12543
12534
12808
12514
12932
13439
13968
15776
15870
15308
12152
10961
11243
11881
12290
13038
12832
13544
13014
13454
13249
13642
13634
14547
13770
13708
13667
14215
14375
14799
14918
14885
15094
14942
15551
15281
15563
15079
15477
14783
14962
13892
13810
13481
13522
12979
13148
12834
12533
12508
12432
12627
12510
12949
12649
12989
12520
12866
12637
13089
12909
13123
12641
12698
12333
12676
12748
12936
13393
14680
14147
13203
13695
12042
12512
12329
13632
15152
15701
13740
14836
12547
12930
14857
15868
15785
13264
12463
12846
12603
11975
12161
12826
13346
13833
15062
15176
16331
13745
13089
12594
13600
13997
16103
16896
16622
14521
13290
13239
14130
14761
15122
15398
15162
15203
14959
14282
13030
13126
12885
13102
13659
15368
12319
11575
11677
11651
11462
12253
12884
12860
12488
12399
12645
12204
12303
12372
12916
12111
12846
12419
12396
12523
13045
12296
13029
12611
12315
12760
13288
13832
12468
11342
11436
12521
12568
13485
14634
15871
16021
15466
11768
10026
10662
12351
12629
13645
13506
13127
12711
13268
13092
13353
13196
13092
13421
13573
14051
13939
14315
13903
14333
14227
15123
15009
15464
14824
15142
14790
15028
14455
14186
13927
13993
13169
12771
13711
12946
12700
12042
12175
11945
12646
12477
14163
13444
13463
12406
12213
11756
12383
12869
12881
12787
13275
13656
12789
12451
12150
12944
12850
13325
13095
13776
13362
13539
13497
13660
12752
13000
12919
13632
13946
14839
15545
16367
15699
11450
10287
11305
12544
12681
13191
12940
13508
13194
13690
13215
13721
13453
13963
13748
14122
14034
14298
14316
14467
14783
14783
15204
15053
15397
15063
15633
14826
14878
14209
14777
15419
13958
12500
12532
12476
12849
12965
13270
12556
12258
12667
12590
13187
12350
12593
12322
12871
12559
12971
12580
12943
12689
12908
12854
13080
13002
13118
13538
13571
13797
13245
13528
13043
13519
13270
13362
12902
13357
13284
13894
14439
16565
16503
15975
11791
11295
11860
13076
13261
13455
13501
13629
13762
13610
13860
13645
14016
13793
14216
13813
14363
14067
14650
14434
14956
14758
15361
15381
15704
15691
15581
15535
15243
15274
14710
14747
13946
13963
13274
13501
12802
13081
12551
12961
12641
12866
12657
12718
12702
12665
12804
12638
12861
12444
12755
12331
12769
12175
12666
12286
12786
12465
12902
12566
12843
12612
12592
12275
12654
12321
12631
12437
12747
12954
13957
15554
15582
14986
11804
10524
11007
12329
12386
12997
12672
13234
12896
13356
13043
13388
13227
13419
13469
13560
13801
13722
14093
13902
14439
14198
14812
14472
15111
14675
15117
14595
14820
14276
14230
13628
13440
13149
12915
12812
12526
12794
12358
12889
12497
12734
12064
12562
12196
12617
12234
12733
12464
12703
12639
12827
12732
12686
12990
12856
13222
12916
13387
12966
13441
12884
13169
12827
13098
12584
13059
12598
13184
12769
13347
13188
14434
15511
16840
16076
13025
11181
12007
13014
13147
13467
13169
13539
13079
13529
13107
13689
13283
13758
13430
13886
13635
13923
13868
14203
14247
14262
14599
14442
14819
14499
14833
14369
14713
14055
14316
13605
13725
12999
13151
12722
12855
12626
12734
12685
12659
12792
12577
12916
12565
12925
12510
12962
12549
13103
12625
13009
12673
12985
12677
12909
12824
12955
13085
13018
12922
13341
13177
13235
13143
12997
13008
12757
13088
12801
13215
12983
13666
13993
15860
16592
16358
12226
10864
11512
12695
13026
13184
13215
13170
13315
13098
13425
13068
13533
13175
13701
13387
14034
13745
14311
14043
14576
14540
15025
15051
15262
15265
15166
15279
14901
14982
14320
14397
13587
13611
12799
13033
12379
12738
12268
12575
12309
12573
12417
12504
12593
12463
12655
12409
12751
12325
12836
12428
12906
12389
12772
12348
12914
12620
13190
12764
13169
12649
13057
12552
12838
12567
12688
12499
12607
12704
12608
12897
13035
14162
15132
16710
15741
12419
10039
11451
12038
12980
12653
13036
12799
13121
13038
13154
13230
13215
13417
13284
13686
13384
13876
13600
14180
13869
14536
14289
14889
14684
15090
14850
15050
14794
14687
14474
14115
14027
13519
13617
13107
13417
12872
13251
12778
13224
12745
13090
12732
13072
12863
13065
12950
12996
13040
12903
13025
13047
12891
12899
12986
12980
13195
13048
13512
13281
13721
13287
13673
13160
13515
13081
13516
13171
13522
13298
13773
14221
15351
17207
17320
15560
11118
11826
12339
13422
13168
13687
13420
13921
13561
13999
13717
14055
13843
14058
13983
14035
14131
14040
14397
14347
14854
14686
15295
15009
15492
14966
15279
14781
15019
14418
14397
13782
13608
13241
12995
12847
12550
12673
12359
12703
12246
12662
12284
12763
12353
12812
12479
12861
12466
12932
12410
12823
12402
12840
12533
12908
12664
12913
12884
12901
12879
12724
12821
12483
12737
12374
12754
12320
12927
12821
14288
15425
16253
15246
11893
10337
11563
12411
12933
13087
13112
13446
13197
13561
13276
13726
13311
13798
13384
13896
13584
14137
13967
14443
14429
14887
15018
15202
15418
15300
15506
15093
15299
14692
14797
13964
14004
13225
13439
12775
12977
12517
12638
12398
12571
12508
12485
12601
12481
12754
12457
12681
12780
12800
12649
12778
12533
12877
12505
12974
12665
13220
12843
13358
12912
13191
12772
12990
12700
12881
12825
12954
13040
13012
13542
14046
15654
16129
16139
12319
11225
11540
12878
12942
13361
13160
13548
13364
13616
13596
13702
13787
13685
13988
13801
14228
13842
14296
13965
14538
14269
14842
14547
15099
14788
15026
14727
14771
14597
14300
14059
13601
13587
13007
13186
12720
13065
12586
13037
12591
13026
12634
13040
12767
13179
12833
13293
12849
13250
12916
13215
12908
12976
12890
12907
12971
12921
13195
12972
13399
12989
13314
12783
13167
12662
13071
12666
13170
12908
13294
13433
14368
15397
16798
16672
14096
11524
11816
13196
13375
13941
13594
14167
13801
14276
13916
14299
13947
14261
14063
14222
14200
14240
14340
14224
14627
14495
15031
14794
15344
14957
15403
14889
15187
14556
14638
14024
13949
13499
13377
13113
12922
12989
12700
12918
12560
12931
12749
12849
12683
12858
12551
12927
12540
12933
12412
12837
12358
12787
12331
12673
12355
12674
12541
12702
12731
12765
12867
12765
13025
12683
12959
12463
12902
12471
12956
12455
12884
12583
13265
13667
15121
16346
16047
13004
10538
11405
12235
13066
12879
13394
13063
13518
13085
13587
13159
13605
13220
13610
13374
13715
13558
13773
13789
13962
14291
14314
14768
14604
15055
14585
15005
14470
14753
14071
14185
13451
13554
12984
13031
12696
12838
12340
12759
12452
12735
12565
12747
12705
12688
12799
12602
12801
12464
12823
12404
12851
12443
12930
12488
12923
12487
12825
12417
12707
12583
12845
12930
12969
13274
13153
13385
12994
13326
12808
13321
12843
13358
12925
13379
13226
14047
14639
16573
16549
15165
11142
11163
12293
12921
13496
13291
13804
13320
13816
13438
13991
13552
14048
13707
14120
13935
14292
14222
14468
14569
14577
14934
14850
15301
15017
15425
14880
15202
14583
14616
14010
14033
13310
13572
12856
13148
12549
12902
12398
12720
12316
12602
12442
12588
12614
12503
12650
12435
12750
12407
12853
12374
12837
12358
12801
12348
12808
12408
12688
12311
12620
12524
12687
12767
12771
13045
12860
13174
12779
13182
12619
13046
12549
13010
12615
13105
12843
13546
14150
15837
16877
16274
12746
10783
11880
12630
13537
13246
13819
13464
13975
13514
14037
13680
14186
13879
14235
13942
14158
14029
14195
14161
14688
14457
14811
14807
14983
14983
14821
14834
14478
14632
14036
14180
13427
13634
12969
13265
12672
13027
12541
12838
12538
12823
12717
12787
12780
12752
12973
12754
13029
12670
13099
12677
13129
12600
13038
12594
12979
12544
12878
12618
12958
12836
12929
13014
12986
13253
13066
13409
13031
13367
12819
13207
12752
13247
12899
13365
13271
14040
14761
16671
16930
15614
11292
10856
12071
12700
13330
12942
13476
13051
13568
13141
13684
13451
13913
13500
13961
13555
14115
13812
14351
14108
14682
14526
14882
14880
14976
14991
14814
14821
14429
14557
13942
14129
13357
13507
12835
13136
12545
12801
12389
12721
12471
12722
12649
12734
12778
12661
12871
12597
12972
12624
12938
12472
12937
12449
12906
12502
12912
12534
12819
12606
12864
12867
13008
13147
13123
13412
13157
13455
12925
13203
12773
13229
12779
13281
12868
13402
13322
14470
15684
17108
16449
12790
10838
12240
12952
13482
13460
13569
13667
13561
13756
13516
13864
13522
13918
13568
14116
13737
14318
14005
14517
14322
14797
14722
15068
15095
15144
15109
14896
15022
14572
14682
14040
14162
13470
13723
13133
13414
12866
13211
12834
13126
12866
13101
13041
13162
13236
13126
13374
13040
13357
12928
13301
12785
13187
12679
13117
12707
13024
12635
12816
12595
12819
12874
12990
13133
12985
13217
12867
13101
12595
12957
12512
12994
12602
13151
12959
13688
14098
15941
16705
16606
12377
10737
11340
12702
13004
13260
13266
13335
13354
13223
13484
13182
13578
13246
13702
13294
13898
13581
14149
13861
14301
14130
14653
14637
14901
14868
14785
14761
14453
14478
14018
14128
13441
13540
12827
13075
12536
12833
12275
12626
12349
12676
12533
12710
12753
12743
12884
12722
12985
12629
13001
12629
13023
12513
12974
12504
12841
12377
12775
12501
12805
12757
13083
13031
13074
13283
13136
13025
13168
13039
13093
13170
13021
13252
13006
13641
13910
15551
16799
17159
14150
10787
11090
12515
12955
13443
13368
13639
13611
13572
13658
13535
13853
13598
13945
13605
14089
13709
14269
13934
14472
14125
14650
14508
14950
14883
15062
14912
14759
14790
14453
14506
13990
14127
13477
13733
13027
13313
12721
13094
12688
13099
12840
13166
12980
13154
13085
13029
13156
13007
13231
12818
13064
12515
12835
12278
12675
12194
12619
12223
12755
12494
13187
12749
13137
12646
12920
12576
12869
12702
12943
12939
13051
13436
14090
15975
17037
16410
13264
10253
10768
12293
12684
13414
13122
13699
13422
13776
13618
13849
13824
13870
14026
13879
14223
13991
14435
14174
14726
14361
14987
14623
15177
14798
15112
14663
14742
14390
14391
14073
13659
13430
12942
13009
12496
12717
12227
12683
12216
12725
12295
12750
12445
12792
12458
12721
12524
12663
12654
12642
12772
12566
12833
12459
12638
12622
12709
12557
12898
12728
13107
12819
13334
12863
13240
12729
13015
12511
12880
12602
12943
12839
13154
13416
14255
16053
16901
16249
11828
10942
11544
12953
12825
13384
13114
13661
13383
13828
13539
13824
13654
13770
13806
13796
14009
13819
14201
13969
14521
14286
14944
14701
15210
14800
15142
14602
14774
14286
14317
13871
13662
13383
13091
13071
12761
12972
12595
12996
12593
13078
12642
13147
12676
13061
12696
13061
12755
13091
12658
13072
12671
13059
12765
12969
12738
12778
12793
12810
13095
12951
13287
12977
13332
12907
13286
12675
13060
12640
13053
12662
13043
12781
13210
13681
14829
16587
16448
14021
10486
11411
12132
13224
12963
13507
13146
13670
13255
13725
13402
13750
13527
13729
13612
13725
13774
13723
14034
13899
14344
14223
14834
14540
15097
14636
15039
14505
14697
14105
14171
13639
13532
13121
12907
12855
12606
12714
12401
12752
12454
12881
12546
12746
12530
12830
12477
12894
12474
12948
12549
12954
12497
12899
12459
12715
12461
12737
12609
12793
12945
12924
13175
12982
13254
12829
13070
12579
12970
12527
12991
12627
13090
12961
13917
14602
16493
16450
13996
10489
10981
12244
12657
13148
12875
13350
12970
13498
13130
13631
13211
13683
13399
13815
13670
13954
13961
14149
14324
14365
14745
14670
15173
14881
15269
14759
15077
14422
14666
14004
14173
13571
13614
13146
13140
12732
13137
12713
13079
12818
12973
12840
12858
12865
12793
13000
12715
13007
12641
13062
12563
13077
12556
13001
12466
12857
12566
12887
12698
13021
13056
13189
13277
13116
13241
12900
13185
12753
13207
12783
13243
12872
13507
13392
14618
15651
17336
16687
13790
10718
11604
12694
13220
13570
13372
13819
13433
13949
13588
14034
13612
14070
13710
14182
13879
14244
14166
14454
14571
14685
14935
14894
15297
15023
15345
14831
15139
14516
14608
14142
14145
13424
13614
12957
13224
12621
12979
12522
12960
12621
13008
12848
13030
12960
13034
13155
13016
13182
12852
13169
12702
13116
12580
12948
12436
12858
12401
12844
12621
12982
12830
12991
12905
12808
12809
12510
12731
12439
12870
12535
13128
12895
13653
14074
16057
16649
16322
11938
10608
11407
12562
12998
13088
13412
13304
13579
13269
13702
13316
13817
13444
13936
13490
14011
13719
14201
14034
14407
14406
14709
14878
15217
14954
15173
14810
14761
14486
14163
13943
13405
13396
12877
13053
12516
12897
12395
12871
12395
12820
12441
12758
12430
12752
12605
12753
12718
12693
12813
12592
12838
12513
12936
12454
12837
12322
12804
12343
12819
12532
13051
12860
13280
13168
13274
13188
13003
13027
12720
13025
12752
13193
12835
13448
13251
14543
15663
17176
15911
12152
10705
11950
12787
13282
13404
13531
13874
13732
14051
13704
14148
13758
14263
13819
14317
13952
14496
14201
14768
14434
15000
14634
15225
14877
15246
14902
15062
14735
14614
14295
13906
13746
13245
13311
12755
12997
12422
12794
12346
12804
12325
12798
12453
12833
12627
12958
12855
12996
13003
12866
13008
12756
13004
12604
12929
12412
12811
12300
12718
12284
12784
12556
13081
12907
13211
13136
13157
13140
13004
13130
12860
13216
12836
13287
12887
13532
13467
14752
15999
17055
15402
11465
10804
12075
12876
13188
13376
13421
13635
13645
13562
13707
13747
13671
13888
13681
14049
13783
14273
13973
14593
14298
14928
14655
15246
14930
15196
14835
14896
14541
14398
14209
13792
13640
13031
13100
12537
12837
12333
12793
12357
12883
12503
12950
12617
12982
12806
13093
13039
13092
13172
13062
13323
13061
13307
12879
13304
12846
13240
12697
13183
12763
13227
12982
13387
13177
13410
13307
13277
13227
13003
13232
12862
13215
12821
13282
12889
13617
13780
15493
16879
17149
12429
11064
11585
12935
13005
13548
13295
13765
13557
13767
13704
13769
13873
13803
14062
13846
14247
13910
14447
14173
14756
14427
15035
14776
15349
15019
15286
14953
14892
14584
14383
14153
13710
13632
13102
13256
12718
13019
12507
12998
12515
12928
12458
12857
12533
12789
12624
12823
12804
12890
12948
12764
12968
12607
12904
12496
12954
12490
12979
12680
13289
12883
13366
13135
13366
13097
13137
12922
12833
13060
12932
13257
13004
14227
15703
17216
16691
14340
10523
10806
12302
12641
13274
12891
13540
13085
13519
13151
13523
13341
13597
13497
13503
13527
13548
13869
13731
14114
13904
14514
14261
14840
14452
14971
14491
14745
14161
14244
13703
13637
13197
12923
12780
12557
12575
12175
12414
11924
12342
11878
12354
11880
12383
11993
12505
12167
12534
12360
12626
12591
12744
12885
12754
12874
12609
13028
12737
13291
12934
13333
12843
13240
12717
12926
12423
12522
12072
12581
12137
12566
12226
12832
13188
14400
15826
16124
14280
9755
10258
11058
12283
12219
12667
12349
12910
12493
12946
12539
13022
12722
13020
12846
13069
13076
13264
13404
13378
13736
13663
14128
13868
14328
13868
14243
13703
14065
13493
13670
12968
12970
12456
12473
12204
12110
12126
12028
12362
12200
12554
12194
12712
12356
12923
12489
13017
12608
13035
12675
12984
12752
12940
12878
12948
13084
12922
13014
12680
13069
12660
13055
13137
13384
13191
13529
13125
13456
12881
13204
12774
13269
12875
13367
13057
13533
13368
14271
15672
17746
17616
13091
11255
11761
12960
12957
13445
13081
13608
13191
13707
13251
13704
13399
13778
13585
13861
13846
13987
14163
14152
14508
14434
14936
14721
15284
14855
15350
14784
15102
14499
14772
14135
14137
13461
13238
12845
12639
12609
12422
12678
12436
12890
12515
12993
12587
13125
12686
13169
12793
13183
12876
13135
12887
13009
12767
13177
12789
13113
12844
13051
12961
12987
13027
12778
13053
12866
13346
13120
13628
13099
13533
13076
13467
12922
13197
12790
13030
12786
12974
12909
12955
13205
13651
14759
16407
17481
14692
10856
10852
12354
12709
13407
13133
13617
13353
13694
13440
13672
13642
13680
13860
13831
14237
14069
14631
14381
15078
14857
15525
15279
15892
15654
16105
15648
15716
15323
15258
14924
14561
14352
13817
13797
13246
13409
12801
13186
12768
13297
13121
13561
13166
13637
13187
13649
13170
13559
13084
13403
13048
13386
13185
13335
13293
13367
13437
13306
13628
13297
13600
13102
13446
12977
13508
13138
13650
13221
13605
13260
13496
13153
13155
12970
12827
12873
12670
12983
12643
12995
12595
13581
13988
16440
16602
14510
9783
10651
11478
12595
12637
12885
12936
12877
13039
12838
13113
12865
13342
12970
13562
13173
13787
13534
14217
13984
14560
14466
14931
14963
15195
15189
15278
14859
14996
14590
14434
14055
13776
13606
13167
13210
12728
12968
12479
12833
12322
12819
12356
12812
12410
12821
12490
12721
12485
12643
12535
12420
12493
12287
12610
12311
12667
12182
12604
12153
12665
12266
12827
12581
13096
12891
13258
13046
13073
12976
12849
12966
12774
13052
12733
13119
12769
13311
13441
15189
16613
17001
13835
9910
10497
11890
12661
13103
13158
13229
13457
13292
13576
13254
13790
13447
13986
13591
14058
13889
14490
14246
14823
14495
15129
14877
15503
15150
15467
15048
15145
14799
14674
14254
13833
13685
13168
13179
12646
12862
12301
12678
12207
12657
12231
12756
12415
12828
12635
12900
12750
12945
12977
12940
13116
12811
13036
12679
13098
12736
13345
12978
13501
13085
13577
13112
13360
13010
13124
12913
13030
13066
13024
13198
13009
13379
13784
15569
16925
17532
13969
10351
10771
12186
12578
13169
12972
13352
13327
13423
13512
13405
13392
13747
13678
13856
13947
13980
14250
14254
14681
14514
15154
14974
15539
15165
15639
15081
15390
14776
14902
14204
14006
13374
13126
12884
12644
12664
12267
12463
12100
12525
12125
12677
12302
12865
12430
12872
12474
12788
12523
12740
12619
12680
12630
12503
12653
12493
12939
12756
13314
12932
13462
12996
13356
12772
13125
12736
13083
12819
13049
12951
13048
13174
13635
14982
16651
17572
15041
10821
10867
12340
12641
13385
13056
13671
13406
13986
13611
14114
13643
14139
13818
14222
13998
14384
14362
14583
14749
14882
15246
15209
15680
15336
15681
15164
15469
14728
14905
14066
14103
13370
13373
12827
12934
12682
12656
12598
12532
12710
12476
12770
12447
12948
12510
12987
12524
13017
12646
13114
12691
13032
12758
12897
12668
12698
12756
12730
13022
12882
13266
13014
13503
13007
13383
12882
13322
12844
13295
12925
13199
12895
13162
13057
13994
15749
17231
17388
13063
10941
12092
12898
13201
13461
13274
13701
13417
13883
13554
14054
13619
14153
13781
14339
14069
14533
14360
14746
14736
15057
15240
15353
15649
15457
15632
15176
15460
14811
14870
13932
13991
13163
13293
12610
12780
12327
12437
12220
12254
12266
12235
12430
12220
12559
12242
12773
12413
12917
12444
12935
12497
12935
12549
12884
12580
12772
12545
12626
12592
12546
12920
12831
13150
12868
13303
12832
13271
12766
13129
12744
13207
12863
13446
13100
13752
13342
14725
16053
17929
17271
13225
10888
11835
12648
13085
13287
13138
13486
13234
13744
13331
13910
13564
14158
13811
14347
13993
14461
14262
14663
14659
15041
15291
15424
15723
15496
15837
15390
15630
14957
15094
14217
14209
13284
13292
12642
12786
12363
12529
12237
12315
12386
12194
12326
12123
12477
12235
12365
12094
12421
12158
12626
12365
12654
12234
12632
12256
12599
12220
12438
12342
12474
12498
12685
12775
12948
12992
13087
13288
13217
13529
13152
13524
13070
13516
13052
13325
13051
13190
12816
13137
12888
13126
13027
13394
13991
14646
16147
16001
14630
10894
11544
12247
13410
13212
13571
13413
13768
13623
13971
13709
13979
13773
13960
14056
13985
14154
13952
14291
14117
14601
14352
15022
14889
15485
15161
15598
15291
15508
15034
14821
14193
13801
13382
13006
12846
12473
12628
12311
12617
12299
12666
12320
12729
12327
12682
12385
12729
12416
12876
12511
12999
12667
13002
12727
12913
12823
13080
12872
12912
12819
12794
12874
12735
12941
12837
13197
12905
13245
12825
13313
12973
13459
13200
13512
13210
13460
13294
13395
13209
13152
13128
12914
13083
12845
13214
12962
13546
13879
14690
15615
16043
14303
11376
11315
12653
13225
13637
13807
13898
14019
13894
14115
13959
14297
13992
14369
14114
14522
14172
14522
14150
14502
14446
14861
14971
15342
15593
15828
15880
15682
15488
15422
14937
14497
14014
13435
13188
12741
12802
12377
12599
12174
12454
12047
12400
12056
12393
12157
12474
12362
12523
12549
12638
12637
12458
12634
12482
12796
12534
12948
12705
12988
12639
13046
12793
13060
12767
12998
12809
12931
12863
12936
13102
13060
13220
13036
13176
12883
13145
12793
13113
12730
13118
12875
13226
13005
13127
12915
12948
12809
12774
12801
12744
12975
12972
13605
14179
15943
16007
15627
11431
10961
11602
13074
13117
13544
13341
13708
13621
14012
13853
14060
13922
14146
14074
14107
14269
14306
14508
14477
14821
14757
15198
15094
15495
15257
15543
15261
15355
14913
14865
14305
14082
13635
13323
13103
12858
12850
12534
12769
12515
12778
12527
12855
12596
12889
12745
13083
12976
13164
13047
13187
13154
13158
13235
13066
13195
13001
13256
12980
13249
12973
13260
13003
13253
12936
13187
12995
13128
12959
12991
12989
13093
13327
13183
13405
13280
13359
13401
13365
13269
13271
13107
13350
13123
13421
13173
13597
13744
15061
16362
16863
15685
11811
11641
12668
13365
13571
13618
13652
13804
13652
13852
13651
13974
13724
14036
13740
14095
13892
14243
14179
14583
14540
14884
15063
15374
15592
15617
15775
15528
15707
15303
15302
14581
14486
13694
13663
13162
13288
12812
12919
12636
12685
12519
12493
12455
12322
12504
12352
12689
12525
12843
12553
12952
12699
13073
12781
12931
12733
13085
12832
13169
12818
13190
12895
13077
12896
12898
12711
12731
12768
12727
12916
12773
12973
12841
13391
13319
13892
13779
14074
13716
13827
13340
13289
12766
12558
12377
12273
12269
12167
12402
12228
12927
13816
15972
15433
12583
10204
11252
11822
12451
12263
12667
12565
12685
12632
12701
12764
12741
12947
12824
13190
12975
13354
13196
13617
13365
13882
13909
14466
14449
14857
14795
14908
14791
14661
14592
14116
13854
13171
13120
12633
12466
12313
12426
12179
12412
12073
12360
12086
12389
12114
12487
12217
12571
12272
12501
12317
12398
12358
12384
12394
12265
12377
12283
12562
12359
12604
12295
12675
12370
12701
12429
12762
12561
12898
12783
12882
12841
12865
12923
12815
13022
12806
13063
12761
13037
12663
13169
12986
13385
13181
13496
13226
13477
13282
13400
13246
13223
13358
13284
13483
13431
13838
14129
15395
16615
17299
14671
11797
11975
13067
13355
13668
13573
14006
13789
14125
13835
14058
13880
14000
13928
14077
14164
14196
14489
14414
14828
14776
15283
15238
15757
15598
16029
15717
15960
15533
15456
14860
14599
14079
13719
13382
13087
13051
12733
12844
12534
12788
12488
12779
12430
12725
12397
12745
12476
12754
12588
12801
12783
12904
12963
12870
12930
12797
12988
12755
13037
12673
12927
12577
12887
12636
13001
12651
12953
12801
12997
12873
12945
12971
12848
12945
12746
12937
12635
12809
12834
12941
12775
13098
13010
13300
13047
13377
13067
13403
13059
13359
13028
13272
13026
13200
13173
13328
13531
13985
15019
16379
16843
15108
11522
11405
12531
12910
13507
13244
13675
13526
13806
13606
13773
13700
13838
13831
13816
14010
13924
14180
14035
14481
14380
14904
14863
15423
15349
15868
15594
15848
15503
15443
15061
14653
14151
13734
13485
13036
13048
12668
12770
12377
12697
12350
12667
12285
12568
12358
12636
12520
12823
12520
12899
12634
12910
12760
12989
12874
12970
12928
12944
13077
12883
13087
12911
13208
12971
13329
12991
13430
13117
13339
13027
13254
12939
13115
13096
13237
13224
13225
13326
13223
13412
13173
13422
13112
13352
13100
13406
13220
13584
13264
13433
13139
13329
13114
13130
13085
12928
12995
12860
13135
12957
13467
13463
14528
15601
17271
16887
13731
11740
12713
13238
13769
13722
13929
14015
14061
14059
13977
14253
14011
14256
14129
14227
14089
14282
14165
14081
14085
14837
14873
15342
15139
15555
15237
15582
15179
15097
14609
14195
13541
13005
12538
12170
12200
11873
12055
11731
12046
11766
12187
11938
12373
12061
12374
12243
12576
12477
12627
12589
12617
12701
12608
12680
12436
12621
12326
12658
12272
12641
12269
12676
12424
12692
12400
12642
12554
12702
12723
12774
12870
12767
12943
12819
13123
12936
13304
12902
13273
12979
13208
12941
13334
13203
13545
13478
13787
13581
14003
13721
13834
13568
13609
13463
13474
13460
13389
13715
13743
14583
15575
17208
16827
13982
11770
12606
12997
13632
13409
13711
13598
13793
13787
13832
13890
13783
13919
13781
14074
13860
14151
13925
14402
14145
14597
14483
15008
14951
15404
15342
15499
15333
15266
15027
14523
14228
13668
13547
12937
12976
12439
12650
12222
12516
12173
12529
12280
12568
12438
12592
12561
12672
12709
12662
12908
12741
13066
12868
13127
12850
13026
12854
13059
12816
13010
12679
12943
12594
12936
12672
12991
12703
12901
12765
12967
12876
12898
12977
13008
13122
12947
13209
12956
13322
13032
13319
12991
13378
13137
13620
13472
13667
13521
13690
13574
13616
13506
13271
13274
13094
13343
13092
13429
13272
14092
14494
16360
16594
15333
11414
11747
12333
13112
13194
13308
13374
13388
13594
13338
13644
13497
13716
13459
13904
13612
14031
13807
14227
14011
14383
14411
14753
14883
15459
15232
15459
15249
15262
14881
14612
14173
13627
13299
12848
12810
12461
12581
12189
12374
12068
12442
12151
12514
12299
12591
12454
12626
12516
12596
12660
12717
12867
12767
12949
12767
13102
12781
13160
12955
13299
12960
13224
12950
13263
13031
13228
13142
13239
13218
13097
13251
13158
13425
13267
13501
13191
13551
13225
13590
13227
13526
13248
13533
13295
13560
13506
13667
13731
13691
13736
13611
13830
13536
13737
13291
13406
13277
13515
13339
13740
13618
14500
14963
16808
16730
14799
11597
12218
12794
13521
13508
13586
13635
13630
13745
13675
13865
13617
13917
13727
14004
13745
14118
13841
14270
14211
14741
14814
15275
15412
15724
15814
15829
15870
15607
15579
15035
14874
14071
13911
13223
13236
12642
12776
12433
12596
12302
12447
12358
12542
12432
12402
12606
12504
12706
12551
12864
12611
12952
12678
13145
12842
13064
12797
13149
12917
13032
12932
13195
12899
13119
12851
13095
12951
13027
12971
12979
13007
12830
12973
12718
12907
12647
12994
12754
13255
13039
13376
13073
13279
13035
13272
13276
13574
13577
13599
13732
13621
13696
13409
13465
13010
13276
13023
13304
13031
13434
13672
14910
16239
16562
13858
11366
11836
12650
13119
13056
13296
13182
13399
13102
13433
13150
13388
13138
13513
13290
13664
13550
13787
13732
13965
14073
14244
14538
14713
15149
15066
15356
15121
15378
15051
14967
14483
14240
13654
13670
13260
13436
13038
13253
13032
13336
13247
13575
13474
13704
13732
13823
13911
13884
13987
13833
14029
13740
13945
13684
13922
13692
14050
13778
13990
13726
13887
13729
13776
13649
13561
13549
13443
13638
13442
13606
13298
13575
13336
13593
13197
13448
13053
13238
13015
13161
13172
13387
13375
13489
13612
13593
13698
13572
13665
13370
13566
13235
13486
13228
13682
14027
15483
16732
16562
14969
11131
11864
13151
13559
13895
13797
14028
14060
14125
14151
14116
14219
14090
14326
14179
14481
14302
14645
14422
14889
14779
15256
15273
15677
15691
15997
15942
15898
15761
15398
15125
14531
14272
13591
13439
12923
12921
12400
12589
12234
12302
12012
12252
12113
12270
12236
12306
12375
12416
12594
12452
12704
12482
12681
12476
12798
12533
12780
12516
12764
12544
12694
12501
12526
12437
12533
12555
12478
12604
12475
12596
12452
12710
12562
12926
12710
12927
12750
12898
12541
12725
12313
12478
12233
12486
12299
12613
12651
13134
14231
15904
15797
15073
11202
10380
11587
12329
13084
12897
13299
13129
13503
13322
13645
13455
13733
13647
13900
13877
13975
14082
14107
14375
14389
14722
14770
15296
15267
15677
15444
15724
15350
15383
14904
14801
14250
13915
13450
13225
13042
12827
12855
12586
12629
12367
12597
12313
12603
12365
12652
12402
12694
12480
12722
12615
12756
12747
12793
12637
12811
12634
12846
12782
12732
12699
12735
12874
12803
13012
12830
13111
12786
12995
12780
13097
12907
13359
13201
13462
13340
13479
13384
13371
13299
13155
13272
13115
13272
13090
13407
13338
13994
14717
16510
16627
15903
11601
11374
12064
12980
13222
13470
13866
13597
13361
13239
13564
13493
13800
13628
13958
13729
14052
13912
14356
14327
14762
14872
15237
15331
15608
15788
15806
15907
15591
15573
15114
14926
14165
13910
13220
13087
12723
12700
12288
12394
11990
12205
11934
12184
11946
12212
12090
12326
12301
12400
12450
12504
12641
12568
12653
12387
12504
12218
12485
12252
12502
12187
12437
12260
12554
12366
12528
12463
12464
12520
12590
12837
12833
13015
12808
13116
12967
13272
12907
13101
12792
13054
12822
13002
12793
13017
13168
13563
14357
15468
16662
16207
13314
11214
12136
12766
13492
13288
13640
13511
13790
13566
13884
13788
13906
13909
13988
14006
13966
13732
13685
13472
13491
13472
13392
13581
13501
13602
13271
13410
12937
12866
12241
12043
11307
11206
10588
10575
10388
10444
10357
10512
10556
10587
10785
10726
11064
10910
11252
11160
11535
11415
11759
11513
11821
11619
11941
11814
11867
11836
11912
12017
12027
12167
12048
12222
12104
12393
12200
12535
12341
12650
12571
12911
12817
13064
12992
13224
13284
13411
13347
13322
13386
13357
13595
13453
13784
13672
14036
14122
15158
16432
17354
16401
13149
11944
13102
13638
14270
14146
14424
14257
14425
14399
14527
14574
14594
14740
14687
14850
14711
15034
14883
15193
15119
15495
15469
15893
15894
16292
16116
16225
16020
15862
15595
15139
14762
14169
13980
13502
13563
13126
13207
12784
12951
12745
12972
12758
13052
12911
13096
13031
13070
13162
13147
13301
13304
13564
13429
13754
13553
13838
13670
14075
13926
14260
14094
14419
14417
14557
14509
14584
14526
14397
14313
14438
14362
14512
14493
14482
14587
14461
14571
14285
14349
13942
14118
13679
13829
13519
13790
13602
14037
14737
15822
16780
16419
13623
11213
11952
12775
13478
13378
13670
13456
13691
13387
13592
13350
13659
13522
13735
13640
13778
13766
13841
13955
14038
14301
14366
14772
14739
15141
14958
15185
14824
14965
14474
14386
13804
13714
13297
13213
12970
12850
12831
12715
12803
12639
12841
12663
12958
12690
12927
12707
12970
12697
12885
12662
12917
12606
12894
12658
12885
12662
12753
12566
12659
12604
12666
12674
12586
12675
12545
12710
12487
12636
12383
12787
12629
12940
12692
13042
12874
13062
12891
12898
12841
12808
12779
12652
12822
12782
13030
12939
13502
14143
15740
16134
15650
11792
11152
11945
13010
13266
13528
13604
13639
13710
13709
13881
13845
13993
13821
14078
13905
14210
13955
14358
14276
14660
14621
15113
15224
15476
15570
15583
15586
15367
15275
14856
14400
14055
13623
13206
13023
12603
12583
12194
12357
12123
12300
12045
12373
12155
12385
12126
12362
12157
12258
12205
12209
12219
12156
12265
12117
12315
12143
12419
12192
12541
12418
12781
12649
12965
12851
13135
13025
13145
13125
13130
13243
13211
13451
13446
13696
13693
14046
13824
14074
13704
13947
13638
13829
13592
13774
13673
13833
13954
14538
15395
16621
16982
15529
11830
11603
12755
13248
13751
13566
13916
13708
13940
13738
14103
13950
14331
14116
14331
14131
14363
14248
14443
14467
14648
14781
14883
15168
15057
15286
15057
15228
14811
14849
14288
14110
13470
13255
12672
12562
12192
12194
12043
12050
12060
11919
12075
11888
12138
11940
12201
11979
12260
12096
12497
12260
12486
12287
12450
12320
12468
12409
12388
12433
12302
12448
12339
12533
12269
12425
12110
12500
12254
12689
12557
12909
12776
12944
12837
12902
12832
12724
12695
12613
12700
12536
12813
12931
13247
14061
15629
17074
17367
14495
11351
11809
13026
13376
13750
13613
13934
13724
13897
13740
13891
13945
14034
14143
14155
14294
14197
14546
14493
14966
14910
15407
15326
15849
15861
16161
15966
16113
15846
15732
15269
14818
14373
13873
13772
13404
13422
12989
13126
12747
13017
12797
13021
12795
13014
12829
12973
12836
12910
12901
12928
12919
12837
12967
12780
12944
12638
12864
12573
12826
12550
12820
12714
13123
13012
13302
13275
13619
13365
13548
13314
13499
13384
13532
13562
13568
13655
13667
14032
14594
16429
17873
17758
15467
11541
11894
13119
13689
14193
14076
14414
14491
14754
14840
14946
15187
15208
15424
15281
15514
15373
15701
