14714
15285
15106
15780
15378
16190
15566
16259
15433
15921
14889
15050
13922
13904
13074
13068
12754
12603
12599
12241
12587
12062
12541
11891
12606
11879
12627
11893
12554
11903
12466
11986
12484
12184
12398
12343
12405
12534
12304
12714
12315
12892
12303
12960
12368
12992
12400
13001
12432
12970
12576
13001
12773
12952
12900
12839
13023
12725
13100
12593
13078
12519
13132
12491
13182
12647
13375
13035
13554
13226
13556
13420
13469
13474
13623
13179
13523
13315
13385
13515
13657
14446
14679
16599
16686
14986
11375
12314
12291
13277
12729
13467
12901
13410
12919
13287
13149
13259
13339
13183
13531
13223
13824
13320
14113
13544
14461
13906
14748
14344
15306
14922
15506
15221
15477
15339
15253
15017
14321
14249
13431
13674
12808
13320
12458
13121
12383
13066
12411
12918
12437
12932
12641
12796
12657
12572
12756
12471
12946
12449
12998
12363
13061
12432
13168
12478
13172
12614
13370
12714
13422
12753
13444
12843
13418
12974
13366
13046
13291
13308
13186
13368
13135
13631
13317
14039
13430
14127
13491
14148
13480
14074
13454
13858
13416
13793
13590
13702
13869
14261
15832
17084
17274
15427
11481
10848
12505
12676
13720
13225
13861
13423
13942
13604
13870
13746
13834
13857
13692
14072
13703
14243
13741
14506
13985
14795
14324
15223
14857
15633
15270
15698
15357
15503
15162
14802
14549
13780
13690
12858
12733
12669
12594
12303
12496
12083
12542
12071
12745
12169
12891
12272
12949
12425
13083
12665
13092
12754
12955
12884
12801
13027
12834
13122
12692
13169
12559
13117
12474
13128
12566
13300
12880
13439
13096
13406
13194
13305
13244
13121
13291
13012
13379
12851
13423
12942
13737
14298
16620
16339
16304
12087
10373
11214
12436
12831
13273
13409
13329
13627
13413
13909
13431
13981
13364
14010
13456
14073
13613
14299
13963
14527
14376
15204
14867
15627
15256
15776
15368
15601
15247
15042
14674
14041
13794
13014
13087
12306
12737
11978
12447
11730
12317
11745
12251
11829
12339
12101
12385
12349
12317
12535
12339
12665
12320
12757
12294
12919
12289
12790
12201
12781
12171
12737
12463
12876
12672
12848
12770
12671
12785
12442
12733
12313
12807
12335
12941
12400
13212
12798
14577
15845
16706
15978
12031
10515
11786
12646
13029
13383
13215
13754
13389
13958
13456
14120
13813
14251
13815
14393
13897
14614
14157
14865
14396
15123
14876
15612
15441
15873
15776
15930
15770
15514
15427
14639
14595
13691
13783
12760
13124
12308
12786
12082
12591
12141
12576
12176
12417
12287
12360
12493
12356
12639
12261
12755
12300
12890
12265
12880
12211
12784
12175
12776
12301
12803
12616
13012
12877
12945
13045
12827
13101
12692
13140
12552
13173
12543
13222
12620
13399
12949
14151
15000
17094
17536
15706
11340
11550
12235
13101
12886
13207
13156
13246
13362
13188
13534
13175
13787
13305
13955
13328
13985
13464
14314
13835
14568
14336
15008
14983
15387
15374
15410
15567
15261
15427
14660
14735
13682
13936
13001
13449
12594
13067
12425
12874
12416
12750
12399
12485
12466
12440
12691
12494
12967
12501
13115
12536
13266
12624
13253
12539
13140
12532
12977
12583
12935
12669
12748
12694
12655
13047
12776
13222
12758
13381
12751
13366
12576
13160
12533
13181
12606
13363
12756
13631
13118
14496
15510
17877
17393
13454
11586
12186
12685
12793
13079
12834
13337
12827
13451
12813
13516
12832
13531
12889
13549
13083
13640
13377
13862
13875
14176
14466
14637
15168
15027
15640
15093
15684
14923
15363
14279
14522
13462
13670
12816
12999
12517
12699
12468
12437
12594
12400
12762
12398
12938
12357
13017
12351
13021
12279
12980
12325
12863
12432
12892
12569
12751
12631
12597
12737
12483
12943
12469
12678
12791
12877
12638
12897
12355
12961
12406
13270
12641
13416
12780
13550
12935
13544
13008
13407
12984
13186
13044
13024
13210
12985
13598
13496
14450
15619
18115
16868
13568
11795
12905
12611
13311
12942
13401
13171
13310
13245
13144
13461
13123
13576
13072
13769
13171
13949
13345
14223
13669
14503
14176
15022
14857
15386
15331
15557
15525
15284
15330
14542
14567
13549
13759
12724
13217
12350
12982
12215
12866
12290
12787
12449
13020
12378
13084
12501
12951
12542
12945
12805
12908
12918
12809
13075
12692
13153
12656
13245
12644
13366
12634
13353
12726
13249
12666
13148
12797
13085
12963
13020
13074
12925
13204
12752
13348
12817
13566
13002
13732
13099
13750
13108
13623
13073
13451
13080
13241
13134
13218
13416
13329
13939
14009
14951
16449
18139
16034
12961
12082
13219
12972
13592
13190
13582
13300
13453
13386
13327
13491
13251
13671
13268
13883
13395
14064
13807
14333
14117
14839
14536
15373
14896
15606
15065
15677
15062
15449
14716
14684
13975
13705
13324
13013
12927
12597
12845
12355
12867
12283
12875
12300
12961
12393
12933
12425
12878
12524
12791
12595
12783
12826
12763
13023
12793
13202
12768
13255
12675
13252
12683
13246
12702
13214
12767
13212
12883
13140
13002
13046
13113
12943
13208
12916
13319
12777
13203
12591
13150
12655
13385
12924
13504
13069
13473
13259
13507
13334
13216
13028
13537
13251
13556
13494
13746
14356
14663
16543
17143
16131
11978
12436
12576
13579
13141
13788
13285
13801
13395
13797
13582
13794
13722
13804
13976
13871
14267
13921
14407
14045
14730
14330
15108
14780
15568
15224
15757
15313
15513
15127
15014
14519
14025
13645
12982
12925
12294
12632
12028
12443
11888
12475
11953
12473
12027
12456
12130
12496
12351
12528
12539
12503
12698
12466
12759
12355
12845
12400
12960
12441
12976
12502
12962
12534
13069
12529
13094
12587
13121
12679
13017
12715
13143
13000
13067
13014
12846
13087
12973
13555
13315
13824
13372
13851
13358
13878
13312
13731
13317
13596
13304
13509
13352
13512
13745
14345
15424
16570
17094
13843
11584
11591
12883
12746
13368
12941
13386
13007
13399
13193
13391
13356
13389
13546
13471
13783
13528
14073
13752
14416
13965
14719
14502
15292
14960
15572
15254
15606
15314
15465
15051
14610
14360
13787
13692
13149
12867
12751
12747
12521
12799
12376
12886
12347
12986
12315
13124
12413
13061
12416
13027
12538
12972
12646
12879
12818
12764
12920
12642
13024
12548
13121
12448
13108
12424
13084
12373
13133
12508
13016
12469
12854
12618
12916
13033
12979
13191
12922
13372
12877
13545
12845
13471
12768
13521
12887
13569
13100
13809
14144
15904
17332
16972
14881
10375
11465
12012
13278
13081
13859
13240
13973
13328
13974
13431
13998
13468
13950
13730
14182
13719
14495
13994
14578
14350
14793
14846
15040
15362
15300
15709
15275
15690
15032
15423
14414
14594
13448
13806
12911
13148
12438
12715
12314
12453
12382
12332
12464
12241
12674
12270
12842
12227
12883
12268
13016
12402
13044
12455
12959
12540
12829
12559
12690
12658
12657
12982
12759
13304
12899
13480
12751
13270
12558
13279
12646
13244
12725
13274
12957
13301
13346
14104
15791
17120
16702
14335
10508
10678
12306
12426
13499
13212
13750
13325
13896
13314
13979
13366
14083
13479
14177
13740
14226
13910
14333
14329
14675
14989
15106
15610
15503
16027
15582
16080
15253
15641
14603
14762
13650
13740
12862
13056
12469
12568
12321
12298
12331
12196
12569
12235
12751
12277
12928
12336
13031
12400
13112
12545
13019
12525
12845
12489
12638
12519
12521
12769
12623
13006
12585
13183
12597
13217
12485
13031
12295
12833
12337
12877
12441
12854
12749
13081
13684
15088
16575
16886
12755
10591
11509
12350
12993
12940
13403
13038
13644
13129
13769
13161
13869
13206
13903
13391
13982
13704
14168
14055
14335
14552
14758
15137
15121
15803
15388
15992
15377
15874
15016
15308
14203
14307
13324
13492
12775
12988
12742
12743
12666
12413
12674
12313
12722
12217
12822
12203
12884
12288
13064
12428
12913
12419
12860
12528
12686
12541
12625
12714
12540
12926
12558
13135
12637
13304
12617
13199
12497
13066
12526
13266
12662
13288
12686
13503
13287
14914
16206
17325
16269
11864
11358
12119
12861
12963
13461
13153
13705
13163
13813
13237
13824
13332
14103
13552
14126
13764
14219
14086
14377
14372
14541
14948
14924
15532
15231
15774
15255
15807
15010
15280
14219
14345
13366
13544
12820
12994
12714
12789
12679
12508
12707
12400
12808
12265
12739
12176
12829
12107
12810
12169
12816
12320
12788
12349
12711
12569
12575
12652
12518
12847
12562
13155
13098
13107
13088
13270
12850
13279
12679
13207
12570
13237
12568
13185
12603
13384
13100
14483
15925
17390
17148
12875
11554
11952
12826
12767
13393
12902
13583
13001
13704
13093
13798
13225
13805
13430
13898
13660
13932
13975
14188
14420
14413
14892
14694
15573
15154
15760
15143
15745
14965
15332
14416
14462
13532
13474
12987
12915
12655
12677
12522
12343
12416
12183
12443
12150
12504
11999
12464
12054
12451
12084
12541
12219
12632
12318
12838
12495
12944
12548
12939
12702
12945
12709
12800
12863
12859
13020
12864
13088
12734
13033
12565
13027
12731
13220
12857
13191
12865
13256
13104
13218
13051
12989
12981
12916
13124
12974
13267
13091
13614
13809
14944
16342
17816
15590
12370
12221
13041
13251
13534
13576
13598
13660
13547
13717
13493
13815
13520
13877
13566
13964
13647
14075
13829
14183
14172
14581
14637
15001
15223
15336
15511
15357
15570
15195
15157
14433
14036
13512
13403
12901
12978
12562
12841
12441
12763
12356
12690
12395
12761
12478
12736
12611
12737
12718
12727
12868
12723
12957
12707
13054
12783
13187
12815
13195
12847
13249
12943
13318
13170
13399
13238
13330
13372
13298
13439
13254
13481
13185
13506
13166
13486
13085
13464
13115
13457
13147
13388
13134
13210
13167
13228
13389
13369
13521
13294
13520
13209
13559
13168
13540
13050
13418
13063
13471
13211
13558
13594
14073
14569
16506
18233
15617
12528
12661
13043
13179
13286
13136
13412
13083
13445
13031
13454
13028
13494
13093
13552
13253
13684
13585
13939
13978
14132
14365
14418
14882
14806
15343
15015
15484
14968
15335
14660
14775
13839
13758
13086
13096
12708
12725
12663
12646
12769
12578
12852
12482
12827
12383
12852
12355
12780
12341
12723
12335
12698
12495
12731
12602
12707
12749
12705
12903
12644
12970
12578
13010
12507
13005
12497
12992
12524
13057
12679
13147
12619
13172
12714
13218
12844
13326
13048
13346
13252
13380
13431
13321
13578
13320
13746
13422
13935
13380
13987
13524
14273
14013
14586
14266
14630
14431
14619
14482
14464
14429
14227
14283
14166
14433
14265
14800
14801
15826
17933
19853
17796
14303
13559
14346
14247
14585
14442
14562
14491
14433
14512
14314
14553
14177
14558
14192
14632
14167
14636
14308
14862
14625
15096
15047
15498
15614
15867
15981
15905
16019
15635
15732
15052
14613
14023
13698
13180
13228
12733
12954
12467
12827
12410
12859
12470
12814
12437
12775
12550
12710
12545
12545
12518
12381
12507
12181
12429
12065
12475
12086
12489
12035
12465
12035
12469
12175
12456
12232
12409
12408
12475
12578
12500
12807
12609
13033
12701
13129
12654
13094
12655
13014
12564
12946
12650
12928
12786
12870
12846
12818
13025
12980
13309
13060
13438
13045
13448
12910
13213
12678
13058
12701
13057
12828
13185
13224
14440
15663
17568
17201
13068
11582
12163
12652
12813
13053
12920
13224
12773
13172
12786
13248
12839
13269
12867
13293
13098
13410
13409
13618
13792
13907
14298
14259
14831
14651
15306
14921
15475
14918
15256
14498
14516
13671
13505
12885
12769
12490
12349
12386
12256
12542
12206
12570
12128
12596
12101
12615
12152
12629
12201
12634
12329
12632
12472
12680
12697
12585
12714
12430
12722
12309
12755
12303
12787
12271
12831
12388
14484
14426
14384
14195
13911
13912
13449
13665
13154
13484
12885
13321
12729
13140
12571
13020
12690
13177
13013
13221
13189
13203
13290
13133
13403
13035
13337
12880
13370
12864
13416
13124
13804
13992
15839
17237
17331
12862
11802
12368
12811
13206
13084
13502
13226
13630
13250
13631
13391
13703
13406
13637
13492
13693
13670
13795
13927
13964
14280
14294
14707
14728
15275
15170
15552
15178
15519
15069
15133
14380
14299
13556
13464
12710
13017
12430
12791
12341
12638
12372
12569
12391
12497
12499
12409
12647
12392
12796
12401
12813
12307
12844
12338
12859
12439
12871
12537
12898
12769
12907
12876
12902
13039
12863
13130
12835
13261
12907
13324
12918
13396
13002
13338
13003
13423
13199
13369
13273
13313
13308
13330
13585
13520
13931
13656
14102
13655
14071
13614
13931
13378
13607
13167
13454
13253
13528
13582
13838
15051
16566
17239
16613
12640
10966
12340
12628
13482
13355
13769
13458
13857
13430
13859
13486
13950
13553
14002
13805
14185
14070
14322
14396
14517
14769
14785
15291
15268
15791
15536
15898
15511
15687
15174
15161
14504
14239
13581
13277
12931
12727
12562
12347
12400
12131
12362
12076
12450
12178
12444
12134
12513
12264
12583
12404
12571
12411
12497
12516
12456
12486
12371
12618
12439
12630
12342
12741
12475
12849
12519
12859
12575
12867
12721
12829
12746
12823
12803
12702
12826
12752
13030
13257
13353
13364
13522
13430
13633
13291
13435
13097
13435
13070
13513
13233
13804
13906
15403
16730
17223
15949
11551
11374
12216
12981
13193
13468
13255
13581
13271
13732
13327
13777
13403
13895
13531
13946
13738
14094
13975
14243
14315
14501
14850
14981
15501
15412
15869
15608
16017
15477
15706
14978
14885
14036
13820
13164
12966
12581
12465
12437
12265
12384
12155
12437
12139
12525
12162
12596
12206
12615
12318
12738
12415
12800
12417
12860
12422
12830
12459
12813
12558
12770
12551
12658
12727
12707
12839
12643
12931
12556
13015
12594
13057
12572
13122
12761
13332
12973
13441
13219
13466
13323
13388
13366
13152
13267
13006
13366
12969
13472
13193
13883
14168
16256
17423
17717
13100
12019
12371
13185
13331
13446
13630
13512
13787
13510
13925
13521
14019
13588
14190
13807
14350
13972
14459
14313
14763
14759
15170
15372
15570
15968
15937
16310
15973
16257
15727
15544
14892
14635
13863
13774
13055
13285
12709
13021
12497
12728
12338
12646
12386
12528
12428
12510
12540
12391
12516
12327
12631
12265
12682
12307
12770
12338
12759
12325
12702
12375
12686
12472
12672
12543
12614
12616
12506
12763
12524
12888
12643
13097
12748
13259
12855
13280
12875
13153
12704
12938
12756
12842
12870
12951
13176
13100
14358
15748
17142
16734
13484
10357
11586
12103
12954
12916
13250
13210
13399
13405
13450
13422
13795
13704
13899
13889
14049
14135
14190
14378
14315
14720
14673
15309
15163
15797
15395
15863
15301
15685
15031
15125
14322
14159
13478
13291
12917
12736
12746
12446
12672
12314
12701
12211
12688
12161
12727
12234
12807
12363
12843
12566
12893
12774
12879
12892
12832
13050
12828
13135
12749
13154
12690
13165
12737
13173
12868
13226
12900
13102
12980
13118
13254
13291
13428
13290
13504
13203
13447
13022
13301
12912
13277
12901
13326
13021
13498
13196
14371
15687
18111
18150
14891
11985
12396
12726
12999
13073
13100
13269
13031
13242
13010
13413
13082
13543
13285
13708
13351
13771
13566
13981
13917
14260
14323
14577
14793
14903
15200
15082
15257
14953
14947
14503
14331
13674
13496
12905
12925
12491
12602
12361
12514
12348
12438
12419
12454
12512
12483
12613
12470
12664
12478
12763
12535
12770
12554
12847
12647
12840
12667
12831
12698
12764
12728
12734
12815
12890
12797
12867
12736
12758
12817
12869
13155
13116
13392
13232
13499
13253
13470
13146
13332
13045
13264
13042
13202
13140
13229
13429
14026
15659
17310
18017
14113
11779
11786
12846
12793
13212
13038
13282
13097
13361
13222
13470
13437
13592
13690
13657
13947
13761
14182
13960
14434
14206
14795
14674
15308
15190
15649
15503
15751
15549
15443
15166
14598
14250
13610
13501
12867
13063
12549
12915
12406
12818
12406
12772
12440
12697
12367
12822
12348
12747
12340
12688
12383
12644
12444
12576
12577
12501
12602
12358
12612
12245
12702
12258
12822
12335
12908
12414
12944
12451
12765
12420
12831
12768
12989
13046
12988
13152
12895
13274
12730
13121
12543
13088
12582
13144
12733
13233
13019
13583
14162
15766
17156
16633
12396
11049
11988
12390
13046
12843
13359
13145
13492
13210
13497
13327
13566
13436
13600
13616
13699
13843
13858
14194
14108
14556
14514
15122
15046
15583
15537
15903
15592
15716
15140
15109
14333
14194
13465
13345
12859
12797
12549
12552
12462
12415
12506
12382
12586
12362
12639
12338
12665
12302
12664
12318
12698
12519
12812
12702
12973
12930
12977
13043
12955
12975
12771
12995
12745
13088
12874
13221
12923
13355
13010
13207
12851
13071
12912
13046
13049
13156
13269
13163
13421
13343
14929
16710
17484
16703
12047
10447
11797
12257
13029
12987
13294
13251
13415
13392
13328
13395
13320
13437
13668
13681
13796
13949
13918
14143
14113
14625
14667
15292
15184
15725
15363
15730
15234
15458
14880
14770
14083
13814
13287
13005
12790
12524
12511
12141
12352
12014
12393
12002
12513
12143
12657
12331
12731
12416
12742
12504
12708
12666
12725
12745
12659
12846
12568
12861
12535
12990
12572
13007
12473
12755
12305
12678
12427
12891
12853
13121
13108
13150
13228
13060
13227
12869
13238
12844
13277
12833
13362
13070
13522
13727
16174
17695
18140
13532
11881
11932
12862
12842
13160
13071
13284
13259
13234
13324
13184
13488
13233
13630
13282
13703
13353
13900
13608
14174
13941
14478
14502
15003
15079
15275
15280
15182
15235
14848
14815
14096
14033
13239
13343
12726
12981
12521
12751
12483
12714
12566
12743
12699
12715
12783
12655
12809
12616
12968
12661
13070
12662
13113
12712
13152
12789
13177
12915
13219
13107
13234
13158
13183
13248
13085
13206
12955
13364
13472
13645
13639
13814
13557
13842
13412
13689
13193
13506
13075
13405
13100
13367
13218
13424
13886
15104
17153
17965
15740
11755
12079
12507
13287
13130
13605
13319
13713
13417
13737
13525
13808
13614
13793
13720
13819
13912
13934
14194
14176
14574
14561
15148
15002
15494
15206
15609
15175
15432
14945
14931
14289
13999
13454
13160
12883
12573
12540
12254
12421
12050
12446
12109
12536
12118
12630
12231
12642
12264
12576
12361
12609
12367
12851
12476
12813
12499
12786
12671
12813
12835
12809
12909
12675
12977
12569
12836
12463
12990
12783
13339
12993
13411
13054
13445
13194
13312
13156
13214
13282
13219
13439
13262
13608
13372
14196
14607
16885
17675
16667
11833
11928
12399
13197
13076
13264
13241
13213
13270
13126
13351
13092
13371
13020
13486
13152
13713
13430
14052
13747
14292
14079
14570
14608
15044
15096
15170
15251
15082
15189
14684
14687
13890
13925
13021
13006
12616
12820
12334
12738
12247
12753
12287
12707
12297
12730
12394
12681
12458
12630
12599
12632
12747
12598
12866
12569
12962
12586
12996
12530
12991
12594
13082
12730
13089
12827
12966
12801
13000
13118
13222
13465
13295
13538
13193
13594
13120
13468
12904
13339
12903
13352
12979
13349
13186
13636
14309
16005
17433
16730
12336
11127
12210
12535
13229
12962
13562
13152
13650
13296
13802
13514
13861
13672
13877
13866
13921
14027
14272
14241
14578
14607
14852
15074
15133
15481
15249
15511
15033
15317
14648
14742
13891
13962
13158
13253
12700
12788
12462
12596
12539
12554
12624
12411
12632
12381
12801
12501
12882
12403
12831
12452
12900
12551
12846
12566
12806
12676
12704
12694
12624
12845
12684
12959
12675
13007
12594
12960
12687
13144
12962
13298
13106
13338
13215
13279
13160
13087
13061
12887
13129
12914
13244
13001
13494
13565
15329
16927
17391
15467
10918
10939
12574
12948
13497
13287
13622
13459
13770
13624
13739
13759
13812
13945
13879
14157
14002
14378
14204
14681
14534
15107
15039
15536
15425
15816
15612
15698
15459
15390
15116
14702
14351
13741
13527
12948
12997
12556
12722
12233
12484
12192
12487
12288
12607
12486
12682
12618
12672
12742
12687
12802
12636
12843
12554
12884
12537
12886
12536
12840
12623
13050
12927
13276
13162
13191
13053
12880
12747
12759
13031
12773
12992
12680
13005
12981
13457
14830
17186
16991
16166
10618
10511
11262
12336
12561
13066
12966
13380
13343
13475
13414
13354
13420
13430
13670
13493
13854
13700
14154
13965
14480
14381
14961
14939
15398
15294
15493
15360
15365
15186
14890
14601
13962
13723
13119
13096
12584
12771
12359
12589
12216
12539
12238
12565
12342
12611
12532
12714
12647
12643
12675
12574
12795
12580
12905
12593
13001
12574
13031
12553
12969
12565
12908
12673
13107
12991
13277
13132
13566
13189
13342
12996
13047
13010
12893
12983
12781
13084
12956
13716
14640
17313
18478
16896
12009
12021
12340
12951
12952
13205
13245
13239
13383
13367
13576
13340
13636
13310
13635
13295
13625
13635
13858
13935
14193
14356
14628
14868
15113
15170
15225
15311
15139
15066
14711
14438
13873
13605
13089
12880
12491
12433
12106
12154
11990
12175
12200
12284
12342
12263
12450
12277
12476
12242
12556
12296
12647
12308
12603
12345
12630
12318
12647
12325
12703
12519
12906
12723
12988
12840
12974
12876
12853
12857
12849
13054
12891
13088
12898
13290
13090
13777
14764
17081
17478
16555
11076
11242
11978
12785
13026
13179
13309
13243
13430
13294
13504
13255
13595
13389
13758
13487
13916
13789
14173
14108
14516
14541
14916
15100
15255
15466
15414
15496
15169
15200
14625
14506
13702
13506
12764
12732
12214
12350
12085
12179
12044
12159
12162
12206
12339
12257
12482
12522
12562
12664
12796
12685
12771
12596
12765
12336
12809
12517
12830
12659
13063
12828
13114
12962
13126
12903
12851
12775
12764
12878
12795
12988
12819
13169
12907
14113
15503
17545
17699
14823
10435
11434
12019
12770
12983
13221
13415
13374
13500
13419
13655
13501
13764
13497
13882
13614
14018
13812
14184
14006
14421
14425
14852
15006
15207
15271
15257
15335
15064
15083
14518
14342
13631
13520
12898
12936
12453
12701
12422
12557
12373
12795
12582
12857
12619
12863
12760
12856
12726
12785
12872
12742
12768
12570
12840
12582
12920
12798
13205
12943
13384
13169
13395
13136
13279
13045
13152
13132
13156
13191
13119
13331
13327
13820
14766
16989
17608
17425
12083
11501
11990
12774
12910
13217
13226
13358
13366
13375
13504
13419
13621
13484
13768
13562
13928
13757
14131
13912
14305
14300
14705
14674
15029
15021
15095
15046
14911
14905
14467
14284
13616
13445
12819
12779
12514
12609
12346
12599
12362
12620
12327
12617
12337
12599
12459
12738
12627
12803
12819
12886
12945
12844
12967
12735
12912
12626
12839
12646
13058
12817
13063
12843
13151
12996
13187
12958
13006
12977
13048
13140
13137
13365
13383
13657
14277
16296
17907
18603
14184
11880
12379
13040
13289
13421
13409
13449
13426
13459
13465
13523
13574
13570
13677
13549
13692
13604
13789
13756
13982
14018
14330
14430
14778
14838
14988
14928
14873
14682
14615
14118
13778
13244
12889
12653
12473
12280
12246
12368
12300
12479
12356
12529
12373
12506
12344
12482
12371
12514
12322
12376
12268
12152
12182
12176
12416
12320
12503
12216
12538
12295
12674
12351
12843
12725
13081
12826
13070
12924
12946
12825
12628
12602
12557
12936
12743
12999
12834
13398
13844
15496
16773
17764
13953
11577
11828
12668
12894
13139
13227
13212
13305
13114
13339
13136
13431
13120
13521
13122
13574
13268
13853
13776
14308
14204
14837
14656
15192
14964
15381
15163
15289
14941
14706
14310
13765
13399
12995
12979
12476
12633
12188
12584
12163
12528
12152
12579
12267
12523
12311
12546
12399
12510
12534
12520
12704
12593
12908
12648
12979
12646
12993
12577
13022
12739
13140
12871
13075
12887
13115
13130
13334
13385
13317
13531
13467
13782
13431
13742
13340
13683
13283
13645
13293
13676
13551
13843
14317
15481
17278
18095
15691
11869
12240
13082
13329
13429
13446
13438
13599
13325
13539
13246
13561
13241
13662
13309
13739
13561
13986
13865
14248
14148
14497
14671
14889
15156
15077
15270
15035
15208
14678
14711
13827
13807
12987
13145
12609
12776
12367
12517
12307
12455
12434
12421
12445
12317
12550
12200
12479
12134
12542
12112
12554
12213
12640
12315
12630
12443
12739
12613
12754
12703
12753
12996
12830
13015
12727
13079
12734
13135
12806
13219
12854
13258
12971
13296
12942
13442
13059
13598
13357
13653
13405
13604
13488
13572
13538
13451
13442
13320
13622
13418
13790
13503
14095
14306
15286
16552
17841
15994
12524
12140
12831
13131
13281
13359
13376
13517
13343
13687
13391
13770
13436
13912
13560
13997
13730
14124
13861
14224
14134
14426
14620
14941
15252
15221
15450
15224
15562
15175
15237
14504
14412
13538
13507
12793
12897
12534
12643
12405
12492
12489
12588
12717
12564
12801
12576
12825
12449
12591
12521
12691
12456
12751
12412
12816
12468
12987
12623
13018
12668
13059
12751
13003
12833
12925
13016
13077
13145
13074
13366
13142
13485
13140
13532
13226
13715
13334
13667
13109
13399
13188
13505
13431
13524
13668
13617
13771
13651
13881
13484
13633
13136
13504
13088
13412
13167
13730
14089
14856
16477
17222
15173
12053
12314
13026
13480
13508
13666
13629
13792
13784
14026
14002
14314
14413
14642
14675
14844
14898
15126
15231
15571
15807
16106
16272
16617
16779
17125
17311
17379
17403
17108
16807
16202
15781
15179
14816
14293
14124
13824
13807
13583
13582
13325
13081
12759
12591
12279
12087
12136
11898
11804
11535
11486
11250
11446
11385
11504
11433
11405
11273
11391
11351
11341
11332
11310
11272
11255
11356
11361
11486
11414
11611
11579
11668
11744
11839
11821
11895
11869
11910
11891
11997
12080
12159
12264
12330
12526
12462
12595
12550
12636
12474
12462
12663
12957
12930
13187
13336
14390
15456
16314
16283
12961
11054
12019
12847
13345
13587
13722
13927
13933
14039
14029
14145
14078
14157
14067
14181
14117
14255
14306
14507
14591
14774
14877
15173
15452
15558
15742
15719
15887
15705
15675
15279
14935
14339
14049
13613
13290
12941
12828
12691
12656
12578
12542
12602
12496
12570
12513
12635
12566
12810
12718
12829
12710
12858
12859
12988
12899
12815
12698
12690
12749
12754
12727
12637
12743
12765
12900
12979
13051
13041
13099
13020
13123
13099
13373
13370
13525
13414
13581
13414
13524
13382
13300
13220
13260
13220
13368
13479
13521
14193
15390
16941
16628
15513
11283
11655
12520
13312
13533
13703
13732
13767
13775
13729
13712
13722
13844
13782
13917
13906
13992
13924
14159
14209
14482
14629
14868
15097
15373
15528
15681
15699
15696
15647
15355
14998
14303
13895
13389
13130
12819
12726
12470
12472
12433
12402
12258
12320
12212
12348
12274
12350
12290
12411
12475
12471
12540
12667
12718
12781
12880
12782
12888
12818
12842
12696
12788
12604
12728
12747
12775
12745
12851
12805
12803
12810
12780
12918
12870
13131
13111
13321
13321
13415
13330
13447
13296
13275
13211
13299
13168
13245
13261
13378
13695
14445
15819
16603
16298
12342
11704
12312
13072
13312
13459
13365
13516
13472
13565
13575
13664
13633
13684
13692
13782
13905
13865
13984
14049
14319
14413
14819
15032
15417
15526
15698
15698
15765
15516
15387
14936
14720
13974
13470
13059
12859
12600
12273
12063
11921
11750
11333
11053
10635
10529
10304
10499
10462
11030
11193
11604
11773
12125
12252
12499
12589
12656
12804
12820
13088
12978
13271
13169
13365
13302
13597
13341
13503
13416
13629
13712
13901
13940
14074
14210
14244
14307
14275
14570
14426
14555
14398
14638
14410
14613
14452
15397
16159
17710
17979
15741
12142
12688
13477
14149
14174
14355
14286
14343
14433
14444
14559
14449
14605
14438
14703
14532
14762
14484
14773
14594
14835
14831
15186
15305
15619
15684
15739
15674
15479
15421
14915
14591
13985
13790
13261
13098
12581
12581
12275
12396
12175
12312
12149
12322
12289
12277
12328
12328
12373
12327
12441
12293
12565
12332
12535
12393
12596
12399
12573
12403
12574
12413
12513
12440
12499
12441
12367
12403
12344
12571
12528
12860
12756
12989
12706
12891
12663
12873
12779
12999
12885
13158
13104
13396
13960
15212
16459
16875
14001
11069
11660
12339
12876
12948
13144
13092
13229
13150
13390
13219
13462
13315
13545
13370
13569
13520
13730
13777
13994
14171
14328
14580
14736
15040
14946
15182
15026
15145
14787
14650
14127
13903
13287
13042
12562
12408
12172
12136
12126
12162
12278
12209
12437
12126
12480
12169
12498
12219
12508
12240
12577
12451
12725
12728
12888
12861
12845
13165
13056
14614
14460
14505
14136
14102
13655
13649
13307
13419
13351
13363
13310
13207
13262
13068
13218
12909
13126
12729
13118
12707
13028
12716
13180
13242
14261
15075
16604
16443
12918
11296
11781
12703
12940
13393
13195
13604
13292
13688
13293
13679
13328
13698
13437
13690
13515
13628
13621
13645
13920
13872
14202
14226
14850
14805
15345
15047
15489
15169
15425
14839
14758
14055
13792
13247
13018
12770
12647
12635
12370
12519
12234
12546
12449
12533
12389
12661
12447
12722
12340
12684
12353
12667
12274
12633
12334
12593
12371
12640
12538
12643
12637
12558
12666
12471
12646
12305
12535
12163
12624
12500
13033
12681
13034
12773
13100
12887
13075
12918
12961
12914
12864
13027
12897
13209
13139
14332
15062
16675
16388
13487
10786
11833
12416
13141
13094
13358
13345
13419
13448
13355
13570
13371
13736
13430
13759
13390
13896
13644
14109
13827
14306
14282
14800
14955
15348
15459
15750
15492
15581
15202
15124
14639
14160
13750
13218
13037
12653
12804
12371
12696
12239
12622
12205
12570
12212
12521
12295
12609
12581
12731
12678
12751
12939
12805
13062
12828
13007
12579
12957
12583
12984
12653
13153
12894
13236
13003
13132
12959
12984
12923
12940
13129
12971
13251
13036
13560
13318
14998
16429
17445
16604
12194
10529
11921
12574
13231
13371
13522
13591
13559
13810
13612
13923
13629
14063
13746
14240
13973
14408
14946
14895
15425
15287
15913
15763
16237
15918
16141
15786
15827
15340
14939
14445
13965
13781
13235
13226
12764
12974
12496
12772
12402
12797
12368
12751
12488
12706
12508
12703
12583
12698
12732
12703
12839
12563
12820
12568
12898
12570
13075
12628
13069
12787
13095
12814
13018
12693
12735
12606
12636
12648
12576
12830
12713
13095
13871
15863
16602
17069
12556
10453
11168
12357
12657
13064
13030
13277
13236
13327
13479
13388
13612
13659
13759
13888
13978
13875
14147
14102
14543
14337
14953
14841
15411
15109
15521
15191
15411
15004
14994
14408
14057
13552
13227
13096
12736
12793
12473
12697
12316
12678
12315
12719
12369
12705
12407
12765
12490
12789
12656
12718
12715
12656
12726
12573
12888
12513
12931
12664
13084
12791
13255
12843
13161
12838
13033
12735
12892
12866
12883
12895
12841
13222
13264
14512
15909
17361
16765
12370
10861
12112
12396
13032
12887
13330
13119
13599
13323
13717
13392
13765
13607
13777
13683
13838
13981
14039
14261
14199
14738
14627
15149
14957
15548
15242
15577
15043
15212
14628
14396
13711
13441
12978
12728
12617
12362
12490
12299
12573
12259
12639
12315
12772
12379
12815
12505
12862
12669
12881
12686
12872
12759
12686
12772
12596
12765
12582
12983
12739
13154
12766
13179
12706
13061
12773
13103
12843
13047
12979
13095
13186
13243
13760
14440
16279
17368
17092
11903
11935
12469
13147
12965
13379
13042
13409
13052
13444
13076
13516
13228
13519
13310
13627
13620
13900
13796
13846
14200
14288
14841
14735
15210
14948
15388
14876
15156
14631
14636
13862
13672
12987
12877
12549
12452
12415
12202
12389
12178
12472
12260
12653
12325
12674
12296
12634
12301
12632
12371
12673
12541
12709
12649
12679
12713
12612
12799
12590
12901
12634
13188
12994
13434
13105
13448
12996
13242
12853
13031
12893
12987
13006
13261
13044
13372
13379
14323
15732
17388
17661
13383
11720
12099
13000
12998
13403
13113
13509
13183
13634
13408
13745
13448
13686
13584
13753
13759
13873
14049
14037
14391
14265
14756
14561
15140
14957
15459
15141
15444
15026
15185
14567
14367
13853
13608
13225
12892
12899
12608
12765
12429
12737
12331
12655
12322
12719
12406
12812
12519
12832
12597
12802
12730
12802
12850
12763
12890
12693
12985
12671
13000
12693
13070
12737
13127
12781
13142
12777
13144
12727
13215
12940
13369
13100
13376
13174
13253
13137
13129
12981
12912
13130
12960
13290
13016
13474
13557
14628
15949
17504
16079
12095
11459
12387
12753
13103
13179
13311
13419
13385
13620
13407
13686
13417
13880
13545
13950
13642
14149
13910
14322
14236
14609
14610
14986
15245
15412
15564
15410
15601
15221
15283
14480
14425
13613
13570
12827
13092
12649
12867
12613
12774
12671
12767
12800
12706
12749
12555
12816
12739
12777
12722
12847
12697
12953
12773
13122
12832
13190
12819
13201
12840
13214
12858
13157
12919
13113
12999
13064
12999
12936
13087
12887
13147
12821
13175
12855
13406
13247
13715
13411
13783
13437
13649
13447
13563
13359
13291
13265
13169
13276
13069
13472
13572
14088
14720
16701
16293
13410
11490
12419
12702
13172
13048
13295
13267
13314
13381
13295
13490
13328
13694
13525
13932
13591
14108
13816
14305
14115
14591
14578
15083
15213
15817
15580
15914
15604
15718
15315
15088
14532
14084
13701
13190
13038
12630
12804
12362
12615
12292
12718
12277
12605
12265
12612
12327
12518
12357
12476
12414
12342
12508
12414
12678
12458
12806
12531
12978
12655
13146
12761
13071
12727
12986
12695
12802
12578
12648
12599
12626
12797
12615
12898
12692
13063
12664
13018
12676
13280
13148
13466
13194
13479
13275
13464
13312
13303
13182
13078
13240
13078
13336
13112
13730
13990
15063
16435
16729
13519
11806
12156
13331
13303
13788
13445
13792
13433
13717
13505
13680
13601
13644
13625
13504
13622
13451
13757
13563
14015
13795
14375
14296
14945
14822
15350
15136
15446
15203
15212
14886
14585
14190
13699
13507
13028
13082
12546
12759
12327
12680
12305
12672
12299
12616
12429
12720
12542
12703
12676
12566
12663
12575
12761
12507
12823
12454
12830
12481
12860
12430
12863
12659
12938
12703
12934
12768
12888
12881
13075
12937
13191
12885
13003
13047
13211
13416
13227
13484
13316
13665
13343
13740
13250
13546
13130
13427
13151
13536
13461
13859
14716
16061
16967
16642
13090
10746
11881
12444
13328
13169
13619
13363
13853
13526
13899
13660
14008
13793
14059
13944
14119
14209
14155
14368
14335
14787
14627
15201
15045
15624
15425
15901
15485
15795
15402
15407
14744
14542
14025
13705
13373
12955
12960
12642
12878
12501
12780
12370
12822
12461
12862
12585
13029
12721
13146
12675
12968
12616
13012
12736
12830
12650
12673
12549
12682
12547
12541
12612
12586
12742
12777
13053
13021
13290
13077
13265
13030
13157
12892
12966
12792
12960
12884
12967
13079
13168
14276
15753
16887
16787
13221
10636
11870
12579
13379
13387
13688
13587
13758
13734
13860
13768
13824
13875
13876
13964
13977
14195
14129
14475
14484
14844
14891
15402
15586
16032
15946
16115
16173
16228
15956
15637
15162
14562
13908
13613
13215
13093
12888
12794
12757
12602
12704
12679
12859
12772
12968
12838
13053
12852
13016
12921
13091
13044
13220
13190
13196
13269
13192
13298
13170
13299
13168
13270
13298
13584
13444
13718
13488
13766
13575
13620
13336
13245
13123
13164
13081
13043
13187
13208
13699
14478
16028
16491
16118
11200
10737
11377
12324
12498
12653
12661
12825
12709
12813
12795
12639
12831
12643
13073
12709
13217
12962
13477
13249
13811
13646
14365
14320
14929
14732
15159
14841
15047
14711
14661
14191
13921
13580
13342
13284
12953
13058
12671
12869
12479
12926
12435
12841
12433
12760
12386
12659
12542
12766
12724
12851
12958
12897
13090
12953
13192
12831
13084
12599
12924
12529
12911
12473
12849
12528
12801
12753
13055
13021
13196
13314
13195
13333
13011
13322
12932
13281
12903
13345
13048
13627
13415
14488
15244
17028
17405
14743
11517
12150
13099
13486
13791
13550
14008
13644
14314
14080
14457
14120
14559
14203
14675
14500
14865
14730
15083
15056
15350
15571
15668
15899
15823
15990
15587
15700
14965
14856
13895
13842
13168
13328
12806
12835
12457
12617
12517
12526
12622
12600
12666
12431
12658
12336
12572
12062
12494
12134
12543
12207
12544
12261
12519
12273
12395
12298
12281
12346
12264
12427
12192
12402
11973
12390
12072
12611
12333
12828
12476
12753
12482
12638
12565
12821
12724
12827
12992
12993
13185
13320
13496
14245
15123
16599
17100
14084
11551
11724
12871
12969
13376
12972
13405
13115
13458
13157
13418
13252
13525
13548
13603
13726
13720
13927
13734
14173
13994
14593
14517
15180
14978
15396
15128
15535
15203
15277
14783
14554
14113
13661
13324
12887
12816
12496
12787
12327
12628
12176
12567
12169
12591
12302
12593
12368
12615
12491
12709
12767
12728
12833
12805
13036
12823
13224
12899
13263
12929
13446
13029
13443
13096
13393
12999
13531
13147
13573
13292
13561
13239
13418
13344
13419
13322
13244
13257
13071
13359
13136
13454
13240
13826
14098
15176
16221
17081
14566
11536
11738
12818
13255
13498
13490
13480
13570
13409
13700
13422
13687
13421
13855
13507
13994
13735
14123
13910
14257
14284
14690
14722
15038
15266
15243
15447
15219
15332
14753
14840
14020
13911
13016
13001
12369
12488
12072
12265
11988
12167
12098
12119
12120
12139
12353
12190
12534
12332
12611
12640
12816
12597
12846
12498
12859
12588
12935
12598
12964
12567
12941
12545
12896
12733
12972
12842
12924
12935
12827
12900
12692
13037
12941
13511
13262
13717
13377
13768
13387
13638
13215
13435
13133
13339
13229
13253
13373
13397
13754
14277
15314
16263
16674
13560
11410
11725
12999
13161
13621
13387
13750
13558
13699
13621
13685
13755
13745
14005
13844
14265
14023
14507
14233
14770
14490
15097
15004
15487
15334
15702
15493
15651
15172
15315
14534
14305
13678
13363
12820
12560
12331
12088
12146
11863
12077
11786
12109
11788
12201
11890
12210
11922
12309
12098
12353
12167
12403
12341
12311
12304
12201
12411
12243
12597
12325
12687
12268
12615
12268
12708
12325
12596
12395
12633
12437
12555
12505
12713
12999
12949
13227
12992
13331
13061
13391
12989
13348
12906
13234
12960
13327
13092
13381
13358
14367
15387
16562
16509
13829
10573
11200
12478
12853
13487
13341
13790
13664
14015
13649
14028
13704
14154
13860
14311
14108
14514
14400
14669
14555
14929
15088
15292
15724
15800
16023
15758
16064
15704
15942
15304
15413
14601
14461
13724
13679
13140
13115
12875
12870
12750
12634
12604
12348
12593
12343
12710
12362
12716
12369
12715
12301
12666
12292
12562
12459
12648
12522
12650
12700
12656
12772
12560
12713
12400
12687
12347
12766
12507
13014
12755
13050
12731
13107
12832
13005
12880
12805
12738
13181
12938
13184
13059
13440
13980
15108
16715
16628
15371
10877
11602
12166
13390
13397
13823
13622
14045
13779
14081
13796
14099
14033
14132
14070
14097
14405
14323
14593
14448
15011
14838
15419
15256
15826
15605
15992
15569
15828
15546
15524
15003
14588
14159
13735
13535
13009
13199
12825
12978
12513
12861
12487
12860
12613
12972
12688
13060
12887
13095
13039
13028
13021
12950
13141
12913
13068
12773
13108
12698
13009
12710
13150
12837
13220
12911
13317
12951
13304
12942
13213
12901
13172
12878
12920
12735
12880
12978
13022
13278
13161
13391
13048
13344
12986
13288
12852
13168
12849
13279
12992
13385
13403
14099
14361
15788
16642
15095
11782
11651
12623
12810
13433
13222
13663
13307
13722
13462
13869
13618
13872
13728
13891
13869
13961
14029
13964
14248
14124
14618
14554
15085
14918
15407
15140
15475
15026
15284
14839
14714
14091
13723
13384
13057
12921
12703
12555
12699
12517
12507
12572
12478
12610
12371
12713
12483
12797
12379
12784
12474
12807
12489
12747
12479
12800
12608
12743
12603
12661
12800
12665
12797
12532
12784
12477
12747
12469
13100
12887
13376
13104
13391
13244
13572
13353
13340
13227
13225
13320
13161
13360
13204
13638
13475
14721
15326
16975
16924
14303
10976
12024
12690
13483
13491
13606
13625
13709
13806
13605
13809
13630
13923
13643
14016
13708
14135
13826
14253
14081
14733
14643
15289
15170
15700
15472
15777
15415
15669
15340
15137
14672
14291
13978
13488
13400
12888
13038
12633
12826
12533
12922
12473
12755
12418
12685
12448
12700
12568
12694
12637
12621
12699
12585
12780
12445
12759
12569
12859
12419
12741
12390
12725
12520
12832
12528
12746
12629
12930
13012
13105
13321
13234
13396
13079
13295
12952
13262
12857
13214
12858
13233
13028
13484
13924
14930
16184
16374
13027
10843
11867
12584
13235
13343
13435
13481
13589
13474
13643
13469
13817
13550
13957
13666
14175
13891
14306
14143
14566
14510
15025
15131
15412
15439
15471
15501
15292
15314
14887
14963
14259
14121
13353
13424
12803
12965
12525
12750
12401
12604
12463
12534
12541
12485
12591
12410
12631
12457
12826
12457
12819
12447
12788
12450
12793
12494
12848
12686
12831
12639
12627
12628
12666
12922
12882
13137
12868
13276
12906
13217
12828
13118
12698
12999
12660
12950
12770
13376
13497
14581
15621
16982
15717
11440
11047
12160
12921
13105
13330
13227
13513
13301
13647
13334
13770
13465
13879
13540
13940
13713
14074
13963
14187
14242
14547
14760
14875
15174
15073
15335
15066
15337
14858
15046
14299
14241
13495
13445
12872
12850
12444
12594
12457
12503
12541
12514
12699
12497
12813
12645
13046
12650
12941
12558
12907
12529
12871
12641
12798
12535
12637
12611
12599
12606
12424
12609
12483
12857
12570
12954
12939
12961
12632
12810
12495
12764
12483
12879
12567
13035
12806
14190
15337
16959
16787
13571
9942
11083
12212
12919
13383
13278
13848
13604
13953
13615
14052
13726
14010
13701
14176
14030
14433
14302
14466
14569
14676
14937
15080
15456
15509
15816
15506
15799
15329
15508
14785
14758
14058
13939
13317
13300
12931
12835
12672
12506
12497
12271
12585
12443
12764
12376
12745
12406
12782
12406
12715
12428
12757
12507
12631
12491
12622
12464
12913
12760
12997
13029
13205
13020
12964
12937
12778
12935
12721
12972
12620
13106
12810
13459
13937
15708
16928
17095
14303
10345
11032
12161
12862
13086
13257
13168
13477
13254
13600
13289
13657
13455
13916
13649
14138
13907
14257
14050
14444
14561
14837
15048
15180
15515
15390
15587
15236
15341
14840
14915
14154
13915
13367
13146
12717
12737
12418
12517
12375
12475
12415
12546
12707
12695
12902
12839
12916
12780
12897
12730
12956
12911
12941
12779
12837
12650
12812
12688
13033
12880
13064
12928
13000
12829
12870
12760
12750
12733
12780
12872
12818
13040
13120
14294
15466
16757
16763
12949
10770
11916
12597
13191
13256
13372
13380
13421
13469
13448
13561
13471
13641
13563
13792
13694
13924
13887
14330
14342
14666
14768
15076
15332
15560
15538
15445
15285
15159
14962
14469
14210
13636
13306
12817
12705
12334
12514
12302
12375
12328
12456
12458
12564
12615
12734
12702
12915
12834
12884
12894
12866
12779
12656
12709
12651
12745
12620
12748
12626
12899
12830
12991
12936
13153
13181
13214
13080
12984
12968
13029
13129
13164
13259
13236
13465
14081
15344
16811
17465
13840
11488
12113
13015
13266
13413
13511
13545
13604
13628
13633
13579
13760
13714
13908
13711
13962
13921
14073
14099
14394
14408
14783
14931
15271
15259
15278
15314
15111
15099
14725
14774
13978
13976
13315
13360
12756
12926
12501
12854
12431
12798
12463
12798
12444
12696
12360
12507
12525
12652
12593
12573
12628
12542
12817
12580
12896
12559
12885
12428
12723
12418
12845
12700
13105
12910
13177
13079
13106
13010
12959
12934
12689
12971
12769
13163
12853
13253
13053
13973
14418
16243
17003
16019
11596
11663
12328
13096
13250
13303
13566
13449
13750
13492
13870
13490
13836
13587
14040
13763
14168
13945
14294
14265
14561
14488
14775
14945
14988
15282
15100
15113
15192
14961
14587
14364
13768
13586
13068
13103
12406
12745
12311
12698
12271
12683
12433
12651
12484
12724
12581
12650
12607
12552
12746
12681
12844
12640
13041
12619
12944
12516
12918
12496
12679
12445
12770
12599
12880
12866
12940
13021
12974
13213
13060
13258
12880
13186
12790
13236
12830
13320
13168
13653
14045
15121
16459
17218
14787
11402
11986
12652
13270
13166
13480
13229
13546
13158
13669
13317
13714
13419
13831
13625
15674
16019
16002
16147
15965
16137
15727
15854
15265
15487
14840
14851
13990
13769
13089
12995
12514
12471
12252
12184
12248
12164
12327
12124
12360
12003
12366
12062
12549
12193
12555
12228
12598
12361
12652
12493
12649
12534
12600
12687
12519
12737
12485
12746
12421
12755
12401
12862
12667
13233
12970
13354
13145
13413
13359
13352
13188
13081
13155
12960
13257
13112
13557
13305
13921
14276
15665
16538
16700
12785
11571
12211
13184
13296
13783
13617
13962
13686
13899
13817
13929
13920
13941
14067
13909
14210
14015
14374
14123
14570
14355
14898
14660
15169
15041
15424
15188
15301
15009
14914
14585
14072
13731
13238
13192
12706
12859
12395
12722
12309
12687
12344
12707
12478
12739
12543
12763
12643
12651
12641
12527
12821
12600
12843
12595
13004
12629
12899
12535
13005
12602
12885
12628
12930
12757
12816
12754
12704
12773
12780
13129
13013
13382
13179
13513
13219
13535
13185
13450
13132
13418
13057
13475
13149
13688
13575
14653
15320
16737
16170
12690
11223
12173
13077
13397
13734
13625
13851
13550
13920
13527
13828
13511
13939
13630
13925
13667
13983
13868
14104
14056
14342
14589
14644
15020
15020
15348
15019
15295
14861
15084
14393
14397
13682
13633
13017
13017
12642
12669
12529
12543
12537
12422
12699
12439
12729
12408
12728
12353
12701
12363
12637
12343
12690
12439
12663
12512
12718
12674
12641
12562
12842
12652
12907
12890
12840
12840
12673
12809
12735
13233
13062
13402
13039
13519
13111
13501
13109
13358
12976
13171
13096
13238
13167
13239
13451
13793
14928
16095
16893
15455
11603
11227
12575
12977
13542
13379
13741
13525
13857
13773
13870
13853
13894
13943
13801
13990
13828
14259
13973
14417
14147
14692
14501
15030
14897
15285
15178
15377
15061
15016
14802
14456
14190
13587
13440
12823
12973
12552
12778
12305
12682
12320
12647
12484
12947
12595
13034
12711
13057
12748
13080
12770
12901
12901
13105
12976
12853
12947
12728
12858
12629
12864
12516
13166
12911
13280
12979
13351
13003
13252
12962
13091
12914
12949
13012
13036
13219
13209
13661
14637
16683
17048
16842
12217
10710
11583
12875
13263
13687
13559
13869
13709
13830
13875
13873
14036
13894
14168
13951
14325
14016
14481
14267
14824
14618
15057
14970
15417
15313
15507
15380
15375
15343
15050
14781
14198
13637
13311
12963
12615
12573
12344
12456
12096
12403
12067
12465
12188
12592
12230
12725
12527
12767
12552
12840
12800
12810
12877
12907
13062
12748
12959
12727
13030
12565
12822
12459
12892
12612
12961
12776
13234
13145
13249
13044
12970
12972
12836
12940
12809
13102
12810
13242
13062
13684
14410
16309
16341
16105
11408
10957
11783
12741
13065
13188
13351
13237
13430
13229
13508
13243
13695
13355
13702
13348
13940
13752
14181
14088
14661
14499
15035
14852
15314
15105
15389
15093
15177
15027
14818
14439
13871
13619
13082
13053
12409
12619
12250
12543
12156
12484
12198
12559
12377
12642
12451
12575
12521
12610
12653
12498
12653
12629
12950
12594
12967
12601
13018
12671
12985
12602
12863
12497
12626
12573
12833
12891
12965
13151
13122
13294
13023
13259
12813
13110
12870
13275
12835
13250
13039
13446
13474
14529
15806
16973
16558
12250
11285
12017
13044
13154
13443
13608
13740
13604
13784
13609
13870
13633
14039
13698
14141
13820
14205
13955
14423
14373
14753
14824
15213
15387
15468
15564
15349
15449
15039
15056
14332
14222
13410
13349
12770
12927
12436
12655
12325
12466
12348
12439
12427
12445
12604
12439
12707
12517
12966
12645
13035
12634
12951
12666
13036
12635
12848
12690
12950
12808
12855
12864
12868
13014
12712
13015
12799
13209
12975
13451
13072
13531
13215
13542
13135
13285
13037
13317
13028
13377
13173
13622
13578
14329
14905
16504
17246
15458
11694
11700
12751
12989
13462
13161
13621
13295
13702
13378
13680
13382
13689
