14880
17625
17394
12918
11872
12774
13503
13929
13760
13986
13665
14045
13691
14098
13692
14124
13784
14221
13957
14308
14138
14415
14440
14606
14782
14895
15259
15199
15486
15098
15305
14748
14890
14140
14022
13173
13088
12490
12614
12269
12346
12136
12114
12129
12063
12218
12027
12339
12095
12550
12242
12670
12317
12740
12417
12741
12532
12874
12648
12879
12802
12847
12842
12787
12934
12774
13066
12801
13177
12889
13261
12860
13206
12882
13286
13063
13587
13216
13638
13300
13721
13423
13664
13319
13426
13259
13276
13279
13269
13477
13351
14439
15320
17080
16985
14198
10570
11771
12329
13283
13166
13608
13452
13736
13602
13725
13680
13695
13882
13770
13997
13746
14171
13899
14394
14217
14854
14706
15326
15214
15622
15387
15500
15183
15074
14725
14225
13923
13290
13154
12583
12727
12218
12527
12074
12451
12131
12519
12182
12511
12307
12501
12457
12578
12516
12483
12698
12754
12611
12772
12735
12684
12754
12620
12861
12570
12882
12572
12955
12577
12912
12419
12798
12514
12912
12746
13118
13022
13207
13061
13117
13101
13055
13132
13017
13239
13079
13399
13215
13582
13750
15407
16927
17938
15424
11338
11476
12523
13059
13365
13397
13473
13684
13602
13782
13540
13829
13589
13937
13630
14058
13861
14252
14111
14456
14358
14696
14805
15073
15119
15101
15200
14974
14972
14422
14305
13589
13463
12819
12955
12537
12792
12479
12707
12391
12707
12420
12803
12587
12938
12843
13153
13024
13101
13102
13074
13103
13051
13287
13077
13280
13003
13276
12937
13266
12886
13174
12878
13123
12844
12994
12745
12807
12793
12947
13108
12989
13155
12943
13178
12841
13068
12693
13009
12703
13024
12748
13010
12894
13227
13857
15287
17154
17276
13489
11267
12097
12592
13190
13029
13389
13129
13511
13179
13554
13311
13588
13420
13775
13690
13829
13896
13980
14142
14539
14590
15017
15216
15452
15575
15449
15578
15280
15265
14573
14422
13501
13449
12863
13056
12659
12853
12602
12709
12595
12613
12633
12505
12657
12511
12828
12531
12903
12598
12997
12566
12916
12536
12857
12597
12865
12631
12772
12703
12815
12843
12840
13077
12961
13213
12796
13204
12902
13444
13142
13569
13245
13590
13239
13394
13077
13181
13048
13051
13047
12935
13172
13090
13473
13919
15351
16748
17532
13916
11417
11684
13161
13133
13628
13346
13758
13425
13759
13424
13709
13550
13827
13728
13895
14030
14068
14339
14255
14655
14594
15207
15070
15603
15243
15565
15069
15305
14706
14604
13878
13627
13088
12833
12596
12322
12357
12131
12327
12059
12409
12030
12493
12223
12693
12404
12798
12489
12809
12586
12863
12744
12837
12857
12795
12853
12655
12890
12575
12854
12501
12850
12465
12907
12536
12842
12458
12770
12578
12904
12950
13117
13225
13177
13344
13540
13272
13345
13246
13122
13196
13087
13338
13143
13444
13924
15521
16732
17438
13511
11018
11488
12729
12949
13320
13328
13524
13496
13551
13730
13578
13786
13570
13920
13666
14134
13860
14334
14082
14650
14534
15092
15034
15470
15347
15464
15467
15521
15301
14688
14491
13777
13692
12977
13068
12462
12703
12284
12656
12359
12759
12551
12811
12747
12885
12855
12913
13048
12904
13136
12829
13115
12813
13214
12921
13321
12979
13419
13083
13445
13093
13447
13068
13445
13276
13730
13495
13804
13588
13645
13515
13414
13403
13259
13430
13169
13400
13099
13581
13155
14383
15501
17429
17273
13652
10411
11564
12199
12951
13055
13156
13322
13299
13495
13290
13625
13337
13774
13437
13869
13583
14079
13845
14273
14119
14531
14533
14918
14988
15070
15070
14887
14924
14479
14399
13603
13498
12669
12741
12146
12381
11946
12231
11898
12166
12014
12243
12248
12340
12445
12379
12602
12707
12684
12796
12797
12703
12867
12645
12906
12609
12934
12556
12982
12618
13014
12631
12950
12570
12895
12746
13137
13164
13359
13415
13333
13496
13181
13362
12973
13270
12936
13364
13044
13448
13173
13546
13938
15352
17019
17770
14386
11307
11777
12472
13002
12903
13269
13051
13451
13138
13604
13253
13680
13306
13739
13530
13903
13755
14061
14080
14327
14585
14687
15076
15110
15478
15206
15458
14961
15137
14410
14404
13656
13528
12673
12839
12347
12625
12231
12605
12235
12557
12267
12494
12407
12539
12559
12566
12714
12572
12797
12544
12873
12512
12869
12513
12914
12581
12991
12717
12975
12672
12865
12703
12813
12810
12871
13177
13097
13356
13108
13387
13009
13325
12858
13134
12703
13060
12836
13232
13045
13402
13332
14166
15473
17265
17329
12905
11361
11814
12950
12976
13479
13217
13630
13240
13671
13352
13658
13445
13744
13664
13813
13882
13969
14277
14243
14525
14931
15210
15430
15598
15512
15660
15326
15406
14782
14777
13937
13878
13085
13134
12579
12741
12343
12549
12371
12517
12486
12568
12650
12503
12729
12564
12868
12563
12963
12628
12988
12680
13091
12739
13099
12867
13162
12975
13129
13116
13162
13220
13074
13192
12981
13318
13064
13603
13248
13592
13173
13561
13260
13511
13091
13233
12956
13086
13049
13117
13250
13266
13701
14201
15987
17230
17084
12065
11455
12076
13249
13207
13732
13426
13854
13486
13845
13408
13836
13603
13957
13775
14011
13901
14066
14226
14352
14666
14579
15044
14877
15385
15143
15561
15081
15274
14629
14569
13823
13681
13073
12949
12649
12535
12450
12245
12470
12277
12581
12332
12625
12219
12666
12271
12547
12247
12596
12273
12558
12406
12542
12456
12449
12462
12450
12739
12561
12860
12717
12878
12468
13054
12715
13285
12963
13459
13346
13594
13337
13325
13230
13337
13395
13402
13567
13816
13907
15194
16741
17448
16790
12200
11213
12102
13068
13401
13796
13620
14047
13883
14110
13865
14182
14007
14256
14108
14285
14254
14421
14533
14654
14883
14958
15370
15456
15778
15531
15753
15561
15761
15404
15384
14783
14628
14082
13812
13550
13392
13114
12987
12929
12701
12701
12603
12908
12721
12999
12823
13149
13009
13188
12975
13114
12969
12926
12736
12618
12489
12452
12480
12340
12579
12541
12749
12654
12857
12673
12856
12706
12872
12722
12926
12750
13056
12942
13206
13112
14313
16005
17058
16672
12055
11008
11808
12439
12718
12958
12882
13064
12912
13128
12946
13259
13105
13404
13326
13577
13540
13797
13901
14087
14197
14417
14778
14919
15207
15058
15184
14834
14825
14294
14033
13359
13121
12620
12554
12239
12275
12139
12143
12076
12074
12108
11993
12052
12017
12299
12218
12511
12325
12567
12441
12723
12604
12817
12658
12797
12708
12653
12615
12572
12590
12833
12935
13092
13161
13127
13138
13092
13129
12903
12987
12816
13022
12919
13151
13093
13355
13941
15517
17020
17708
14896
11495
11917
12511
12932
12930
13071
13074
13293
13103
13236
13131
13379
13233
13452
13358
13674
13634
13843
13871
14102
14233
14462
14694
14767
14954
14889
15034
14765
14699
14077
13843
13164
12938
12407
12442
12178
12247
12197
12298
12326
12405
12495
12457
12556
12520
12735
12605
12813
12643
12804
12651
12938
12789
13004
12872
13053
12854
13097
12903
13124
12992
13181
13033
13141
13037
12993
13096
13109
13363
13293
13503
13431
13689
13538
13729
13425
13535
13256
13417
13256
13395
13300
13490
13543
14214
15243
16908
17648
15603
12246
12194
12984
13193
13440
13355
13600
13404
13600
13458
13619
13568
13707
13703
13782
13850
13886
14031
14080
14337
14337
14701
14789
15160
15118
15326
15085
15128
14760
14603
14041
13682
13205
12915
12711
12605
12472
12569
12509
12528
12543
12536
12608
12511
12619
12509
12676
12554
12744
12592
12907
12771
12938
12766
12915
12837
12999
12920
12940
12964
12929
12939
12883
13061
12879
13004
12894
13132
12963
13179
12928
13135
12932
13259
13242
13392
13330
13427
13508
13524
13567
13456
13534
13391
13527
13352
13611
13480
13808
14203
15047
16474
17394
15608
12174
12054
12713
13184
13286
13428
13427
13595
13458
13631
13504
13794
13665
13962
13875
14175
14137
14410
14303
14608
14595
15012
15093
15466
15423
15578
15400
15366
15111
14721
14336
13825
13533
13079
12980
12720
12772
12483
12575
12337
12520
12336
12498
12382
12576
12555
12691
12680
12718
12766
12740
12863
12754
12908
12793
12941
12745
12855
12609
12832
12897
13091
12992
13179
13146
13227
13219
13217
13274
13213
13269
13165
13373
13344
13494
13309
13471
13350
13598
13563
13726
13689
13817
13767
13780
13681
13562
13420
13273
13195
13249
13264
13322
13517
13947
14407
15597
16527
15448
11821
11471
12389
12820
13149
13101
13333
13240
13336
13237
13310
13240
13203
13277
13337
13486
13475
13718
13804
14221
14210
14586
14707
15145
15103
15275
15076
15115
14887
14698
14286
13836
13436
13080
12901
12513
12450
12196
12291
12110
12273
12035
12163
12041
12256
12201
12343
12281
12386
12374
12338
12395
12444
12657
12592
12783
12741
12866
12627
12770
12627
12839
12769
12970
12793
12953
12790
13016
12920
13065
12930
13047
12976
13008
12899
12979
12990
13095
13332
13316
13434
13345
13533
13347
13467
13266
13370
13184
13351
13197
13277
13249
13293
14060
15269
16436
16490
13253
11027
11948
12614
13244
13244
13505
13406
13620
13499
13736
13682
13825
13791
13879
13889
13994
14072
14105
14321
14384
14674
14740
15116
15254
15522
15419
15581
15315
15300
14852
14643
14143
13852
13466
13191
13017
12873
12764
12853
12775
12784
12773
12714
12745
12691
12888
12848
13077
12941
13110
12943
13140
13021
13195
13007
13099
13021
13063
12937
12947
12942
12926
12973
12855
12910
12745
12899
12922
13325
13294
13607
13543
13745
13635
13695
13487
13463
13416
13514
13553
13584
13688
13702
14417
15533
17060
17000
14936
11012
11736
12520
13371
13563
13677
13571
13671
13578
13640
13678
13698
13801
13777
13886
13877
14137
14103
14328
14377
14740
14820
15211
15347
15641
15461
15535
15251
15154
14699
14364
13838
13524
13133
12933
12774
12595
12563
12410
12448
12351
12494
12345
12486
12439
12641
12525
12667
12532
12682
12610
12649
12584
12619
12614
12650
12707
12579
12638
12494
12600
12458
12581
12481
12735
12697
12881
12775
12906
12822
12887
12830
12866
12864
12938
13054
12874
13246
13322
14049
14990
16714
17129
15346
11601
11931
12391
12967
13039
13199
13184
13229
13334
13360
13507
13473
13611
13776
13869
13975
14026
14061
14254
14316
14651
14806
15242
15265
15498
15358
15469
15198
15102
14652
14277
13776
13433
13108
12870
12777
12667
12767
12681
12785
12675
12835
12694
12815
12653
12873
12789
12927
12867
13009
12999
13066
13040
13064
13109
13050
13140
13061
13150
12936
13024
12748
12805
12637
12790
12700
12976
12963
13139
13134
13187
13121
13044
12978
12894
12997
12890
13019
12877
13076
13132
13712
14256
15813
16921
15498
11809
12068
12510
13106
13083
13326
13211
13307
13267
13337
13279
13307
13421
13459
13569
13539
13679
13622
13851
13871
14203
14193
14623
14660
14961
14854
14960
14830
14757
14398
14024
13576
13135
12877
12601
12491
12253
12300
12138
12238
12135
12381
12245
12433
12389
12615
12578
12680
12634
12679
12706
12698
12736
12687
12701
12478
12531
12338
12456
12362
12473
12168
12307
12143
12467
12477
12675
12712
12885
12947
12950
13072
13169
13168
13288
13310
13349
13439
13434
13723
14068
14845
15950
17066
15796
12061
11709
12732
13183
13510
13391
13500
13371
13402
13409
13364
13428
13420
13615
13566
13784
13714
14007
13953
14285
14280
14713
14797
15229
15238
15376
15225
15215
15068
14774
14466
13997
13675
13219
13119
12770
12845
12510
12662
12399
12589
12426
12620
12543
12760
12699
12729
12769
12739
12827
12718
12836
12682
12817
12663
12825
12591
12814
12602
12825
12652
12878
12692
12885
12635
12915
12824
13136
13138
13408
13403
13519
13511
13458
13437
13315
13391
13307
13527
13433
13703
13581
13989
14058
15006
16087
17390
16806
13009
11768
12582
13286
13571
13687
13666
13776
13646
13837
13688
13899
13693
13878
13701
13980
13923
14196
14169
14390
14484
14786
15046
15247
15488
15508
15606
15436
15507
15159
14992
14339
14076
13483
13394
12991
12968
12676
12681
12592
12642
12662
12658
12725
12657
12714
12824
12803
12755
12774
12786
12919
12858
13038
12909
13109
12886
13063
12894
13071
12948
13126
12988
13129
13059
13140
13133
13095
13138
13092
13287
13314
13518
13414
13622
13435
13615
13333
13460
13175
13252
13062
13204
13203
13321
13412
13543
14478
15643
16833
16728
13495
11053
12174
12861
13549
13515
13812
13628
13845
13674
13819
13665
13744
13774
13812
13816
13946
14103
14023
14334
14355
14768
14716
15086
15017
15295
15048
15211
14966
14972
14386
14108
13474
13270
12782
12710
12419
12420
12266
12294
12310
12379
12591
12568
12734
12639
12836
12692
12964
12786
13050
12824
13086
12897
13005
12831
12938
12844
12835
12772
12728
12751
12622
12792
12709
12886
12829
13115
12937
13190
12976
13123
12861
12937
12711
12790
12695
12762
12760
12813
13015
13067
13817
14904
16575
16567
14719
10496
11336
11975
12873
13028
13324
13343
13571
13560
13574
13619
13646
13794
13754
13924
14145
14177
14278
14498
14598
14832
14893
15247
15273
15551
15309
15344
14979
14933
14341
14013
13422
13155
12761
12625
12456
12317
12318
12246
12344
12266
12410
12279
12464
12322
12582
12448
12671
12518
12673
12569
12763
12668
12767
12783
12777
12817
12761
12858
12709
12860
12667
12747
12533
12776
12598
12940
12908
13212
13125
13249
13141
13125
13042
12932
12960
12881
13024
12888
13127
13095
13432
13768
14989
16319
17108
15047
11358
11913
12872
13026
13373
13266
13491
13367
13571
13507
13600
13595
13630
13738
13749
13949
13950
14220
14177
14527
14508
14972
14978
15374
15252
15470
15323
15346
15036
14737
14202
13726
13350
12919
12753
12490
12565
12330
12549
12364
12635
12359
12626
12446
12699
12591
12813
12717
12844
12819
12862
12920
12895
13002
12883
13018
12852
13027
12766
13019
12859
13054
12851
13070
12905
13057
12873
12871
12846
12903
13092
13127
13241
13310
13282
13317
13259
13084
13061
12838
12953
12866
13124
12931
13303
13297
14217
15152
16936
16898
13983
11637
12275
12834
13191
13302
13320
13448
13376
13567
13424
13683
13540
13831
13677
13953
13841
14122
14069
14374
14399
14653
14837
15140
15393
15498
15639
15484
15521
15160
14982
14282
14028
13409
13264
12784
12804
12497
12545
12394
12455
12371
12391
12454
12485
12515
12458
12707
12567
12769
12616
12855
12669
12944
12704
12884
12749
13020
12798
13007
12819
13051
12799
12934
12772
12920
12873
12902
12956
12866
12856
12824
12996
13021
13404
13236
13442
13262
13549
13285
13469
13269
13355
13171
13266
13197
13318
13376
13518
14205
14803
16408
16677
14948
11453
11964
12461
13183
13162
13487
13371
13638
13558
13739
13687
13771
13806
13810
13911
13854
14023
13896
14151
14144
14566
14546
14973
14996
15335
15220
15369
15162
15136
14794
14416
13902
13437
13151
12785
12655
12710
12643
12631
12637
12540
12665
12565
12690
12487
12660
12498
12717
12474
12727
12571
12760
12585
12763
12697
12784
12751
12779
12812
12774
12863
12852
13083
13017
13201
13030
13200
12962
13109
12888
13059
12915
13049
12980
13097
13140
13296
13402
13417
13518
13416
13518
13277
13343
13095
13279
13085
13291
13153
13411
13460
14209
14693
16108
16610
15233
11555
11728
12649
13186
13527
13369
13512
13302
13547
13389
13601
13421
13655
13551
13866
13777
14076
13968
14312
14247
14606
14704
15043
15133
15320
15389
15379
15347
15042
14887
14335
13968
13362
13343
12858
12882
12532
12639
12444
12652
12526
12644
12538
12593
12614
12613
12683
12631
12777
12634
12765
12606
12826
12613
12833
12655
12892
12708
12893
12799
12961
12894
12975
12977
12934
13054
13036
13159
13034
13235
13047
13190
12936
13114
12905
13230
13087
13403
13322
13543
13485
13635
13641
13495
13424
13362
13290
13330
13320
13448
13621
13703
14478
15023
16372
16498
14653
11163
11903
12554
13362
13322
13570
13518
13672
13579
13711
13724
13750
13818
13793
13957
13930
14109
14053
14331
14286
14672
14696
15047
15082
15453
15426
15563
15338
15304
15144
14791
14392
13898
13550
13133
13047
12784
12835
12631
12803
12611
12845
12708
12890
12792
12922
12881
12958
12878
12920
12937
12784
12839
12717
12807
12665
12828
12714
12890
12767
12943
12747
13006
12900
13029
12852
13021
12779
12930
12822
13057
13105
13247
13229
13273
13311
13288
13345
13194
13205
13056
13220
13121
13333
13188
13522
13663
15034
16524
16944
15984
11533
11115
12130
12887
13312
13499
13507
13722
13693
13851
13728
13891
13743
13935
13829
14072
13976
14227
14197
14417
14515
14785
15003
15287
15541
15509
15571
15415
15390
15000
14748
14074
13757
13128
12944
12549
12499
12268
12329
12258
12251
12223
12243
12286
12360
12471
12598
12569
12577
12689
12614
12687
12553
12710
12584
12757
12518
12643
12472
12688
12620
12728
12644
12762
12735
12773
12762
12769
12717
12606
12689
12620
12886
12779
13078
12939
13132
12943
13084
12943
13015
12936
13077
13067
13187
13261
13459
13808
14500
15949
16826
16300
12183
11668
12226
13060
13202
13478
13396
13574
13472
13621
13598
13679
13695
13729
13811
13786
13918
13940
14153
14138
14467
14540
14956
15091
15435
15435
15626
15422
15430
15010
14753
14093
13764
13303
13159
12862
12824
12698
12642
12600
12523
12604
12557
12704
12692
12867
12747
12921
12715
12905
12747
12910
12779
12893
12767
12847
12785
12831
12844
12841
12901
12891
13042
12984
13163
13050
13267
13096
13125
12974
13165
13138
13410
13341
13507
13432
13492
13414
13317
13272
13146
13281
13138
13275
13162
13397
13366
14175
14791
16417
16764
14971
11367
11793
12531
13180
13286
13334
13390
13548
13513
13603
13605
13654
13748
13759
13898
13863
14064
14001
14260
14230
14570
14586
14971
15044
15310
15253
15330
15127
14985
14667
14293
13855
13337
13007
12651
12603
12349
12419
12242
12401
12259
12446
12297
12482
12420
12627
12565
12645
12619
12671
12670
12583
12678
12634
12802
12685
12832
12690
12870
12763
12938
12805
12980
12871
13021
12963
13070
13091
13130
13088
13023
13145
13078
13387
13391
13607
13401
13561
13352
13429
13307
13350
13134
13274
13130
13351
13192
13534
13765
14622
15736
16742
16026
12081
11510
12338
13139
13289
13499
13403
13569
13449
13636
13495
13696
13488
13646
13577
13781
13771
13903
13956
14108
14298
14481
14813
14969
15269
15270
15417
15214
15288
14883
14642
14034
13736
13171
13012
12708
12633
12551
12527
12519
12491
12612
12549
12693
12602
12789
12695
12874
12740
12928
12752
12911
12824
13003
12899
12995
12963
12957
12957
13073
13000
13062
13002
13040
13097
13173
13253
13048
13050
13005
13171
13195
13503
13403
13633
13463
13626
13447
13512
13289
13310
13220
13255
13264
13297
13456
13468
14425
15535
16975
16966
13862
11002
12036
12693
13371
13306
13472
13370
13508
13522
13609
13639
13685
13813
13777
13939
13910
14146
14086
14427
14449
14824
14883
15289
15366
15598
15495
15500
15302
15137
14840
14331
13973
13506
13275
12874
12800
12517
12592
12369
12510
12420
12618
12522
12685
12593
12802
12689
12871
12764
12917
12849
12946
12834
12868
12848
12878
12958
12848
12913
12710
12823
12668
12748
12658
12918
12876
13116
12965
13082
12905
12903
12769
12747
12795
12777
12879
12838
12989
13055
13437
14466
16440
16920
16260
11337
11021
11873
12802
13096
13350
13436
13543
13551
13557
13620
13555
13654
13570
13694
13619
13829
13725
13992
13892
14214
14216
14551
14547
14777
14674
14716
14629
14462
14312
13872
13465
13210
12905
12706
12613
12501
12511
12305
12348
12163
12419
12185
12459
12299
12578
12435
12681
12542
12696
12566
12655
12600
12596
12606
12553
12687
12580
12795
12653
12844
12597
12811
12509
12703
12547
12809
12859
13200
13146
13338
13365
13440
13405
13156
13210
12855
13196
12905
13275
12988
13369
13297
14221
14861
16580
17089
15473
11801
12024
12893
13318
13627
13482
13790
13513
13869
13581
13895
13537
13875
13546
13771
13564
14008
13798
14295
14176
14662
14588
15002
14960
15186
15159
15157
15092
14841
14712
14102
13989
13343
13286
12677
12840
12340
12592
12234
12546
12312
12556
12384
12583
12605
12697
12786
12729
12921
12678
12936
12689
13071
12730
13097
12763
13097
12820
13107
12854
13121
12929
13043
12912
12959
12972
12935
13261
13086
13336
13015
13383
12999
13261
12841
13125
12774
13114
12862
13076
12924
13199
13340
14047
15227
16593
16644
12716
11609
12493
13122
13227
13440
13357
13624
13353
13705
13440
13816
13538
13956
13704
14126
13945
14227
14130
14393
14483
14711
14937
15076
15335
15142
15398
15083
15318
14737
14716
13979
13875
13121
13195
12697
12836
12513
12637
12501
12550
12645
12551
12676
12496
12755
12559
12930
12620
12961
12632
12969
12635
12977
12728
12927
12707
12930
12841
12859
12877
12797
12921
12733
13018
12680
12863
12577
12931
12724
13243
12929
13241
12978
13389
13051
13324
12866
13110
12790
13088
12884
13087
13061
13322
13941
14590
16086
16524
15119
11125
11755
12410
13400
13253
13669
13401
13795
13549
13852
13669
13928
13893
14031
14122
14163
14366
14260
14554
14420
14850
14696
15258
15142
15618
15407
15758
15433
15535
15074
14878
14383
14029
13683
13340
13221
12879
13019
12691
12984
12655
13009
12661
13014
12702
13068
12877
13134
12966
13142
13019
13071
13131
13055
13136
12961
13151
13068
13090
13081
13131
12963
13131
12831
13063
12797
13197
12980
13405
13032
13358
13094
13372
13075
13139
12915
12962
12953
12853
12984
12826
13115
13012
14052
15125
16811
16435
14402
10189
11293
11919
12889
12979
13271
13264
13423
13488
13507
13653
13597
13827
13596
13973
13715
14135
13947
14453
14280
14816
14803
15331
15289
15606
15524
15575
15501
15285
15062
14425
14138
13410
13342
12727
12829
12327
12586
12204
12536
12211
12468
12212
12666
12397
12724
12449
12759
12515
12702
12645
12751
12762
12758
12835
12716
12854
12561
12756
12425
12790
12477
12960
12804
13213
12969
13216
12935
13073
12883
12898
12830
12751
12810
12715
12912
12708
13120
12946
14361
15756
17224
17045
13348
11061
12226
12711
13348
13319
13452
13560
13585
13695
13628
13875
13663
13975
13736
14115
13872
14341
14147
14551
14364
14841
14878
15328
15338
15469
15499
15392
15349
15013
14866
14174
13695
13364
13172
12900
12921
12535
12750
12394
12645
12309
12682
12317
12661
12373
12706
12503
12719
12622
12775
12747
12804
12943
12791
12949
12750
12994
12685
12960
12601
12929
12596
13034
12823
13214
13077
13257
13102
13196
13096
13023
13116
13039
13265
13028
13307
13079
13539
13637
15020
16407
17718
16226
11944
11596
12501
12916
13238
13256
13315
13469
13271
13463
13276
13642
13414
13779
13463
13911
13710
14074
13843
14277
14255
14656
14722
15348
15137
15378
15076
15200
14797
14549
14087
13622
13274
12854
12876
12527
12676
12351
12684
12393
12783
12409
12724
12448
12782
12532
12773
12611
12701
12673
12731
12835
12726
12914
12700
12944
12641
13019
12683
13001
12643
12951
12679
13025
12972
13302
13233
13347
13283
13238
13280
13065
13176
12934
13256
13002
13340
13066
13506
13207
14258
15169
17081
17459
15016
11659
12126
12755
13136
13325
13242
13491
13307
13615
13364
13642
13610
13785
13580
13892
13710
14130
13925
14373
14132
14621
14542
15074
14976
15310
15102
15139
14982
14688
14398
13773
13515
12937
12923
12438
12633
12241
12499
12102
12423
12164
12498
12269
12537
12409
12572
12594
12593
12667
12550
12734
12520
12823
12506
12795
12474
12825
12440
12758
12448
12725
12525
12741
12591
12684
12573
12501
12633
12553
12904
12758
13110
12873
13248
12895
13181
12823
13124
12892
13258
13052
13308
13229
13700
13815
14918
15997
17342
16591
12694
11818
12449
13076
13138
13403
13234
13541
13279
13658
13307
13658
13398
13820
13592
13968
13752
14066
14013
14292
14419
14603
14930
15054
15407
15279
15588
15250
15470
14847
14797
13970
13858
13187
13181
12709
12791
12582
12635
12590
12583
12708
12586
12757
12512
12828
12542
12880
12505
12842
12498
12881
12612
12946
12731
12884
12725
12866
12854
12864
12946
12807
13023
12781
13084
12785
13081
12745
13048
12966
13388
13244
13619
13250
13620
13372
13711
13284
13484
13146
13339
13175
13310
13292
13358
13548
13900
14716
15752
16999
15805
12174
11597
12718
12958
13507
13343
13665
13470
13690
13550
13649
13611
13600
13708
13634
13899
13721
14050
13873
14334
14125
14659
14587
15188
15128
15450
15192
15312
15024
14891
14490
14019
13654
13158
13091
12662
12772
12365
12667
12381
12754
12438
12780
12519
12810
12626
12808
12751
12846
12720
13052
12837
13003
12827
12944
12911
12978
13039
12908
13073
12836
13098
12797
13083
12748
13084
12733
13077
12719
12982
12835
13111
13144
13360
13370
13339
13428
13298
13472
13171
13354
13016
13328
13034
13375
13038
13470
13318
14425
15131
16664
16641
13717
11281
12026
12980
13300
13630
13451
13773
13463
13803
13507
13907
13653
13982
13709
14007
13800
14063
14042
14274
14389
14514
14796
14863
15270
15139
15435
15100
15313
14785
14710
14078
13895
13248
13294
12749
12942
12479
12776
12507
12831
12643
12859
12720
12815
12812
12789
12866
12730
12951
12683
12966
12696
12989
12681
13022
12678
12995
12682
12964
12769
12960
12851
12979
12934
12862
12998
12858
13083
12888
13216
13035
13463
13168
13585
13273
13603
13269
13438
13130
13247
13154
13252
13278
13271
13478
13407
14574
15550
16992
16727
13580
10814
12048
12510
13317
13202
13563
13452
13611
13558
13732
13838
14065
13958
14177
14071
14194
14217
14270
14478
14484
14886
14868
15398
15263
15599
15243
15564
15140
15286
14652
14481
13797
13566
13107
12930
12744
12639
12701
12563
12756
12494
12803
12450
12761
12498
12876
12547
12910
12693
12959
12732
12950
12869
12953
12939
12842
12939
12803
13030
12756
13027
12627
12904
12549
12898
12719
13151
12917
13187
13013
13182
13001
12988
12968
12924
13021
12809
13052
12836
13248
12997
13817
14616
16526
16646
13290
10558
11790
12204
13038
12864
13246
13049
13344
13170
13341
13261
13384
13422
13375
13561
13491
13800
13608
14055
13951
14496
14389
14949
14790
15173
14951
15173
14886
14894
14449
14060
13618
13184
13023
12621
12723
12288
12524
12172
12455
12092
12408
12124
12533
12321
12654
12547
12800
12739
12799
12806
12731
12911
12715
12973
12697
12975
12622
12931
12576
12910
12592
12900
12623
12934
12893
13171
13140
13225
13267
13167
13258
13213
13071
13073
13071
13005
13118
12936
13339
13307
14314
15274
16884
16093
12192
10983
12074
12528
13037
12955
13258
13244
13350
13391
13330
13541
13386
13632
13407
13799
13589
14028
13814
14282
14148
14756
14730
15200
15087
15303
15271
15265
15107
14800
14661
14019
13828
13141
13129
12551
12775
12360
12682
12352
12661
12426
12693
12553
12737
12679
12716
12774
12691
12902
12771
13062
12780
13115
12819
13221
12889
13251
12908
13159
12810
13148
12884
13222
13071
13535
13320
13594
13416
13577
13431
13346
13251
13101
13214
13017
13294
13046
13358
13137
13865
14171
15974
16883
16140
11572
11593
12222
13017
13102
13225
13374
13337
13472
13332
13639
13383
13728
13373
13758
13434
13845
13588
13988
13817
14263
14351
14747
14984
15221
15387
15311
15432
15098
15123
14434
14357
13556
13532
12894
13014
12558
12767
12532
12727
12597
12740
12725
12736
12834
12767
12967
12749
12879
12950
12996
12870
13003
12800
13081
12865
13222
12875
13219
12826
13155
12803
13163
12961
13356
13335
13541
13497
13450
13465
13305
13387
13087
13312
13058
13441
13113
13476
13121
13563
13555
14628
15874
17210
16020
11596
11225
12136
12974
13095
13355
13212
13582
13309
13677
13361
13758
13461
13806
13537
13902
13795
14110
14076
14274
14330
14484
14835
14899
15255
15110
15422
15053
15288
14741
14756
14005
13962
13309
13292
12824
12901
12474
12738
12442
12776
12500
12755
12619
12798
12806
12842
12956
12836
12976
12736
13000
12606
12935
12587
12945
12559
12933
12650
12923
12654
12887
12821
12988
13141
13286
13381
13263
13491
13208
13399
13000
13248
12898
13232
12916
13286
12954
13318
13239
14144
15275
16858
17276
14861
10968
11538
12668
13113
13663
13492
13953
13655
14037
13740
14063
13751
13981
13787
14017
13979
14107
14174
14251
14534
14520
14940
14887
15375
15336
15449
15254
15322
14863
14853
14135
14043
13314
13344
12721
12886
12474
12678
12413
12586
12423
12525
12576
12643
12810
12673
12938
12670
12961
12709
13093
12769
13140
12837
13128
12735
12954
12675
12838
12797
13051
13172
13200
13383
13209
13429
13124
13351
13027
13398
13028
13383
13064
13421
13279
13571
14241
15919
17055
17300
13110
10765
11755
12312
12974
12791
13179
12931
13315
13020
13411
13203
13611
13374
13674
13535
13790
13760
14291
14117
14520
14453
14880
14906
15069
15104
14997
15013
14703
14655
14012
13858
13110
13139
12500
12648
12208
12456
12093
12313
12096
12241
12044
12096
12222
12270
12448
12305
12564
12386
12765
12425
12771
12426
12778
12522
12805
12453
12624
12394
12605
12473
12684
12901
12928
13169
12960
13190
12815
13026
12607
12993
12700
13152
12871
13241
12980
13364
13604
14612
16168
17454
16341
11914
11784
12223
13010
12872
13326
13090
13497
13323
13646
13432
13791
13545
14005
13733
14140
13881
14360
14226
14587
14458
14778
14867
15086
15175
15086
15196
14929
14985
14386
14235
13462
13446
12812
12908
12419
12652
12307
12488
12275
12456
12438
12472
12539
12453
12666
12491
12829
12585
12939
12645
13047
12732
13091
12761
13128
12892
13082
12898
12994
12888
12950
13041
13048
13391
13265
13573
13257
13618
13175
13436
13009
13279
13007
13354
13087
13300
13127
13345
13598
14288
17394
15150
11719
11862
12673
13108
13170
13338
13159
13463
13199
13523
13238
13652
13262
13625
13310
13680
13509
13918
13853
14215
14281
14585
14831
14968
15253
15116
15358
14999
15161
14530
14527
13743
13725
13040
13106
12638
12730
12453
12597
12496
12547
12570
12512
12638
12458
12725
12479
12859
12567
12971
12652
13016
12707
13041
12793
13065
12865
12981
12852
12899
12976
12889
13003
12794
13056
12845
13335
13042
13415
13070
13461
13171
13508
13084
13323
12946
13329
13023
13366
13134
13509
13573
14481
15657
16956
16539
12362
11638
12303
13276
13221
13564
13332
13661
13318
13630
13334
13699
13520
13836
13676
13903
13925
14050
14160
14201
14491
14426
14896
14832
15306
15054
15409
15007
15209
14651
14595
13870
13640
13100
12927
12617
12501
12481
12366
12514
12274
12533
12263
12561
12224
12618
12366
12777
12514
12883
12628
12877
12716
12793
12724
12752
12821
12729
12730
12993
12918
12938
12923
12844
12932
12737
13190
12962
13363
13051
13441
13069
13338
12869
13085
12803
13004
12845
13022
12984
13167
13344
14063
15382
16489
16707
12638
11202
11668
12823
12856
13290
13010
13326
13149
13500
13437
13587
13551
13621
13777
13808
14065
13950
14334
14175
14655
14526
15104
14994
15537
15311
15588
15317
15421
15054
14819
14327
13881
13536
13067
12974
12560
12709
12342
12622
12281
12680
12406
12816
12523
12966
12695
13068
12720
13085
12795
13134
12891
13110
12965
13102
13028
13061
13155
13042
13188
12963
13190
12954
13372
13135
13544
13282
13611
13199
13427
13114
13298
13174
13329
13273
13276
13370
13305
13572
14203
15735
16635
17114
13555
10770
11331
12562
12818
13345
13227
13544
13425
13573
13591
13633
13746
13576
13858
13679
14026
13755
14184
13942
14461
14276
14844
14785
15248
15128
15383
15166
15133
14959
14658
14352
13858
13688
13190
12948
12768
12694
12450
12629
12388
12625
12257
12645
12358
12716
12364
12699
12420
12775
12612
12882
12711
12788
12773
12759
12793
12633
12842
12487
12715
12366
12696
12340
12806
12614
13035
12804
13119
12850
13021
12809
12800
12788
12791
12928
12822
13092
12998
13487
13967
15511
16603
17167
13277
11408
11803
12851
12968
13224
13177
13329
13331
13316
13508
13401
13723
13538
13907
13620
14046
13764
14221
14004
14490
14398
14879
14996
15576
15289
15608
15242
15367
14854
14678
14095
13766
13354
12957
12865
12606
12705
12357
12664
12367
12733
12392
12772
12534
12912
12670
13025
12831
13098
13018
13113
13107
13062
13243
13028
13202
12935
13206
12767
13052
12669
12993
12698
13192
13011
13326
13136
13299
13171
13208
13156
13039
13137
12910
13178
12929
13263
13097
13627
14039
15428
16591
17121
13150
11468
11963
12882
13144
13276
13328
13283
13434
13217
13458
13237
13575
13429
13628
13542
13862
13648
14033
13806
14261
14108
14629
14477
14932
14705
14951
14702
14780
14462
14194
13796
13334
13093
12693
12794
12398
12609
12227
12595
12327
12696
12355
12709
12463
12746
12578
12716
12633
12668
12744
12642
12777
12594
12850
12546
12888
12592
12891
12517
12921
12666
12981
12915
13352
13258
13444
13416
13394
13384
13186
13213
12966
13223
12922
13223
12913
13307
13116
14014
14429
16252
16972
15569
11353
11783
12700
13478
13314
13623
13410
13607
13569
13633
13694
13631
13802
13614
13929
13735
14104
13835
14327
14170
14668
14573
15105
14992
15333
15144
15201
15065
14905
14629
14093
13817
13250
13185
12683
12844
12392
12733
12371
12743
12455
12827
12609
12800
12657
12779
12704
12751
12856
12822
13067
12851
13114
12766
13149
12827
13183
12825
13121
12785
13114
12896
13203
13206
13399
13352
13344
13395
13165
13267
12955
13160
12854
13249
12969
13379
13287
13645
13950
15382
16525
17525
15121
11238
11440
12643
13018
13465
13391
13617
13574
13604
13738
13711
13913
13757
14123
13895
14323
14059
14512
14305
14806
14606
15103
15120
15503
15475
15630
15532
15407
15298
14883
14683
13972
13845
13186
13241
12681
12832
12370
12645
12263
12500
12324
12573
12426
12606
12693
12714
12797
12664
12902
12650
12919
12561
12865
12553
12877
12548
12954
12784
13106
12875
12961
12837
12885
12789
12866
12672
12815
12683
12831
12794
12861
13057
13887
15469
16322
16846
13003
10552
11182
12322
12479
13011
12831
13236
13067
13254
13117
13298
13303
13298
13488
13441
13700
13545
13990
13837
14390
14254
14820
14677
15223
15025
15346
15132
15219
14882
14584
14197
13678
13417
12983
12993
12623
12835
12407
12749
12384
12711
12399
12749
12449
12793
12628
12881
12824
12897
12909
12822
12962
12736
12952
12610
12856
12518
12823
12454
12959
12859
13348
13105
13474
13035
13418
13012
13350
13054
13320
13082
13256
13179
13412
13701
14419
15920
17183
17093
12311
11726
12119
13058
12937
13388
13110
13482
13262
13544
13354
13556
13517
13604
13666
13613
13844
13772
14085
13909
14370
14147
14684
14540
15070
14769
15071
14739
14838
14386
14180
13704
13368
13086
12743
12755
12404
12589
12303
12596
12259
12640
12313
12672
12385
12716
12462
12744
12576
12666
12581
12584
12621
12545
12450
12567
12512
12621
12599
12663
12983
12939
13237
12917
13230
12907
13210
12778
13103
12840
13189
12946
13216
13010
13320
13464
14202
15596
17209
17139
12617
11746
12201
13134
12980
13405
13112
13496
13213
13590
13341
13587
13401
13618
13637
13757
13878
13932
14164
14000
14360
14247
14771
14703
15181
14897
15229
14855
15087
14597
14511
13918
13633
13202
12953
12837
12636
12767
12540
12803
12524
12909
12607
12951
12633
12974
12672
13006
12732
13057
12687
13001
12726
13025
12761
13016
12810
12972
12930
12924
13106
13171
13337
13191
13423
13155
13404
13006
13221
12740
13069
12715
13047
12825
13117
13089
13518
14072
15497
17066
16409
12106
11222
12287
12648
13176
12963
13430
13141
13529
13245
13612
13409
13671
13490
13661
13660
13750
13948
13938
14193
14098
14569
14475
14993
14797
15224
14915
15223
14778
14814
14221
14050
13403
13199
12899
12678
12606
12340
12473
12234
12458
12625
12706
12589
12794
12585
12834
12511
12844
12481
12813
12453
12869
12581
12917
12637
12871
12715
12945
12935
13154
13404
13362
13578
13392
13713
13389
13524
13003
13280
12971
13285
13015
13368
13178
13551
13737
14477
15699
16958
16396
11914
11797
12400
13242
13068
13489
13202
13543
13247
13690
13474
13833
13654
13959
13873
14040
14102
14160
14364
14333
14655
14686
15188
15008
15417
15089
15430
15074
15265
14690
14625
13929
13642
12992
13075
12559
12762
12423
12591
12428
12540
12488
12527
12628
12551
12740
12517
12781
12511
12834
12524
12911
12618
12967
12677
12903
12539
12782
12676
12821
12923
13015
13133
12982
13192
12950
13179
12811
13075
12731
13123
12866
13232
12966
13293
13188
14124
14794
16325
17054
14575
11182
11673
12809
13130
13516
13279
13648
13323
13707
13356
13745
13537
13841
13620
13871
13885
14181
14283
14353
14504
14523
14983
14939
15363
15347
15533
15365
15451
14960
14863
14184
14104
13325
13303
12765
12996
12553
12705
12418
12624
12470
12559
12473
12465
12563
12487
12742
12545
12805
12499
12844
12555
12918
12527
12824
12601
12904
12748
13098
13054
13163
13195
13139
13157
12974
13055
12790
13021
12698
13025
12774
13150
12994
13419
14272
16327
17012
17066
12128
10802
11758
12433
12961
12951
13246
13085
13511
13224
13594
13314
13690
13458
13828
13600
13893
13802
14100
14093
14689
14552
15006
14979
15264
15139
15205
15021
14783
14549
14115
13904
13213
13164
12669
12820
12399
12652
12292
12582
12307
12619
12389
12619
12566
12688
12678
12655
12777
12685
12913
12662
12934
12607
12935
12666
13001
12732
13174
13011
13351
13149
13346
13260
13301
13205
13182
13244
13078
13288
13062
13357
13195
13707
14423
16435
16773
16723
11914
11171
11960
12892
13116
13320
13537
13558
13749
13582
13837
13652
13958
13675
14046
13997
14269
14096
14445
14243
14738
14641
15145
14943
15292
14986
15195
14905
14881
14387
14044
13647
13241
12993
12555
12586
12238
12457
12100
12429
12077
12466
12124
12466
12191
12483
12322
12572
12532
12676
12738
12756
12882
12708
12841
12576
12867
12562
12946
12724
13143
12850
13170
12866
13039
12754
12792
12723
12840
12880
12859
13064
12941
13307
13466
14784
16023
17212
15908
11695
11191
12251
12584
13033
13005
13289
13226
13456
13298
13637
13445
13674
13548
13686
13741
13727
13934
13845
14189
14166
14689
14617
15124
14832
15173
14876
15105
14656
14605
13947
13688
13251
12990
12787
12567
12608
12379
12531
12247
12605
12380
12769
12443
12796
12595
12976
12771
13052
12879
13086
13027
13058
13000
12817
12877
12681
12923
12704
13131
12932
13378
13106
13401
13046
13335
13060
13277
13094
13158
13149
13318
13223
13392
13571
14186
15743
16992
16964
12586
12028
12983
13582
13552
13760
13613
13808
13607
13875
13691
13938
13700
13954
13859
14093
14019
14177
14162
14294
14371
14562
14871
14982
15192
14995
15116
14829
14833
14300
14049
13490
13376
12933
12838
12566
12575
12487
12489
12453
12447
12567
12447
12599
12464
12664
12546
12790
12619
12816
12656
12820
12625
12711
12561
12613
12423
12401
12389
12232
12231
12206
12460
12460
12724
12589
12819
12655
12860
12669
12755
12523
12676
12660
12798
12801
13064
13170
13637
14279
15937
17239
16589
12398
11579
12280
12715
13020
12906
13165
13004
13258
13088
13370
13168
13432
13318
13553
13517
13717
13732
13919
14075
14226
14507
14618
14939
14974
15217
15080
15326
15002
15000
14498
14280
13723
13565
13179
13135
12992
12982
12915
12848
12940
12882
13056
12957
13129
12976
13133
12947
13105
12954
13082
12903
12984
12884
12930
12770
12801
12830
12808
13053
13103
13205
13102
13257
13054
13162
13007
13077
12911
12989
12839
13042
12870
13126
13095
13954
14763
16631
17226
14575
11305
11905
12707
13136
13236
13202
13320
13237
13465
13299
13477
13353
13586
13381
13628
13547
13743
13666
13905
13960
14222
14456
14630
14803
14814
14929
14763
14841
14540
14421
13821
13619
13113
12995
12584
12643
12435
12520
12457
12570
12570
12551
12577
12498
12655
12604
12772
12604
12789
12678
12906
12794
12959
12785
12844
12648
12699
12532
12530
12514
12853
12995
13254
13170
13222
13213
13208
13192
13033
13029
12885
13032
12895
13098
12952
13222
13189
13893
14418
16070
16891
15479
11184
11471
12360
13052
13239
13250
13420
13253
13394
13258
13428
13219
13420
13230
13501
13312
13579
13513
13777
13863
14101
14233
14434
14701
14733
14934
14855
14941
14593
14535
13996
13913
13336
13254
12818
12897
12663
12761
12629
12739
12844
12892
12971
12845
12992
12875
13100
12940
13238
12980
13246
13203
13413
13208
13410
13216
13478
13224
13419
13199
13422
13176
13529
13553
13547
13659
13588
13780
13563
13742
13325
13667
13343
13689
13426
13784
13545
14016
14504
15684
16926
17648
15312
11579
12274
12983
13743
13680
14027
13777
14156
13847
14242
13931
14299
13987
14306
14126
14411
14292
14454
14512
14540
14765
14788
15159
15042
15377
15075
15328
14902
15131
14538
14504
13840
13723
13149
13102
12831
12879
12767
12681
12762
12836
12698
12849
12815
12892
13009
12906
13049
12782
13068
12732
13086
12730
13020
12625
12967
12618
12892
12690
12953
12829
13031
12921
12876
12916
12725
12841
12588
12887
12623
13016
12736
13154
12923
14270
15429
16860
16765
13264
10340
11476
12270
12776
13005
12986
13319
13217
13506
13207
13594
13324
13669
13394
13788
13534
13867
13734
14103
14165
14484
14652
14826
15058
14974
15123
14786
14963
14443
14458
13739
13707
12987
12988
12497
12836
12490
12807
12392
12741
12481
12838
12596
12808
12656
12839
12768
12747
12814
12697
12865
12653
12928
12526
12831
12515
12812
12511
12941
12713
13044
12836
12980
12771
12798
12716
12686
12794
12694
12940
12784
13105
12984
13660
14322
16281
16811
16053
11099
11268
11781
12622
12770
13068
13135
13214
13330
13210
13437
13275
13606
13333
13760
13547
14005
13783
14200
14005
14457
14415
14831
14872
15075
15042
14940
14869
14558
14213
13941
13420
13119
12886
12652
12589
12295
12482
12200
12506
12200
12604
12366
12747
12449
12784
12588
12853
12732
12908
12889
12877
12889
12708
12763
12562
12873
12623
12997
12815
13261
12972
13364
13089
13357
13027
13124
12981
13090
13041
13060
13136
13116
13503
13696
14743
15944
17399
16205
12071
11511
12626
12819
13273
13149
13478
13382
13515
13508
13522
13616
13497
13775
13655
13975
13737
14138
13917
14375
14220
14722
14653
15095
14923
15293
14970
15216
14688
14648
13980
13839
13289
13146
12843
12752
12644
12448
12580
12377
12645
12372
12680
12335
12618
12352
12699
12408
12678
12386
12556
12604
12781
12785
12883
12943
12889
13017
12870
13104
12972
13426
13145
13550
13267
13572
13211
13404
13050
13265
13147
13331
13288
13363
13474
13555
14077
14458
16056
16846
16198
11960
11838
12275
13105
12994
13338
13275
13554
13497
13725
13757
13809
13968
13971
14191
14010
14311
14500
14608
14653
14886
14816
15193
15046
15421
15086
15307
14886
15015
14470
14331
13694
13593
13204
13233
13080
13054
13065
12933
13079
12928
13142
12880
13144
12821
13103
12701
12939
12605
12862
12628
12820
12657
12831
12834
12923
12994
12842
12962
12881
13161
13018
13481
13249
13620
13369
13716
13406
13622
13288
13352
13199
13309
13268
13299
13384
13511
13977
14210
15754
16426
15814
11897
12051
12535
13331
13159
13416
13172
13322
13093
13529
13363
13761
13637
13866
13706
13899
13863
13843
13955
14091
14362
14454
14889
14755
15098
14929
15280
14967
15133
14541
14397
13611
13328
12886
12819
12582
12525
12520
12390
12498
12402
12657
12423
12732
12532
12871
12543
12850
12568
12833
12562
12718
12530
12635
12550
12520
12569
12516
12609
12418
12618
12462
12794
12664
13112
12840
13178
12915
13227
12965
13114
12838
12843
12750
12787
12775
12704
12916
12878
13588
15350
16382
16225
12827
10587
11731
12303
13137
13020
13386
13161
13551
13363
13689
13510
13839
13715
13957
13958
14128
14210
14215
14406
14401
14807
14752
15240
15055
15394
15022
15198
14768
14874
14309
14130
13531
13322
12998
12927
12834
12680
12786
12573
12743
12445
12692
12406
12747
12461
12794
12496
12794
12620
12865
12732
12914
12868
12949
12959
12865
12987
12812
12970
12702
12885
12539
12906
12605
13090
13003
13343
13141
13437
13230
13578
13200
13356
13039
13310
13148
13355
13263
13518
13747
14511
16090
16929
16419
12241
12034
12504
13371
13227
13623
13452
13786
13542
13843
13758
13972
13894
14005
14093
14106
14248
14206
14558
14442
14852
14690
15231
15051
15448
15126
15386
14989
15030
14589
14432
13893
13568
13259
12973
12910
12724
12899
12572
12784
12557
12880
12635
13019
12751
13107
12859
13131
12893
13086
13010
13073
13033
12986
13095
12921
13077
12795
12829
12812
12929
12956
13188
13067
13350
13086
13370
13005
13171
12782
13090
12896
13118
12857
13121
13084
13348
13463
14628
16489
16455
15919
11970
10816
11698
12742
12953
13463
13189
13534
13353
13669
13617
13789
13667
13815
13920
13920
14085
13988
14320
14210
14662
14610
15181
15059
15496
15250
15484
15104
15140
14683
14533
14070
13745
13397
13014
12902
12553
12625
12368
12628
12339
12660
12388
12733
12522
12837
12640
12919
12729
13021
12758
13090
12825
13037
12816
12982
12769
12766
12667
12663
12772
12665
12980
12886
13209
12941
13226
12858
13091
12713
12937
12669
12942
12763
12986
12957
13204
13659
14929
16406
15999
14688
10687
11374
11855
12684
12623
13004
12834
13202
13000
13284
13199
13407
13349
13498
13527
13516
13698
13636
13986
13944
14367
14295
14837
14720
15119
14852
15079
14736
14756
14175
13828
13249
12897
12592
12372
12383
12217
12401
12200
12468
12195
12417
12372
12575
12402
12649
12408
12802
12524
12837
12537
12876
12694
12989
12778
12932
12829
12990
12959
12912
13047
12918
13069
12772
13089
12890
13320
13162
13527
13323
13636
13373
13604
13316
13395
13181
13208
13140
13143
13292
13249
13567
13678
14574
15999
17304
16028
12676
11913
12692
12854
13193
13093
13378
13302
13434
13440
13440
13590
13563
13896
13765
14060
13847
14256
14080
14514
14413
14913
14851
15284
15267
15530
15385
15502
15118
15045
14390
14154
13623
13383
13100
12960
12958
12827
12953
12736
12931
12683
12948
12710
13022
12761
12992
12659
12903
12613
12821
12651
12711
12683
12682
12761
12705
12855
12624
12904
12634
12802
12459
12768
12459
12940
12780
13150
13023
13260
13182
13256
13100
12995
13088
12987
13141
12971
13315
13153
13649
13884
15132
16617
17426
15009
12351
12405
13192
13361
13538
13531
13512
13599
13538
13725
13537
13737
13444
13737
13609
13829
13671
13970
13853
14285
14165
14681
14611
15081
14881
15161
14859
14913
14584
14359
13825
13351
13053
12726
12649
12291
12403
12086
12422
12135
12454
12157
12466
12251
12578
12385
12638
12452
12541
12539
12618
12690
12606
12782
12594
12898
12693
12965
12692
13041
12775
13059
12823
13121
12881
13061
12814
13025
13060
13172
13308
13269
13487
13267
13505
13215
13450
13130
13417
13128
13519
13264
13552
13491
13871
14287
15350
17047
16916
13154
12600
13004
13572
13682
13802
13923
13853
14002
13817
14034
13834
14103
13776
14125
13831
14167
13925
14280
14165
14538
14609
14976
15072
15248
15378
15255
15321
14991
14993
14374
14230
13553
13495
12873
12954
12528
12741
12454
12638
12472
12623
12566
12605
12663
12544
12696
12539
12790
12605
12932
12721
13049
12694
12965
12695
12936
12678
12878
12704
12833
12756
12723
12775
12728
12846
12631
12969
12749
13247
13118
13525
13385
13633
13437
13709
13362
13543
13182
13456
13197
13463
13221
13613
13659
14576
15815
16628
16162
12377
11838
12499
13296
13230
13554
13300
13662
13402
13792
13521
13845
13640
13915
13753
13903
13917
13987
14102
14197
14509
14556
15004
14902
15298
15071
15389
15024
15264
14775
14755
14107
13967
13427
13303
13004
12851
12737
12571
12674
12482
12770
12505
12786
12503
12914
12651
12999
12738
12972
12667
12826
12641
12736
12652
12858
12678
12958
12727
12826
12759
12853
12967
13099
13277
13124
13410
13207
13461
13123
13309
12898
13179
12882
13181
13020
13295
13188
13443
14459
16359
16795
15895
12408
10361
11816
12336
13112
13055
13454
13229
13609
