Tempo(ms),Leitura(ECG)
21,807
42,845
50,867
58,892
65,916
73,940
81,960
88,981
96,996
103,1013
111,1026
119,1037
126,1046
138,1054
146,1034
154,1005
161,972
169,942
176,908
184,875
192,847
199,820
207,796
215,776
222,757
230,736
238,721
245,712
253,727
260,748
268,777
276,802
283,827
291,849
298,871
306,893
314,910
321,928
329,943
336,955
344,963
352,971
359,976
367,985
375,988
382,989
390,991
398,993
405,997
413,994
420,995
428,992
436,989
443,988
451,987
459,981
466,975
474,964
481,959
489,959
497,961
504,961
512,955
519,951
527,942
548,926
556,917
564,902
571,885
581,870
589,852
597,836
604,828
612,820
619,816
627,811
635,792
642,793
650,875
657,1034
665,1124
673,1062
680,781
688,696
696,705
826,763
833,770
841,777
848,787
856,797
864,804
871,809
879,809
887,807
894,796
902,786
909,772
917,755
925,733
932,712
940,696
948,683
955,675
963,668
970,667
978,665
986,667
993,667
1001,670
1009,671
1016,673
1024,676
1032,679
1052,688
1060,692
1068,698
1075,706
1083,714
1091,721
1098,726
1106,733
1113,737
1121,743
1129,747
1139,750
1146,744
1154,743
1162,744
1169,749
1177,753
1184,757
1192,760
1200,766
1207,770
1215,774
1222,778
1230,780
1238,783
1246,785
1253,788
1261,789
1268,794
1276,795
1406,823
1413,819
1421,820
1429,823
1436,831
1444,832
1451,830
1459,827
1467,827
1474,827
1482,821
1490,817
1497,814
1505,807
1513,800
1520,800
1528,799
1535,798
1557,801
1565,792
1572,784
1580,842
1587,997
1595,1128
1603,1087
1610,831
1618,695
1626,694
1633,702
1641,708
1648,708
1656,714
1666,719
1674,714
1681,713
1689,715
1696,716
1704,719
1712,721
1719,726
1727,732
1735,739
1742,745
1750,754
1757,762
1765,773
1773,785
1780,798
1788,815
1918,767
1926,768
1934,771
1941,775
1949,777
1956,779
1964,780
1972,783
1979,785
1987,788
1995,785
2002,785
2010,785
2017,787
2025,788
2033,788
2040,791
2061,797
2069,804
2076,808
2084,814
2092,819
2100,822
2107,828
2115,831
2122,836
2130,839
2138,844
2145,847
2153,852
2160,855
2168,858
2176,859
2183,861
2193,862
2201,856
2208,851
2216,849
2224,852
2231,853
2239,856
2246,859
2254,860
2262,860
2269,864
2277,863
2285,864
2292,865
2300,866
2430,869
2437,871
2445,869
2453,869
2460,869
2468,856
2475,889
2483,1010
2491,1199
2498,1203
2506,1035
2514,812
2521,784
2529,787
2537,791
2544,786
2565,794
2573,795
2581,791
2588,789
2596,785
2603,783
2611,779
2619,779
2627,777
2634,775
2642,776
2649,779
2657,784
2665,788
2672,796
2680,806
2687,818
2695,828
2703,838
2710,840
2720,838
2728,822
2736,808
2743,792
2751,775
2759,757
2766,740
2774,729
2781,723
2789,719
2797,716
2804,720
2934,806
2942,808
2949,809
2957,807
2965,804
2972,804
2980,801
2987,800
2995,798
3003,797
3010,797
3018,800
3025,798
3033,797
3041,799
3048,800
3069,803
3077,806
3085,812
3092,817
3100,822
3108,828
3115,831
3123,837
3130,841
3138,845
3146,845
3153,848
3161,849
3169,847
3176,847
3184,854
3192,863
3199,870
3207,876
3214,879
3222,880
3230,880
3237,879
3247,872
3255,861
3263,847
3270,842
3278,844
3285,842
3293,843
3301,846
3308,849
3316,855
3324,847
3454,858
3461,859
3469,860
3477,860
3484,860
3492,859
3500,859
3507,862
3515,865
3522,872
3530,878
3538,886
3545,896
3553,904
3574,898
3582,885
3590,869
3597,847
3605,823
3613,798
3620,776
3628,756
3635,741
3643,729
3651,722
3658,718
3666,717
3673,717
3681,715
3689,716
3696,718
3704,719
3712,719
3719,721
3727,722
3735,726
3742,728
3750,731
3757,731
3765,733
3775,735
3783,729
3790,726
3798,725
3806,728
3813,733
3821,733
3828,735
3836,739
3844,742
3974,814
3981,825
3989,829
3997,831
4004,833
4012,831
4019,831
4027,826
4035,821
4042,818
4050,810
4057,809
4078,808
4086,812
4094,816
4101,827
4109,820
4117,862
4124,984
4132,1155
4140,1154
4147,980
4155,767
4162,770
4170,799
4178,817
4185,821
4193,826
4201,834
4208,839
4216,845
4224,847
4231,851
4239,855
4246,858
4254,863
4262,862
4269,865
4277,868
4285,873
4292,878
4302,887
4310,889
4317,892
4325,904
4333,915
4340,925
4348,930
4478,826
4485,831
4493,831
4500,832
4508,832
4516,833
4524,833
4531,830
4539,830
4546,828
4554,827
4562,824
4583,814
4590,811
4598,805
4606,801
4613,792
4621,784
4628,779
4636,776
4644,771
4652,767
4659,759
4667,750
4674,749
4682,752
4690,760
4697,766
4705,769
4713,769
4720,767
4728,768
4735,767
4743,763
4751,759
4758,754
4766,752
4774,754
4781,753
4789,756
4796,758
4804,760
4812,763
4819,769
4827,756
4837,815
4845,962
4852,1106
4860,1058
4990,838
4998,842
5005,845
5013,852
5021,863
5028,870
5036,879
5043,889
5051,897
5059,904
5066,904
5087,889
5095,880
5103,868
5110,855
5118,840
5126,828
5133,817
5141,812
5148,808
5156,807
5164,807
5171,811
5179,812
5187,816
5194,822
5202,826
5209,830
5217,834
5225,836
5232,836
5240,838
5248,841
5255,845
5263,847
5271,848
5278,846
5286,845
5293,845
5301,843
5309,844
5316,844
5324,845
5331,840
5339,836
5347,833
5354,835
5364,838
5372,836
5380,838
5510,851
5518,929
5525,1107
5533,1216
5540,1159
5548,845
5556,699
5563,748
5571,780
5592,807
5600,809
5608,812
5615,809
5623,806
5630,801
5638,800
5646,797
5653,795
5661,793
5668,792
5676,792
5684,795
5692,801
5699,804
5707,811
5714,822
5722,831
5730,838
5737,846
5745,849
5752,844
5760,837
5768,825
5775,815
5783,803
5791,788
5798,771
5806,758
5814,743
5821,737
5829,730
5836,725
5844,723
5852,722
5859,725
5867,729
5875,734
5885,740
6014,813
6022,821
6029,827
6037,827
6045,824
6052,820
6060,814
6067,808
6075,806
6096,805
6104,808
6111,812
6119,819
6127,826
6134,831
6142,839
6150,824
6157,894
6165,1059
6172,1160
6180,1122
6188,872
6195,682
6203,738
6211,772
6218,798
6226,819
6234,826
6241,837
6249,844
6256,850
6264,852
6272,857
6279,857
6287,861
6295,864
6302,866
6310,872
6318,877
6325,883
6333,887
6340,894
6348,901
6356,910
6363,921
6371,932
6379,939
6386,936
6516,819
6524,821
6534,821
6541,815
6549,810
6557,811
6564,809
6572,809
6580,806
6601,797
6608,796
6616,793
6624,794
6631,795
6639,792
6647,791
6654,789
6662,783
6670,777
6677,772
6685,766
6692,761
6700,758
6708,755
6715,753
6723,754
6731,752
6738,752
6746,754
6754,755
6761,757
6769,741
6776,786
6784,929
6792,1065
6799,1062
6807,889
6814,622
6822,645
6830,679
6837,699
6845,724
6853,734
6860,743
6868,752
6876,759
6883,763
6891,769
6898,773
7029,888
7036,877
7044,862
7052,842
7062,820
7069,793
7077,777
7084,768
7105,764
7113,768
7121,775
7128,781
7136,790
7144,799
7151,808
7159,817
7166,822
7174,828
7182,832
7189,836
7197,837
7205,835
7212,836
7220,841
7228,841
7235,846
7243,852
7250,856
7258,860
7266,861
7273,862
7281,858
7289,856
7296,855
7304,850
7312,845
7319,843
7327,846
7334,845
7342,844
7350,845
7357,850
7365,849
7373,850
7380,848
7388,838
7395,909
7403,1071
7411,1153
7540,857
7548,860
7555,861
7563,866
7571,870
7578,874
7588,884
7609,892
7617,889
7625,883
7632,871
7640,861
7648,845
7655,828
7663,808
7670,786
7678,768
7686,750
7693,742
7701,734
7709,731
7716,728
7724,727
7732,724
7739,728
7747,730
7754,733
7762,735
7770,737
7777,741
7785,741
7792,742
7800,747
7808,753
7815,750
7823,749
7831,747
7838,749
7846,750
7853,752
7861,758
7869,763
7876,770
7884,774
7892,778
7899,778
7907,776
7915,772
7922,772
8053,856
8060,719
8068,739
8076,752
8083,767
8091,775
8112,794
8119,798
8127,804
8137,811
8145,810
8152,811
8160,817
8168,822
8175,832
8183,841
8190,853
8198,863
8206,877
8213,889
8221,903
8229,914
8236,926
8244,936
8252,934
8259,929
8267,920
8274,910
8282,896
8290,881
8297,863
8305,851
8312,835
8320,825
8328,821
8335,816
8343,817
8351,816
8358,817
8366,818
8374,819
8381,820
8389,824
8396,825
8404,822
8412,824
8419,823
8427,826
8435,825
8442,827
8572,859
8580,861
8588,858
8595,852
8617,834
8624,824
8632,819
8639,815
8647,808
8655,803
8665,795
8672,782
8680,773
8688,774
8695,752
8703,773
8710,897
8718,1048
8726,1096
8733,984
8741,701
8749,675
8756,693
8764,711
8772,724
8779,733
8787,739
8795,749
8802,753
8810,756
8817,755
8825,758
8833,760
8840,766
8848,769
8856,774
8863,780
8871,784
8878,792
8886,801
8894,809
8901,821
8909,834
8916,846
8924,856
8932,858
8939,857
8947,851
8955,845
9085,802
9093,805
9100,803
9121,808
9129,812
9136,818
9144,822
9152,826
9159,830
9167,831
9174,833
9182,835
9192,836
9200,830
9207,825
9215,826
9223,831
9230,833
9238,838
9245,842
9253,843
9261,846
9268,847
9276,849
9284,849
9291,850
9299,849
9307,854
9314,858
9322,867
9330,868
9337,867
9345,868
9352,867
9360,864
9368,860
9375,857
9383,852
9391,848
9398,847
9406,849
9413,847
9421,844
9429,844
9436,843
9444,845
9451,846
9459,846
9467,847
9596,846
9604,848
9625,845
9633,845
9641,840
9648,836
9656,838
9663,836
9671,835
9679,839
9686,844
9694,855
9701,860
9709,861
9719,852
9727,838
9735,823
9742,806
9750,790
9757,779
9765,758
9773,743
9780,733
9788,725
9795,722
9803,723
9811,724
9818,726
9826,727
9834,728
9841,735
9849,735
9857,742
9864,742
9872,745
9879,746
9887,748
9895,753
9902,755
9910,759
9918,761
9925,765
9933,765
9941,767
9948,767
9956,769
9963,770
9971,771
9979,772
10108,824
10129,831
10137,832
10145,833
10153,835
10160,842
10168,847
10175,850
10183,850
10191,855
10198,855
10206,858
10213,858
10221,860
10229,861
10239,863
10246,856
10254,851
10262,849
10269,848
10277,849
10285,852
10292,859
10300,865
10307,865
10315,869
10323,872
10330,874
10338,873
10346,871
10353,869
10361,864
10369,857
10376,858
10384,855
10514,829
10521,830
10529,834
10537,834
10544,833
10552,831
10559,834
10567,834
10575,831
10582,829
10590,831
10597,836
10605,835
10613,837
10634,850
10642,855
10649,857
10657,866
10665,870
10672,869
10680,863
10688,854
10695,846
10703,830
10710,815
10718,795
10728,770
10736,744
10743,728
10751,713
10759,705
10766,700
10774,701
10781,703
10789,706
10797,709
10804,712
10934,789
10942,793
10950,792
10958,792
10965,790
10973,790
10980,788
10988,786
10996,788
11003,788
11011,787
11018,787
11026,788
11034,788
11041,791
11049,791
11057,791
11064,791
11072,793
11079,796
11087,798
11095,798
11102,796
11110,799
11118,798
11139,803
11146,806
11154,810
11162,816
11169,822
11177,828
11184,832
11192,837
11200,840
11207,846
11338,897
11348,892
11355,877
11363,869
11371,866
11378,865
11386,863
11393,864
11401,864
11409,864
11416,845
11424,890
11432,1033
11439,1194
11447,1193
11455,998
11462,790
11470,779
11477,784
11485,793
11493,796
11500,798
11508,805
11515,807
11523,809
11531,811
11538,814
11546,816
11554,817
11561,818
11569,818
11576,820
11720,815
11728,800
11735,785
11743,771
11751,764
11758,758
11766,753
11773,752
11781,746
11789,743
11796,742
11804,741
11812,740
11819,739
11827,738
11837,736
11844,728
11852,723
11860,723
11867,723
11875,727
11883,730
11890,733
11898,734
11905,736
11913,740
11921,742
11928,744
11936,745
11944,746
11951,747
11959,749
11966,753
11974,755
12104,815
12112,818
12119,817
12127,818
12135,815
12142,814
12150,813
12158,811
12165,810
12173,811
12180,810
12188,809
12196,811
12203,810
12224,811
12232,810
12240,811
12247,819
12255,828
12263,842
12270,850
12278,856
12285,860
12293,863
12301,865
12308,866
12316,864
12324,863
12334,856
12341,849
12349,846
12356,847
12364,848
12372,851
12379,861
12387,849
12517,861
12524,862
12532,861
12540,862
12547,862
12555,861
12563,863
12570,864
12578,868
12585,872
12593,879
12601,887
12608,899
12616,908
12624,914
12631,916
12639,913
12647,907
12654,897
12662,882
12669,864
12677,843
12685,822
12692,805
12700,792
12707,782
12729,770
12736,766
12744,764
12752,760
12759,757
12767,755
12775,753
12782,750
12790,749
12797,747
12927,776
12935,775
12945,773
12952,764
12960,760
12968,760
12975,761
12983,762
12990,764
12998,767
13006,769
13013,773
13021,773
13028,776
13036,777
13044,779
13051,780
13059,782
13067,783
13074,783
13082,784
13090,786
13097,786
13105,787
13112,789
13120,789
13128,792
13135,793
13143,796
13151,794
13158,794
13166,794
13309,840
13317,847
13324,842
13332,858
13340,939
13347,1130
13355,1206
13363,1125
13370,869
13378,799
13386,805
13393,816
13401,815
13408,817
13416,825
13424,830
13434,835
13441,830
13449,828
13457,830
13464,833
13472,836
13479,840
13487,844
13495,851
13502,856
13510,863
13518,869
13525,876
13533,886
13541,899
13548,911
13556,921
13563,928
13693,821
13701,822
13709,823
13716,823
13724,824
13731,822
13739,821
13747,822
13754,820
13762,819
13770,818
13777,818
13785,817
13792,813
13814,810
13821,805
13829,800
13837,792
13844,787
13852,782
13860,778
13867,773
13875,768
13882,763
13890,762
13898,760
13905,760
13913,759
13920,757
13930,758
13938,747
13946,742
13953,740
13961,743
13969,743
13976,746
14106,821
14113,826
14121,827
14129,826
14136,823
14144,820
14152,817
14159,812
14167,804
14175,801
14182,800
14190,799
14197,799
14205,800
14213,806
14220,797
14228,836
14236,949
14243,1118
14251,1108
14259,944
14266,738
14274,732
14281,751
14289,762
14297,761
14318,773
14325,781
14333,788
14341,795
14348,804
14356,812
14364,818
14371,822
14379,830
14509,895
14517,876
14524,859
14532,844
14542,829
14549,815
14557,805
14565,802
14572,801
14580,802
14588,803
14595,808
14603,810
14610,813
14618,815
14626,817
14633,819
14641,821
14649,821
14656,821
14664,822
14671,823
14679,823
14687,819
14694,818
14702,818
14710,817
14717,815
14725,816
14733,815
14740,813
14748,813
14891,830
14899,819
14907,814
14914,813
14922,812
14929,812
14937,810
14945,806
14953,800
14960,795
14968,789
14975,783
14983,776
14991,768
14998,763
15006,760
15013,757
15021,756
15029,757
15039,760
15046,744
15054,763
15062,850
15069,1007
15077,1052
15084,933
15092,682
15100,662
15107,694
15115,720
15123,726
15130,729
15138,738
15146,745
15276,891
15283,901
15291,904
15298,903
15306,896
15314,885
15321,868
15329,853
15337,833
15344,815
15352,798
15359,785
15367,775
15375,768
15396,766
15403,770
15411,775
15419,780
15426,789
15434,798
15442,806
15449,812
15457,816
15465,820
15472,825
15480,830
15487,835
15495,840
15503,841
15510,843
15518,844
15528,846
15535,841
15543,836
15551,834
15558,835
15688,895
15696,896
15703,894
15711,892
15719,889
15726,886
15734,879
15742,869
15749,859
15757,854
15764,850
15772,846
15780,845
15787,844
15795,844
15802,843
15810,831
15818,887
15825,1026
15833,1135
15841,1094
15848,851
15856,675
15864,724
15871,760
15879,786
15900,799
15908,802
15915,802
15923,800
15931,797
15938,799
15946,800
15954,797
15961,796
16091,831
16099,812
16106,794
16114,778
16122,761
16129,752
16137,746
16147,743
16155,732
16162,727
16170,726
16177,727
16185,732
16193,738
16200,743
16208,746
16215,753
16223,759
16231,763
16238,766
16246,767
16254,768
16261,770
16269,771
16277,772
16284,775
16292,774
16299,774
16307,771
16315,771
16322,770
16330,771
16473,834
16481,832
16488,855
16496,974
16504,1129
16511,1112
16519,994
16527,700
16534,690
16542,758
16550,792
16557,820
16565,835
16572,842
16580,851
16588,857
16595,862
16603,864
16611,868
16618,870
16626,872
16636,876
16643,871
16651,868
16659,870
16666,876
16674,885
16682,896
16689,906
16697,921
16704,933
16712,943
16720,946
16727,948
16857,819
16865,824
16873,822
16880,821
16888,820
16896,824
16903,824
16911,821
16918,817
16926,816
16934,813
16941,808
16949,802
16957,800
16978,800
16985,801
16993,804
17001,802
17008,801
17016,796
17024,789
17031,780
17039,772
17047,765
17054,761
17062,760
17069,757
17077,757
17085,755
17092,755
17100,756
17108,755
17115,756
17125,743
17133,786
17140,923
17270,811
17278,817
17285,822
17293,825
17300,830
17308,835
17316,841
17323,847
17331,860
17339,873
17346,885
17354,892
17362,895
17369,893
17377,885
17384,877
17392,866
17400,852
17407,835
17415,817
17423,800
17430,785
17438,772
17446,765
17453,760
17461,758
17482,762
17489,766
17497,776
17505,781
17512,790
17520,798
17528,805
17535,810
17543,814
17673,868
17681,864
17688,860
17696,860
17704,858
17711,855
17719,853
17726,852
17734,850
17744,850
17752,837
17759,826
17767,915
17775,1084
17782,1145
17790,1093
17797,790
17805,691
17813,736
17820,756
17828,781
17836,793
17843,801
17851,811
17859,815
17866,817
17874,817
17881,822
17889,826
17897,828
17904,827
17912,834
18055,820
18063,801
18071,788
18078,774
18086,767
18094,761
18101,757
18109,751
18116,747
18124,744
18132,746
18139,744
18147,743
18155,742
18162,744
18170,742
18178,744
18185,741
18193,740
18200,741
18208,736
18216,740
18223,739
18233,747
18241,741
18248,745
18256,749
18264,753
18271,753
18279,754
18286,754
18294,755
18302,755
18309,751
18440,719
18447,741
18455,757
18463,776
18470,781
18478,788
18485,797
18493,799
18501,801
18508,802
18516,805
18524,803
18531,808
18539,811
18560,821
18568,832
18575,842
18583,858
18590,871
18598,886
18606,900
18613,915
18621,924
18628,926
18636,922
18644,919
18652,910
18659,899
18667,883
18674,867
18682,851
18690,836
18697,828
18705,822
18712,822
18720,823
18852,860
18860,859
18867,855
18875,851
18883,851
18890,850
18898,852
18906,857
18913,856
18921,853
18928,854
18936,854
18944,849
18951,844
18959,835
18967,828
18974,826
18982,827
18989,826
18997,826
19005,822
19012,822
19020,819
19028,819
19035,822
19043,798
19064,1108
19072,1147
19079,1023
19087,724
19095,696
19102,712
19110,724
19117,734
19125,736
19255,832
19263,845
19270,852
19278,854
19286,855
19293,850
19301,841
19309,831
19316,816
19324,798
19331,779
19341,758
19349,740
19357,727
19364,722
19372,718
19380,720
19387,725
19395,731
19402,734
19410,740
19418,746
19425,748
19433,756
19441,759
19448,762
19456,763
19464,765
19471,768
19479,772
19486,774
19494,776
19502,776
19645,826
19652,834
19660,844
19668,852
19675,855
19683,860
19691,864
19698,866
19706,867
19713,870
19721,867
19729,862
19736,859
19744,861
19752,863
19759,862
19767,862
19774,860
19782,866
19790,866
19797,871
19805,854
19813,877
19820,981
19828,1125
19838,1175
19845,1004
19853,765
19861,763
19868,780
19876,798
19884,805
19891,810
19899,819
20029,936
20037,944
20044,945
20052,944
20060,937
20067,926
20075,910
20082,891
20090,870
20098,846
20105,825
20113,813
20121,802
20128,791
20150,781
20157,780
20165,776
20172,770
20180,768
20188,766
20195,765
20203,763
20211,761
20218,758
20226,753
20234,751
20241,751
20249,750
20256,748
20264,747
20272,747
20279,748
20287,746
20295,744
20302,746
20432,794
20440,795
20450,796
20457,788
20465,784
20473,780
20480,781
20488,784
20496,783
20503,787
20511,787
20518,792
20526,795
20534,795
20541,795
20549,795
20557,791
20564,790
20572,795
20580,798
20587,805
20595,807
20602,811
20610,814
20618,813
20625,814
20633,817
20654,810
20662,811
20669,815
20677,818
20684,823
20692,825
20700,832
20707,835
20715,839
20845,865
20852,868
20860,869
20868,872
20875,869
20883,869
20891,869
20898,871
20906,872
20913,876
20921,879
20929,881
20939,890
20946,892
20954,895
20961,902
20969,910
20977,912
20984,908
20992,900
21000,892
21007,879
21015,863
21022,845
21030,831
21038,816
21045,804
21053,797
21061,790
21068,788
21076,786
21083,788
21091,789
21234,819
21242,811
21249,807
21257,799
21265,793
21273,790
21280,783
21288,777
21295,771
21303,768
21311,764
21318,763
21326,760
21334,757
21341,755
21349,755
21357,754
21364,754
21372,752
21379,754
21387,755
21395,755
21402,754
21410,754
21417,756
21425,757
21435,758
21443,750
21450,749
21458,752
21466,754
21473,757
21481,760
21488,764
21618,819
21626,820
21634,823
21641,824
21649,825
21657,825
21664,820
21672,817
21680,882
21687,1028
21695,1146
21702,1118
21710,872
21718,741
21739,772
21746,779
21754,786
21762,796
21769,806
21777,814
21785,822
21792,825
21800,829
21807,835
21815,842
21823,846
21830,847
21838,852
21846,856
21853,862
21861,871
21868,879
21876,888
21884,901
21891,913
22022,829
22029,832
22037,831
22047,828
22054,820
22062,814
22070,813
22077,810
22085,811
22093,811
22100,810
22108,811
22115,813
22123,815
22131,816
22138,817
22146,819
22154,818
22161,816
22169,815
22176,815
22184,817
22192,813
22199,811
22207,809
22215,809
22222,809
22244,808
22251,807
22259,802
22266,799
22274,794
22282,791
22289,787
22297,783
22304,780
22434,797
22442,796
22450,793
22457,794
22465,791
22472,785
22480,782
22488,781
22495,789
22503,797
22511,798
22518,800
22526,797
22533,799
22543,795
22551,787
22559,782
22566,776
22574,774
22582,776
22589,779
22597,781
22604,783
22612,785
22620,792
22627,778
22635,808
22643,922
22650,1124
22658,1169
22666,1057
22673,795
22816,840
22824,848
22831,860
22839,873
22847,887
22855,901
22862,914
22870,924
22877,929
22885,929
22893,924
22900,916
22908,905
22915,889
22923,870
22931,850
22938,836
22946,826
22954,821
22961,819
22969,818
22976,818
22984,818
22992,821
22999,823
23007,824
23015,827
23022,827
23032,826
23040,819
23047,815
23055,816
23063,817
23070,821
23200,857
23208,858
23216,855
23223,853
23231,850
23238,850
23246,846
23254,843
23261,840
23269,837
23277,836
23284,833
23292,831
23300,827
23321,823
23328,816
23336,812
23344,805
23352,799
23359,795
23367,790
23374,786
23382,780
23390,776
23397,774
23405,770
23412,759
23420,757
23428,757
23435,766
23443,770
23451,771
23458,774
23466,771
23474,771
23481,772
23611,764
23618,745
23626,749
23634,748
23641,745
23651,748
23659,744
23666,743
23674,746
23682,751
23689,756
23697,760
23705,764
23712,768
23720,772
23727,776
23735,782
23743,787
23751,794
23758,801
23766,811
23773,823
23781,836
23789,848
23796,859
23804,870
23825,878
23832,870
23840,862
23848,850
23855,836
23863,823
23871,812
23878,802
23886,797
23894,797
24023,866
24031,865
24039,866
24046,862
24054,859
24062,854
24069,853
24077,854
24084,851
24092,848
24100,846
24107,845
24115,842
24122,841
24130,840
24140,838
24148,829
24155,822
24163,819
24171,821
24178,821
24186,820
24194,823
24201,823
24209,823
24216,824
24224,825
24232,827
24239,827
24247,827
24255,828
24262,827
24406,835
24413,828
24421,823
24429,820
24436,821
24444,806
24452,828
24459,918
24467,1082
24474,1105
24482,991
24490,753
24497,715
24505,725
24513,733
24520,730
24528,729
24535,733
24543,736
24551,740
24558,743
24566,745
24574,748
24581,750
24589,752
24596,753
24604,756
24612,759
24619,763
24627,768
24637,776
24645,778
24652,782
24660,792
24790,771
24797,773
24805,776
24813,777
24820,782
24828,786
24836,788
24843,791
24851,791
24859,791
24866,791
24874,791
24881,790
24889,793
24910,796
24918,800
24925,804
24933,806
24940,809
24948,813
24956,818
24964,820
24971,823
24979,825
24986,829
24994,833
25002,837
25009,839
25017,841
25025,842
25032,845
25040,848
25048,849
25055,847
25063,846
25193,863
25201,864
25208,865
25216,867
25223,858
25231,881
25239,973
25249,1162
25256,1125
25264,927
25271,735
25279,744
25287,770
25294,787
25302,789
25310,795
25317,802
25325,805
25332,810
25340,814
25348,817
25355,818
25363,820
25371,822
25378,823
25386,826
25394,829
25415,839
25422,843
25430,847
25438,854
25445,861
25453,869
25461,874
25468,874
25476,871
25605,758
25613,759
25621,761
25628,763
25636,764
25644,764
25651,762
25659,764
25667,762
25674,763
25682,763
25690,764
25697,765
25705,765
25712,765
25720,766
25728,767
25738,765
25745,760
25753,756
25760,756
25768,758
25776,762
25783,762
25791,764
25798,762
25806,761
25814,768
25821,778
25829,792
25837,799
25844,801
25988,1170
25995,1095
26003,839
26010,733
26018,765
26026,799
26033,816
26041,821
26048,829
26056,837
26064,842
26072,848
26079,853
26087,858
26094,862
26102,863
26110,866
26117,871
26125,873
26132,876
26140,880
26148,885
26155,891
26163,898
26171,906
26178,915
26186,928
26194,937
26201,943
26209,943
26216,935
26224,926
26234,908
26242,884
26372,843
26379,843
26387,843
26395,843
26402,843
26410,841
26417,837
26425,836
26433,831
26441,828
26448,824
26456,821
26463,821
26471,818
26492,812
26500,803
26507,796
26515,785
26523,780
26530,779
26538,782
26546,789
26553,787
26561,782
26569,781
26576,778
26584,774
26592,770
26599,765
26607,757
26614,754
26622,753
26630,753
26637,754
26645,755
26775,779
26782,784
26790,785
26798,788
26805,790
26813,790
26821,792
26828,795
26836,798
26846,802
26853,799
26861,799
26869,804
26876,811
26884,822
26891,836
26899,848
26907,862
26914,870
26922,873
26930,873
26937,868
26945,858
26953,844
26960,833
26968,816
26975,802
26996,777
27004,775
27012,777
27019,782
27027,788
27035,794
27042,801
27050,808
27058,813
27187,872
27195,870
27203,869
27210,862
27218,853
27225,854
27233,857
27241,862
27248,869
27256,870
27264,870
27271,869
27279,868
27286,865
27294,861
27302,852
27309,845
27317,842
27325,842
27332,839
27342,837
27350,828
27357,822
27365,821
27373,824
27380,816
27388,885
27395,1049
27403,1179
27411,1115
27418,840
27426,708
27570,870
27577,874
27585,876
27593,882
27600,886
27608,889
27615,886
27623,879
27631,871
27638,855
27646,839
27654,823
27661,808
27669,791
27677,773
27684,758
27692,749
27699,739
27707,733
27715,729
27722,729
27730,731
27737,732
27745,737
27753,739
27760,740
27768,740
27776,744
27783,746
27791,748
27799,750
27806,753
27814,753
27821,754
27954,816
27962,818
27969,814
27977,811
27984,810
27992,811
28000,810
28007,811
28015,810
28023,811
28030,812
28038,815
28046,816
28053,825
28074,1141
28082,1065
28089,762
28097,653
28105,722
28112,766
28120,798
28127,814
28135,819
28143,831
28150,839
28158,845
28166,849
28173,854
28181,858
28189,863
28196,868
28204,869
28211,874
28219,879
28227,886
28357,857
28365,845
28372,836
28380,828
28387,820
28395,817
28403,815
28410,816
28418,816
28426,816
28433,816
28441,817
28451,818
28458,811
28466,806
28474,805
28481,804
28489,804
28497,804
28504,803
28512,799
28519,798
28527,800
28535,797
28542,803
28550,811
28558,814
28579,819
28586,811
28594,804
28602,794
28609,785
28617,781
28625,776
28632,771
28640,772
28648,767
28778,768
28785,777
28793,781
28801,783
28808,784
28816,789
28824,788
28831,791
28839,794
28847,799
28854,802
28862,809
28869,814
28877,822
28885,831
28892,841
28900,851
28908,863
28915,871
28923,874
28930,875
28940,864
28948,847
28956,830
28963,818
28971,804
28978,792
28986,777
28994,767
29001,760
29009,753
29017,749
29160,825
29168,831
29175,838
29183,843
29191,848
29198,849
29206,849
29214,849
29221,845
29229,842
29236,839
29244,844
29252,845
29259,846
29267,847
29275,849
29282,851
29290,853
29297,856
29305,851
29313,866
29320,972
29328,1131
29336,1146
29343,1042
29351,739
29359,711
29366,760
29374,785
29381,809
29389,821
29397,828
29404,836
29534,935
29542,942
29552,937
29559,919
29567,899
29574,884
29582,869
29590,853
29597,836
29605,818
29613,805
29620,796
29628,790
29635,783
29643,782
29664,781
29672,781
29680,781
29687,779
29695,779
29703,776
29710,772
29718,770
29725,765
29733,761
29741,758
29748,755
29756,753
29764,752
29771,753
29779,758
29786,762
29794,764
29802,766
29809,770
29817,765
29947,1103
29955,1098
29963,867
29970,661
29978,695
29986,716
29993,738
30001,754
30009,761
30016,772
30024,780
30031,784
30039,786
30049,786
30057,785
30064,784
30072,782
30079,784
30087,791
30095,800
30102,808
30110,817
30118,829
30125,840
30133,852
30141,865
30148,877
30169,887
30177,885
30184,880
30192,875
30200,865
30207,854
30215,840
30223,830
30230,822
30360,868
30368,864
30375,862
30383,861
30390,861
30398,864
30406,867
30413,868
30421,868
30429,866
30436,859
30444,857
30452,852
30459,846
30467,838
30474,834
30482,833
30490,832
30497,830
30505,824
30513,823
30520,826
30528,826
30538,828
30545,801
30553,849
30561,1005
30568,1135
30576,1144
30583,923
30591,697
30735,866
30743,871
30750,874
30758,877
30766,883
30773,886
30781,883
30789,874
30796,864
30804,850
30812,838
30819,820
30827,800
30834,781
30842,761
30850,743
30857,734
30865,727
30873,720
30880,720
30888,719
30896,720
30903,723
30911,728
30918,728
30926,727
30934,728
30941,734
30949,737
30957,740
30964,742
30972,742
30979,745
30987,747
31117,810
31125,809
31132,808
31140,806
31148,807
31158,805
31165,798
31173,791
31181,789
31188,789
31196,794
31203,795
31211,773
31219,834
31240,1146
31247,1003
31255,726
31263,727
31270,747
31278,770
31286,786
31293,797
31301,809
31308,822
31316,828
31324,832
31331,841
31339,847
31347,851
31354,854
31362,860
31370,864
31377,866
31385,872
31392,881
31522,844
31530,838
31538,832
31545,829
31553,825
31561,823
31568,824
31576,826
31583,823
31591,821
31599,819
31606,816
31614,817
31622,817
31629,818
31637,818
31647,817
31654,810
31662,805
31670,801
31677,799
31685,800
31692,799
31700,800
31708,802
31715,805
31723,806
31744,807
31752,804
31760,800
31767,800
31775,796
31782,790
31790,784
31798,781
31805,774
31813,772
31943,789
31951,790
31959,791
31966,790
31974,788
31981,775
31989,839
31997,990
32004,1095
32012,1087
32020,859
32027,691
32035,707
32042,723
32050,743
32058,745
32065,751
32073,757
32081,765
32088,769
32096,772
32103,776
32111,776
32119,778
32126,780
32136,789
32144,787
32152,785
32159,789
32167,799
32174,809
32182,822
32325,805
32333,810
32341,811
32348,818
32356,825
32364,834
32371,838
32379,840
32387,840
32394,843
32402,844
32409,847
32417,849
32425,845
32432,844
32440,847
32447,849
32455,850
32463,846
32470,846
32478,848
32486,848
32493,846
32501,846
32509,847
32516,848
32524,850
32531,850
32539,848
32547,849
32554,847
32562,847
32570,846
32577,849
32707,853
32715,862
32723,863
32730,858
32738,858
32746,856
32756,852
32763,840
32771,832
32778,822
32786,815
32794,809
32801,810
32809,812
32830,812
32838,810
32845,807
32853,809
32861,786
32868,813
32876,927
32884,1064
32891,1099
32899,981
32906,709
32914,692
32922,707
32929,721
32937,733
32945,736
32952,740
32960,746
32968,751
32975,750
32983,753
33113,880
33120,876
33128,868
33135,855
33143,839
33151,822
33158,801
33166,786
33174,771
33181,761
33189,754
33197,752
33204,752
33212,755
33219,759
33227,761
33235,761
33245,765
33252,759
33260,752
33267,753
33275,756
33283,760
33290,763
33298,767
33305,772
33313,774
33334,785
33342,790
33350,799
33357,803
33365,810
33372,816
33380,820
33388,825
33395,829
33525,880
33533,880
33540,878
33548,879
33556,874
33563,870
33571,864
33579,857
33586,856
33594,857
33601,859
33609,861
33617,862
33624,861
33632,860
33640,858
33647,858
33655,854
33662,849
33670,843
33678,837
33685,836
33693,836
33700,834
33708,831
33716,831
33723,831
33731,831
33741,816
33749,831
33756,920
33764,1064
33772,1119
33915,850
33922,849
33930,848
33938,847
33945,847
33953,854
33961,860
33968,865
33976,869
33984,870
33991,867
33999,862
34006,851
34014,839
34022,822
34029,801
34037,779
34045,758
34052,741
34060,727
34068,719
34075,713
34083,711
34090,710
34098,713
34106,714
34113,717
34121,719
34128,720
34136,721
34144,724
34151,729
34159,731
34167,734
34297,796
34304,797
34312,799
34320,799
34327,795
34335,796
34343,795
34353,797
34360,789
34368,784
34376,784
34383,783
34391,785
34398,789
34419,798
34427,803
34435,809
34442,816
34450,823
34458,828
34465,830
34473,829
34481,836
34488,843
34496,852
34503,862
34511,864
34519,867
34526,867
34534,871
34542,871
34549,869
34557,866
34564,864
34572,860
34580,860
34709,834
34717,837
34725,842
34732,842
34740,841
34747,843
34755,844
34763,844
34770,842
34778,839
34786,839
34793,839
34801,839
34808,843
34816,846
34824,848
34831,853
34839,861
34849,871
34857,874
34864,880
34872,887
34880,889
34887,888
34895,885
34902,876
34924,831
34931,809
34939,788
34947,771
34954,759
34962,753
34970,747
34977,745
34985,744
34992,743
35123,779
35131,780
35138,779
35146,778
35153,777
35161,776
35169,778
35176,778
35184,777
35192,777
35199,777
35207,777
35215,777
35222,778
35230,778
35237,778
35245,778
35253,779
35260,780
35268,782
35276,781
35283,784
35291,784
35298,786
35306,789
35314,790
35321,792
35329,792
35339,792
35347,785
35354,783
35362,782
35369,783
35512,848
35520,854
35528,859
35535,854
35543,900
35550,1050
35558,1235
35566,1220
35573,1024
35581,834
35589,812
35596,817
35604,821
35612,818
35619,824
35627,830
35634,835
35642,837
35650,839
35657,839
35665,842
35673,846
35680,848
35688,850
35695,851
35703,854
35711,856
35718,860
35726,866
35734,870
35741,878
35749,887
35757,898
35887,812
35895,813
35902,814
35910,813
35918,813
35925,811
35933,811
35940,809
35950,807
35958,797
35966,793
35973,794
35981,794
35989,794
35996,797
36017,799
36025,796
36033,792
36040,787
36048,783
36056,780
36063,775
36071,771
36079,769
36086,765
36094,765
36102,764
36109,763
36117,761
36124,760
36132,759
36140,759
36147,759
36155,759
36163,758
36170,759
36301,814
36308,813
36316,810
36324,805
36331,797
36339,792
36346,791
36354,792
36362,790
36369,792
36377,793
36385,798
36392,791
36400,833
36407,955
36415,1135
36423,1125
36430,955
36438,756
36448,744
36456,750
36463,747
36471,745
36478,752
36486,759
36494,765
36501,770
36522,785
36530,794
36538,804
36545,812
36553,820
36561,826
36568,836
36576,845
36583,853
36713,841
36721,837
36728,831
36736,830
36744,827
36751,827
36759,826
36767,827
36774,826
36782,826
36789,827
36797,827
36805,827
36812,824
36820,823
36828,824
36835,823
36843,823
36851,822
36858,823
36866,825
36873,824
36881,821
36889,821
36896,819
36904,818
36912,817
36919,818
36927,814
36937,811
36945,804
36952,799
37096,842
37103,843
37111,838
37118,835
37126,828
37134,824
37141,817
37149,807
37157,798
37164,787
37172,779
37180,775
37187,772
37195,769
37203,768
37210,768
37218,771
37225,762
37233,787
37241,874
37248,1035
37256,1080
37264,967
37271,718
37279,687
37286,707
37294,726
37302,726
37309,726
37317,732
37325,734
37332,738
37340,744
37470,894
37478,896
37486,892
37493,883
37501,871
37508,856
37516,836
37524,816
37531,799
37539,784
37546,771
37556,764
37564,754
37572,749
37579,747
37600,757
37608,763
37616,774
37623,782
37631,789
37638,798
37646,805
37654,812
37662,818
37669,823
37677,828
37684,833
37692,836
37700,841
37707,841
37715,843
37722,845
37730,846
37738,847
37745,845
37753,846
37883,884
37890,884
37898,885
37906,881
37913,878
37921,874
37929,867
37936,860
37944,853
37951,849
37959,846
37967,844
37974,842
37982,840
37990,840
37997,845
38005,841
38013,852
38020,930
38028,1084
38035,1166
38045,994
38053,736
38061,723
38068,753
38076,777
38084,782
38105,795
38112,798
38120,797
38128,794
38135,794
38143,796
38151,796
38158,797
38166,793
38296,829
38304,810
38312,791
38319,775
38327,763
38334,755
38342,750
38350,747
38357,746
38365,745
38373,747
38380,749
38388,751
38396,754
38403,757
38411,759
38418,762
38426,763
38434,765
38441,767
38449,770
38457,773
38464,771
38472,773
38480,773
38487,775
38495,776
38502,777
38510,778
38518,779
38525,780
38533,782
38543,781
38686,838
38693,840
38701,846
38709,851
38716,858
38724,847
38731,919
38739,1078
38747,1175
38754,1129
38762,857
38770,698
38777,758
38785,798
38793,827
38800,842
38808,846
38816,854
38823,859
38831,862
38838,864
38846,864
38854,867
38861,868
38869,870
38877,871
38884,875
38892,878
38899,880
38907,884
38915,890
38922,899
38930,908
39061,816
39068,815
39076,813
39083,811
39091,810
39099,809
39106,812
39114,812
39122,813
39129,813
39137,815
39144,813
39154,811
39162,801
39170,794
39191,789
39198,781
39206,774
39214,769
39221,767
39229,765
39237,768
39244,772
39252,774
39260,773
39267,775
39275,771
39283,766
39290,765
39298,760
39305,754
39313,750
39321,752
39328,753
39336,754
39344,752
39474,780
39482,791
39489,793
39497,795
39505,796
39512,797
39520,798
39527,802
39535,805
39543,809
39550,812
39558,819
39566,825
39573,830
39581,838
39589,848
39596,858
39604,870
39611,881
39619,888
39627,887
39634,884
39644,871
39652,852
39660,832
39667,815
39675,798
39696,764
39703,762
39711,763
39719,768
39726,773
39734,778
39741,784
39749,792
39757,802
39887,866
39894,868
39902,871
39909,870
39917,866
39925,860
39932,854
39940,846
39948,841
39955,836
39963,837
39971,838
39978,836
39986,834
39993,833
40001,831
40009,836
40016,835
40024,827
40031,903
40039,1067
40047,1150
40054,1103
40062,809
40070,683
40077,727
40085,753
40092,777
40100,790
40108,796
40115,804
40259,921
40266,917
40276,898
40284,874
40291,850
40299,830
40307,809
40314,786
40322,767
40330,752
40337,739
40345,728
40352,726
40360,721
40368,719
40375,719
40383,720
40391,722
40398,726
40406,728
40413,730
40421,731
40429,735
40436,737
40444,738
40452,740
40459,740
40467,738
40475,736
40482,735
40490,740
40497,741
40505,748
40513,753
40643,812
40650,801
40658,817
40666,924
40673,1089
40681,1161
40689,1052
40696,747
40704,710
40711,730
40719,750
40727,764
40734,768
40742,775
40765,782
40773,787
40780,796
40788,804
40796,809
40803,819
40811,829
40819,836
40826,849
40834,860
40841,868
40849,880
40857,896
40865,910
40872,922
40880,932
40887,939
40895,940
40903,939
40910,933
40918,926
40925,913
41055,859
41063,860
41071,857
41078,855
41086,853
41093,850
41101,848
41109,840
41116,833
41124,831
41132,828
41139,833
41147,836
41155,838
41162,838
41170,842
41177,843
41185,838
41193,832
41200,827
41208,823
41215,818
41223,816
41231,815
41241,815
41248,807
41269,802
41277,801
41285,801
41292,778
41300,831
41308,986
41315,1113
41323,1112
41330,870
41460,808
41468,815
41476,822
41483,826
41491,834
41499,842
41506,854
41514,860
41522,867
41529,869
41537,869
41544,864
41552,854
41560,842
41567,828
41575,812
41583,795
41590,780
41598,764
41605,755
41613,749
41621,748
41628,748
41636,749
41644,748
41651,752
41659,754
41667,755
41674,757
41682,761
41689,766
41697,766
41840,825
41848,819
41856,818
41863,821
41873,827
41881,824
41889,821
41896,820
41904,826
41912,831
41919,838
41927,842
41934,823
41942,880
41950,1039
41957,1175
41965,1179
41973,957
41980,741
41988,762
41996,779
42003,799
42011,811
42018,818
42026,826
42034,834
42041,838
42049,840
42057,844
42064,844
42072,843
42079,844
42087,846
42095,850
42225,858
42232,842
42240,826
42247,815
42255,806
42263,803
42270,800
42278,795
42286,795
42293,793
42301,795
42308,796
42316,796
42324,796
42345,795
42353,793
42363,787
42370,775
42378,765
42386,761
42393,757
42401,755
42408,754
42416,753
42424,753
42431,749
42439,747
42446,748
42454,749
42462,747
42470,748
42477,747
42485,741
42492,741
42500,746
42508,754
42638,795
42646,801
42653,782
42661,828
42669,973
42676,1138
42684,1132
42692,941
42699,722
42707,714
42715,729
42722,746
42730,751
42737,758
42745,767
42753,773
42760,776
42768,779
42776,782
42783,784
42791,786
42798,790
42806,794
42814,797
42821,801
42829,806
42852,818
42860,829
42867,845
42875,863
42883,880
42890,892
42898,900
42906,903
42913,899
43043,859
43051,863
43059,863
43066,863
43074,862
43082,861
43089,859
43097,854
43104,852
43112,849
43120,847
43127,843
43135,842
43143,839
43150,836
43158,833
43166,833
43173,832
43181,830
43188,829
43196,829
43204,828
43211,827
43219,825
43227,824
43234,823
43242,824
43250,822
43257,820
43265,817
43272,812
43280,810
43424,832
43431,832
43439,815
43446,822
43454,899
43462,1091
43472,1159
43479,1007
43487,754
43495,710
43502,715
43510,718
43517,715
43525,720
43533,727
43540,731
43548,733
43556,736
43563,740
43571,742
43579,743
43586,745
43594,747
43601,750
43609,755
43617,761
43624,766
43632,773
43639,782
43647,793
43655,805
43662,817
43670,828
43678,837
43808,782
43815,787
43823,789
43831,790
43838,790
43846,789
43853,788
43861,789
43869,789
43876,790
43884,791
43892,791
43899,791
43907,792
43928,795
43936,799
43943,805
43951,810
43961,816
43969,812
43976,813
43984,818
43991,823
43999,829
44007,833
44014,837
44022,840
44029,844
44037,847
44045,851
44052,853
44060,856
44068,859
44075,860
44083,860
44091,857
44220,872
44228,871
44235,868
44243,868
44251,874
44258,858
44266,886
44274,995
44281,1183
44289,1197
44297,1058
44304,814
44312,780
44319,793
44327,800
44335,796
44342,797
44350,801
44358,803
44365,807
44373,811
44381,814
44388,816
44396,817
44403,819
44411,819
44432,823
44440,823
44447,824
44458,827
44465,822
44473,823
44480,828
44488,837
44496,843
44625,755
44633,758
44641,762
44648,761
44656,765
44664,765
44671,767
44679,766
44687,766
44694,766
44702,768
44709,769
44717,771
44725,771
44732,769
44740,769
44748,769
44755,768
44763,769
44771,769
44778,768
44786,769
44793,769
44801,771
44809,774
44816,773
44824,774
44832,776
44839,778
44847,780
44855,781
44862,782
45005,845
45013,843
45021,840
45028,835
45036,836
45044,839
45051,841
45059,843
45069,850
45077,844
45084,847
45092,837
45099,871
45107,984
45115,1153
45122,1173
45130,1031
45138,797
45145,783
45153,805
45161,819
45168,820
45176,823
45183,829
45191,834
45199,838
45206,840
45214,841
45221,843
45229,845
45237,848
45244,849
45252,853
45260,856
45390,862
45397,844
45405,828
45413,816
45420,806
45428,800
45435,798
45443,799
45451,796
45458,797
45466,800
45474,801
45481,801
45489,801
45510,799
45518,796
45525,793
45533,789
45540,786
45548,781
45558,775
45566,763
45573,754
45581,749
45589,748
45596,748
45604,748
45612,748
45619,748
45627,749
45634,749
45642,751
45650,752
45657,753
45665,755
45673,756
45802,812
45810,814
45817,813
45825,812
45833,807
45840,803
45848,796
45855,795
45863,796
45871,793
45878,792
45886,793
45894,796
45901,799
45909,797
45917,857
45924,997
45932,1120
45939,1067
45947,826
45955,701
45962,726
45970,753
45978,766
45985,767
45993,774
46014,790
46022,797
46029,807
46037,814
46044,822
46055,831
46062,830
46070,832
46077,840
46207,887
46215,870
46223,855
46230,844
46238,839
46245,834
46253,832
46261,831
46269,829
46276,830
46284,831
46291,831
46299,833
46307,833
46314,830
46322,831
46329,831
46337,832
46345,832
46352,831
46360,829
46368,827
46375,825
46383,822
46391,821
46398,820
46406,817
46413,816
46421,815
46429,815
46436,815
46444,814
46588,831
46595,825
46603,816
46611,808
46618,803
46626,795
46633,790
46641,787
46649,787
46656,772
46666,854
46674,995
46682,1076
46689,982
46697,709
46704,644
46712,680
46720,711
46727,724
46735,726
46742,734
46750,741
46758,747
46766,752
46773,755
46781,758
46788,763
46796,765
46804,770
46811,774
46819,777
46826,784
46834,789
46842,797
46972,786
46979,782
46987,779
46995,777
47002,776
47010,773
47017,773
47025,774
47033,776
47040,782
47048,781
47056,782
47063,785
47071,789
47092,794
47100,799
47107,804
47115,808
47122,814
47130,818
47138,824
47145,828
47153,831
47163,833
47171,828
47178,825
47186,826
47193,830
47201,832
47209,834
47216,829
47224,831
47232,838
47239,849
47247,858
47255,863
47384,879
47392,962
47400,1118
47407,1201
47415,1094
47422,810
47430,749
47438,784
47445,813
47453,820
47461,817
47468,821
47476,824
47484,824
47491,826
47499,830
47506,829
47514,829
47522,830
47529,831
47537,832
47545,832
47552,836
47560,841
47567,844
47575,849
47596,871
47604,877
47611,881
47619,881
47627,875
47634,865
47642,851
47652,832
47660,807
47790,770
47797,774
47805,775
47812,775
47820,775
47828,775
47835,777
47843,778
47850,778
47858,778
47866,775
47873,767
47881,764
47889,766
47896,770
47904,777
47912,785
47919,790
47927,796
47934,797
47942,796
47950,795
47957,795
47965,790
47973,789
47980,790
47988,790
47995,791
48003,792
48011,794
48018,796
48026,797
48170,837
48177,842
48185,846
48193,852
48200,859
48208,867
48216,874
48223,881
48231,890
48238,899
48246,911
48254,922
48261,931
48271,941
48279,936
48287,928
48294,921
48302,915
48309,905
48317,892
48325,878
48332,864
48340,852
48347,841
48355,832
48363,826
48370,824
48378,823
48386,822
48393,822
48401,824
48409,825
48416,828
48424,831
48554,861
48562,864
48569,863
48577,857
48584,849
48592,844
48600,835
48607,830
48615,828
48623,827
48630,826
48638,823
48645,821
48653,820
48674,822
48682,812
48690,895
48697,1057
48705,1107
48713,1022
48720,712
48728,615
48735,677
48743,711
48751,734
48761,744
48768,740
48776,742
48784,744
48791,749
48799,751
48806,755
48814,759
48822,765
48829,770
48837,774
48968,823
48975,809
48983,794
48990,783
48998,772
49006,763
49013,756
49021,755
49028,754
49036,755
49044,758
49051,760
49059,764
49067,767
49074,770
49082,773
49090,773
49097,774
49105,776
49112,775
49120,774
49128,774
49135,774
49143,774
49151,779
49158,783
49179,800
49187,806
49195,809
49202,810
49210,809
49217,807
49225,810
49233,812
49240,818
49250,825
49380,852
49388,862
49395,870
49403,875
49410,876
49418,874
49426,876
49433,876
49441,877
49449,878
49456,881
49464,885
49472,886
49479,887
49487,892
49494,896
49502,900
49510,908
49517,918
49525,926
49532,929
49540,929
49548,922
49555,912
49563,901
49571,890
49578,874
49586,858
49594,843
49601,824
49609,808
49616,797
49760,806
49768,805
49776,806
49783,802
49791,799
49799,794
49806,784
49814,778
49821,772
49829,763
49837,754
49844,750
49852,750
49860,747
49870,744
49877,738
49885,734
49892,736
49900,736
49908,745
49915,733
49923,784
49930,925
49938,1038
49946,1027
49953,827
49961,603
49969,647
49976,684
49984,709
49991,730
49999,735
50007,747
50014,756
50144,901
50152,907
50160,905
50167,898
50175,889
50183,877
50190,863
50198,845
50205,828
50213,811
50221,795
50228,784
50236,777
50244,773
50265,770
50272,777
50280,781
50288,791
50295,801
50303,808
50311,814
50318,816
50326,822
50333,826
50341,827
50349,827
50359,831
50366,826
50374,821
50381,826
50389,835
50397,844
50404,847
50412,851
50420,855
50427,852
50557,1188
50565,1150
50572,847
50580,741
50588,778
50595,795
50603,807
50610,818
50618,818
50626,825
50633,829
50641,833
50648,834
50656,835
50664,832
50671,834
50679,836
50687,837
50694,840
50702,842
50710,844
50717,851
50725,857
50732,865
50740,875
50748,888
50769,902
50777,894
50784,884
50792,869
50799,851
50807,832
50815,812
50822,795
50830,774
50960,766
50968,766
50978,767
50985,754
50993,745
51001,745
51008,745
51016,751
51024,760
51031,766
51039,769
51046,771
51054,769
51062,768
51069,768
51077,769
51085,769
51092,766
51100,766
51107,772
51115,772
51123,772
51130,773
51138,778
51146,780
51153,785
51161,765
51169,802
51176,941
51184,1091
51191,1128
51199,963
51342,855
51350,864
51357,876
51365,886
51373,902
51381,916
51388,927
51396,932
51403,935
51411,930
51419,924
51426,917
51434,904
51441,888
51449,870
51457,856
51467,838
51474,821
51482,810
51490,806
51497,804
51505,808
51512,814
51520,818
51528,823
51535,826
51543,829
51551,832
51558,833
51566,832
51574,834
51581,834
51589,836
51596,836
51726,864
51734,865
51742,865
51749,861
51757,857
51765,850
51772,845
51780,838
51787,833
51795,833
51803,829
51810,828
51818,824
51825,826
51847,827
51854,810
51862,815
51870,911
51877,1059
51885,1121
51893,1039
51900,748
51908,693
51915,708
51923,726
51931,736
51938,740
51946,742
51956,750
51964,750
51971,746
51979,746
51986,750
51994,753
52002,754
52009,757
52139,842
52146,824
52154,809
52162,791
52169,778
52177,771
52185,765
52192,763
52200,761
52208,764
52215,763
52223,763
52230,766
52238,768
52246,770
52253,772
52261,771
52269,772
52276,775
52284,775
52291,778
52299,779
52307,779
52314,780
52322,780
52329,779
52350,784
52358,788
52366,793
52373,803
52381,807
52389,812
52396,817
52404,822
52412,828
52542,879
52550,877
52557,876
52565,872
52575,870
52582,855
52590,846
52598,846
52605,847
52613,855
52620,857
52628,858
52636,858
52643,854
52651,853
52659,855
52666,849
52674,844
52682,839
52689,837
52697,838
52704,834
52712,831
52720,832
52727,833
52735,834
52742,826
52750,826
52758,908
52765,1057
52773,1145
52781,1098
52924,845
52932,844
52940,846
52947,846
52955,851
52962,853
52970,855
52978,859
52986,861
52993,857
53001,851
53008,842
53016,830
53024,817
53031,801
53039,784
53046,765
53054,748
53064,733
53072,717
53079,708
53087,705
53095,707
53102,710
53110,713
53117,716
53125,719
53133,723
53140,726
53148,732
53156,740
53163,743
53171,746
53179,746
53309,801
53316,803
53324,804
53331,804
53339,803
53347,803
53354,803
53362,802
53370,801
53377,802
53385,801
53392,802
53400,801
53408,802
53429,806
53436,808
53444,814
53451,819
53459,823
53467,828
53474,834
53482,837
53490,840
53497,842
53505,841
53513,842
53520,850
53528,855
53535,864
53543,866
53551,869
53561,871
53568,864
53576,861
53584,858
53591,858
53721,816
53729,824
53736,833
53744,831
53751,833
53759,837
53767,839
53775,841
53782,841
53790,843
53797,841
53805,840
53813,839
53820,839
53828,839
53835,840
53843,845
53851,846
53858,849
53866,855
53874,861
53881,870
53889,880
53896,891
53904,899
53912,901
53933,881
53941,868
53948,849
53956,824
53964,801
53971,780
53979,762
53987,748
53994,739
54002,734
54131,768
54139,772
54147,772
54154,774
54162,772
54172,769
54180,761
54187,757
54195,754
54202,757
54210,758
54218,760
54225,762
54233,764
54240,767
54248,769
54256,772
54263,774
54271,778
54279,780
54286,782
54294,784
54301,787
54309,790
54317,790
54324,793
54332,795
54340,797
54347,799
54355,800
54363,801
54370,801
54513,838
54521,836
54529,840
54536,844
54544,847
54552,851
54559,857
54567,861
54575,859
54582,912
54590,1068
54598,1235
54605,1210
54613,987
54620,820
54628,811
54636,819
54643,820
54651,819
54661,826
54669,820
54676,818
54684,820
54691,825
54699,828
54707,833
54714,837
54722,838
54730,842
54737,846
54745,850
54753,855
54760,863
54768,868
54898,816
54905,811
54913,807
54921,805
54928,807
54936,805
54943,803
54951,803
54959,804
54966,802
54974,801
54982,799
54989,800
54997,799
55018,796
55026,795
55033,792
55041,787
55049,784
55056,782
55064,778
55072,773
55079,768
55087,763
55095,762
55102,760
55110,757
55117,757
55125,757
55133,757
55140,757
55148,758
55158,759
55165,750
55173,743
55181,741
55311,808
55319,805
55326,802
55334,806
55342,815
55349,820
55357,822
55365,822
55372,822
55380,821
55388,820
55395,817
55403,812
55410,808
55418,802
55426,800
55433,799
55441,800
55448,801
55456,802
55464,809
55471,799
55479,826
55487,923
55494,1112
55502,1150
55523,748
55530,758
55538,773
55546,779
55553,785
55561,794
55569,802
55576,811
55584,819
55714,955
55722,958
55730,954
55737,948
55745,934
55752,916
55760,895
55770,866
55778,838
55785,816
55793,803
55801,793
55808,788
55816,787
55823,787
55831,788
55839,792
55846,796
55854,798
55862,799
55869,800
55877,801
55885,803
55892,804
55900,803
55907,805
55915,807
55923,808
55930,809
55938,808
55945,807
55953,809
56097,829
56104,825
56112,819
56120,813
56127,807
56135,801
56142,795
56150,788
56158,785
56165,782
56173,778
56181,771
56188,761
56196,761
56204,763
56211,770
56219,775
56226,776
56234,776
56242,773
56249,774
56257,772
56267,769
56275,759
56282,747
56290,745
56297,748
56305,749
56313,751
56320,755
56328,762
56336,761
56343,780
56351,847
56481,807
56488,811
56496,814
56504,816
56511,821
56519,824
56527,828
56534,833
56542,842
56549,852
56557,863
56565,876
56573,887
56580,891
56601,887
56609,880
56616,871
56624,859
56632,843
56639,830
56647,819
56654,810
56662,802
56670,799
56677,800
56685,801
56693,804
56700,809
56708,813
56716,817
56723,822
56731,826
56738,831
56746,833
56756,834
56764,829
56893,863
56901,862
56909,860
56916,858
56924,858
56931,857
56939,854
56947,853
56954,850
56962,850
56970,850
56977,848
56985,845
56993,839
57000,832
57008,831
57015,834
57023,842
57031,843
57038,844
57046,845
57054,843
57061,842
57069,838
57077,832
57084,828
57105,814
57113,810
57121,805
57128,802
57136,800
57143,800
57151,788
57159,835
57167,956
57174,1090
57304,791
57311,798
57319,798
57327,800
57334,805
57342,808
57350,815
57357,823
57365,832
57375,846
57382,848
57390,851
57398,852
57405,850
57413,846
57421,837
57428,826
57436,812
57443,794
57451,778
57459,763
57466,754
57474,747
57482,744
57489,743
57497,743
57505,745
57512,747
57520,752
57527,756
57535,759
57543,761
57686,823
57694,825
57701,828
57709,834
57716,837
57724,840
57732,838
57739,835
57747,836
57754,843
57762,851
57770,860
57777,867
57785,869
57793,872
57800,874
57808,874
57816,872
57823,869
57831,864
57838,861
57846,861
57854,858
57864,857
57871,849
57879,848
57887,850
57894,843
57902,861
57909,954
57917,1112
57925,1177
57932,1051
58062,876
58069,880
58077,884
58085,887
58092,891
58100,896
58108,902
58115,910
58123,916
58130,922
58138,925
58146,926
58153,918
58161,906
58169,893
58190,841
58198,820
58205,800
58213,784
58220,772
58228,762
58236,754
58243,748
58251,744
58258,744
58266,743
58274,740
58282,740
58289,740
58297,740
58304,741
58312,744
58320,745
58327,743
58335,742
58342,743
58472,802
58482,803
58490,791
58497,783
58505,776
58513,773
58520,775
58528,779
58536,781
58543,783
58551,784
58558,789
58566,793
58574,800
58581,793
58589,879
58597,1051
58604,1123
58612,1047
58619,737
58627,625
58635,696
58642,737
58650,768
58658,784
58665,789
58673,797
58694,816
58702,821
58709,828
58717,837
58724,847
58732,855
58740,863
58747,869
58877,897
58885,881
58893,864
58900,850
58908,840
58916,836
58923,831
58931,826
58938,824
58946,827
58954,828
58961,830
58971,827
58979,822
58986,816
58994,817
59002,818
59009,818
59017,819
59025,818
59032,817
59040,813
59047,813
59055,816
59063,814
59070,818
59078,826
59086,830
59093,833
59101,835
59108,832
59116,827
59124,823
59267,696
59275,737
59282,756
59290,774
59298,778
59305,778
59313,783
59321,781
59328,779
59336,777
59343,779
59351,780
59359,780
59366,779
59374,778
59382,780
59389,785
59397,793
59405,799
59412,806
59420,815
59427,825
59435,837
59443,850
59450,855
59458,853
59468,847
59476,829
59483,814
59491,801
59498,787
59506,770
59514,753
59521,740
59651,792
59659,794
59666,797
59674,797
59682,802
59689,806
59697,810
59705,810
59712,809
59720,804
59728,801
59735,800
59743,795
59750,788
59771,789
59779,794
59787,800
59794,804
59802,807
59810,815
59817,822
59825,826
59833,836
59840,931
59848,1094
59855,1132
59863,1064
59871,764
59878,703
59886,756
59894,781
59901,808
59909,822
59917,830
59924,841
8,783
16,764
23,771
31,791
39,810
46,829
54,841
62,851
69,852
77,853
84,849
92,844
100,843
112,824
119,790
127,750
135,716
142,681
150,651
157,621
165,603
173,586
180,574
188,563
196,555
325,609
333,615
341,614
348,617
356,631
364,666
371,711
379,755
387,793
394,836
402,881
410,889
417,931
425,1085
446,1322
454,1019
461,956
469,980
477,996
485,998
492,1003
500,1014
507,1021
515,1028
523,1030
530,1030
538,1029
546,1033
553,1036
561,1040
569,1040
576,1039
584,1045
591,1048
599,1053
607,1059
614,1066
622,1067
630,1068
637,1064
645,1052
652,1039
660,1023
670,1000
678,976
685,955
693,937
701,925
708,917
716,911
724,907
731,904
739,902
746,903
754,902
762,901
769,900
777,901
785,903
792,899
800,899
808,895
815,891
823,879
966,842
973,844
981,848
989,818
996,868
1004,1039
1012,1230
1019,1205
1027,942
1035,751
1042,769
1050,799
1058,803
1065,801
1073,808
1081,810
1088,812
1096,815
1103,818
1111,818
1119,821
1126,822
1134,825
1142,828
1149,831
1157,835
1165,842
1172,845
1180,852
1187,863
1195,872
1203,878
1213,874
1220,858
1228,842
1236,829
1243,819
1251,812
1258,797
1266,786
1274,776
1281,769
1289,760
1297,756
1304,754
1312,754
1320,758
1327,763
1471,806
1479,795
1486,784
1494,771
1501,765
1509,761
1517,756
1524,752
1532,750
1540,745
1547,746
1555,733
1563,710
1570,799
1578,991
1586,1121
1593,1028
1601,708
1608,631
1616,668
1624,691
1631,695
1639,694
1647,702
1654,708
1662,716
1670,724
1677,727
1685,732
1692,734
1700,739
1708,742
1715,752
1723,759
1731,772
1741,784
1748,787
1756,792
1763,799
1771,809
1779,817
1786,817
1794,815
1802,809
1809,802
1817,796
1947,805
1954,807
1975,805
1983,812
1991,819
1998,829
2006,834
2014,839
2021,841
2029,840
2037,838
2044,836
2052,833
2059,827
2067,830
2075,832
2082,832
2090,832
2098,836
2105,835
2113,842
2121,815
2128,840
2136,973
2144,1138
2151,1169
2159,983
2167,719
2174,738
2182,775
2189,797
2197,803
2205,808
2212,816
2220,823
2228,826
2235,830
2243,831
2250,835
2258,836
2268,841
2276,838
2283,838
2291,842
2299,851
2306,860
2314,874
2321,883
2451,815
2459,815
2480,817
2488,815
2495,811
2503,806
2511,802
2519,796
2526,786
2534,785
2541,782
2549,781
2557,781
2564,783
2572,779
2580,778
2587,774
2595,766
2603,763
2610,756
2618,751
2625,746
2633,744
2641,745
2648,746
2656,746
2664,746
2671,749
2679,750
2686,726
2694,791
2702,965
2709,1107
2717,1078
2725,803
2732,677
2740,698
2748,724
2755,729
2763,735
2770,744
2778,751
2786,760
2796,764
2803,761
2811,766
2819,769
2826,772
2956,836
2964,824
2985,801
2992,801
3000,803
3008,802
3015,810
3023,813
3031,821
3038,828
3046,835
3054,839
3061,841
3069,845
3076,842
3084,842
3092,839
3099,846
3107,845
3115,852
3122,859
3130,865
3138,868
3145,870
3153,866
3160,861
3168,857
3176,853
3183,847
3191,841
3199,840
3206,837
3214,840
3222,842
3229,843
3237,845
3244,842
3252,813
3260,881
3267,1069
3275,1229
3283,1179
3290,886
3298,758
3305,777
3313,793
3323,792
3331,789
3460,905
3468,913
3489,886
3497,870
3505,855
3512,838
3520,818
3527,795
3535,783
3543,771
3550,760
3558,752
3566,748
3573,741
3581,743
3589,743
3596,744
3604,746
3612,743
3619,746
3627,747
3634,747
3642,748
3650,749
3657,742
3665,745
3673,743
3680,748
3688,756
3696,761
3703,766
3711,768
3718,771
3726,767
3734,765
3741,759
3749,758
3757,753
3764,753
3772,754
3780,755
3787,761
3795,765
3802,769
3810,771
3818,743
3825,802
3833,985
3963,830
3973,838
3994,843
4002,857
4009,867
4017,885
4025,894
4032,903
4040,908
4047,908
4055,902
4063,892
4070,884
4078,875
4086,864
4093,851
4101,843
4109,833
4116,830
4124,821
4132,820
4139,819
4147,822
4154,823
4162,828
4170,835
4177,835
4185,841
4193,840
4200,842
4208,841
4216,840
4223,833
4231,833
4238,838
4246,838
4254,843
4261,849
4269,856
4277,858
4284,859
4292,854
4300,853
4307,849
4315,845
4322,839
4330,836
4338,837
4468,823
4475,829
4497,834
4504,830
4514,822
4522,809
4530,799
4537,799
4545,801
4552,806
4560,809
4568,815
4575,821
4583,828
4591,834
4598,842
4606,843
4614,838
4621,830
4629,816
4636,806
4644,794
4652,788
4659,771
4667,762
4675,751
4682,745
4690,740
4697,737
4705,731
4713,731
4720,739
4728,742
4736,747
4743,754
4751,760
4759,761
4766,766
4774,765
4781,766
4789,770
4797,772
4804,776
4812,784
4820,790
4827,792
4835,797
4843,802
4850,800
4980,976
5001,746
5008,771
5016,786
5024,795
5031,809
5041,823
5049,820
5057,821
5064,828
5072,835
5079,840
5087,848
5095,854
5102,862
5110,870
5118,881
5125,891
5133,902
5141,912
5148,923
5156,929
5164,928
5171,922
5179,911
5186,899
5194,887
5202,875
5209,858
5217,845
5225,835
5232,826
5240,819
5248,812
5255,810
5263,808
5270,807
5278,806
5286,809
5293,812
5301,816
5309,820
5316,823
5324,822
5331,825
5339,823
5347,821
5354,825
5485,833
5506,804
5514,886
5521,1061
5529,1168
5537,1092
5544,783
5552,694
5560,713
5570,731
5577,715
5585,715
5593,721
5600,728
5608,731
5615,735
5623,741
5631,746
5638,747
5646,752
5654,759
5661,765
5669,771
5677,777
5684,789
5692,797
5699,807
5707,818
5715,827
5722,831
5730,828
5738,820
5745,813
5753,805
5760,793
5768,783
5776,771
5783,761
5791,751
5799,745
5806,741
5814,742
5822,744
5829,744
5837,747
5844,753
5852,762
5982,833
5990,829
6011,817
6018,818
6026,819
6034,826
6041,830
6049,837
6057,844
6064,848
6072,827
6079,889
6087,1063
6097,1256
6105,1158
6112,847
6120,765
6128,786
6135,808
6143,811
6151,816
6158,823
6166,834
6173,841
6181,847
6189,851
6196,854
6204,859
6212,860
6219,863
6227,866
6235,871
6242,875
6250,879
6257,886
6265,895
6273,905
6280,914
6288,916
6296,912
6303,905
6311,892
6319,882
6326,871
6334,859
6341,844
6349,831
6357,817
6487,836
6494,835
6515,842
6523,840
6531,837
6538,831
6546,821
6554,807
6561,798
6569,789
6577,773
6584,770
6592,767
6599,765
6607,767
6615,767
6625,762
6632,756
6640,718
6648,769
6655,943
6663,1135
6670,1118
6678,880
6686,668
6693,685
6701,710
6709,718
6716,718
6724,724
6732,734
6739,743
6747,747
6754,754
6762,757
6770,762
6777,766
6785,770
6793,771
6800,777
6808,783
6815,794
6823,805
6831,817
6838,831
6846,841
6854,851
6861,854
6991,807
6999,811
7020,820
7027,822
7035,825
7043,827
7050,827
7058,829
7066,836
7073,839
7081,848
7089,856
7096,861
7104,865
7112,865
7119,863
7127,859
7135,859
7142,854
7152,844
7160,832
7167,831
7175,831
7183,833
7190,837
7198,841
7206,842
7213,812
7221,880
7228,1068
7236,1238
7244,1194
7251,897
7259,731
7267,766
7274,799
7282,812
7290,809
7297,816
7305,822
7313,827
7320,829
7328,832
7335,837
7343,837
7351,840
7358,843
7366,846
7496,835
7503,828
7524,799
7532,792
7540,783
7547,778
7555,773
7563,772
7570,772
7578,768
7586,767
7593,761
7601,758
7609,751
7616,745
7624,746
7632,749
7639,751
7647,755
7654,762
7662,763
7670,766
7680,764
7687,752
7695,745
7703,743
7710,738
7718,738
7725,740
7733,743
7741,747
7748,752
7756,754
7764,757
7771,744
7779,742
7787,855
7794,1046
7802,1120
7809,1003
7817,685
7825,655
7832,701
7840,730
7848,742
7855,748
7863,757
7870,769
8000,900
8008,891
8029,859
8037,853
8044,842
8052,832
8060,822
8067,819
8075,815
8082,814
8090,811
8098,812
8105,818
8113,823
8121,828
8128,832
8136,837
8144,840
8151,846
8159,848
8167,850
8174,850
8182,846
8189,841
8197,839
8207,839
8215,832
8222,833
8230,839
8238,843
8245,846
8253,847
8260,842
8268,842
8276,838
8283,834
8291,827
8299,829
8306,836
8314,833
8322,831
8329,836
8337,840
8344,829
8352,815
8360,902
8367,1097
8375,1229
8505,848
8512,851
8534,864
8542,868
8549,868
8557,871
8564,869
8572,864
8580,852
8587,838
8595,823
8603,809
8610,793
8618,781
8625,765
8633,753
8641,743
8648,736
8656,731
8664,725
8671,726
8679,725
8687,731
8694,736
8702,742
8709,741
8717,745
8725,747
8735,746
8742,741
8750,736
8758,736
8765,739
8773,744
8780,752
8788,760
8796,768
8803,774
8811,778
8819,786
8826,784
8834,783
8842,783
8849,782
8857,780
8864,780
8872,783
8880,782
8887,786
9017,803
9038,816
9046,819
9053,826
9061,829
9069,841
9076,847
9084,855
9092,862
9099,873
9107,885
9114,892
9122,904
9130,912
9137,915
9145,909
9153,903
9160,890
9168,882
9176,868
9183,857
9191,845
9198,831
9206,823
9214,816
9221,810
9229,806
9237,808
9244,809
9252,812
9262,815
9269,809
9277,805
9285,811
9292,812
9300,818
9308,823
9315,821
9323,820
9330,815
9338,819
9346,817
9353,824
9361,830
9369,839
9376,839
9384,841
9392,839
9521,1174
9542,756
9550,775
9558,775
9565,768
9573,770
9581,771
9588,773
9596,769
9604,769
9611,772
9619,775
9627,773
9634,773
9642,779
9649,783
9657,787
9665,793
9672,801
9680,806
9688,816
9695,824
9703,831
9711,828
9718,823
9726,815
9733,808
9741,799
9749,790
9756,782
9764,769
9772,759
9779,748
9787,743
9797,734
9804,728
9812,725
9820,731
9827,735
9835,745
9843,749
9850,757
9858,763
9865,766
9873,771
9881,774
9888,781
9896,782
10027,824
10048,831
10055,841
10063,842
10070,827
10078,911
10086,1110
10093,1261
10101,1170
10109,868
10116,759
10124,793
10132,817
10139,821
10147,820
10155,832
10162,839
10170,845
10177,849
10185,853
10193,854
10200,857
10208,860
10216,863
10223,868
10231,873
10239,880
10246,885
10254,894
10261,901
10269,910
10277,918
10284,923
10323,592
10331,522
10338,506
10346,511
10354,533
10361,553
10369,580
10377,606
10384,637
10514,938
10522,947
10529,945
10551,932
10558,923
10566,912
10573,900
10581,891
10589,886
10596,881
10604,875
10612,870
10619,870
10627,869
10635,840
10642,855
10650,977
10658,1158
10665,1195
10673,1017
10680,705
10688,717
10696,762
10703,791
10711,798
10719,799
10726,809
10734,816
10742,819
10749,821
10757,823
10765,824
10772,828
10780,830
10787,835
10917,833
10925,822
10935,807
10942,789
10950,779
10958,776
10965,777
10973,779
10981,782
10988,787
10996,789
11003,794
11011,796
11019,799
11026,801
11034,797
11055,805
11063,810
11070,820
11078,831
11086,836
11093,842
11101,843
11108,841
11116,841
11124,838
11131,831
11139,832
11147,833
11154,835
11162,835
11170,836
11177,839
11185,844
11193,833
11200,828
11331,857
11338,859
11346,856
11354,858
11361,861
11369,866
11377,871
11384,875
11392,881
11399,888
11407,895
11415,894
11422,890
11432,872
11440,852
11448,834
11455,825
11463,813
11470,804
11478,791
11486,781
11493,775
11501,772
11509,768
11516,766
11524,767
11532,770
11539,773
11560,782
11568,785
11576,780
11583,775
11591,771
11599,760
11606,759
11614,755
11744,770
11752,771
11759,751
11767,820
11775,991
11782,1112
11790,1070
11798,786
11805,650
11813,684
11821,713
11828,730
11836,734
11844,742
11851,751
11859,757
11866,761
11874,767
11882,773
11889,775
11897,778
11905,786
11912,790
11922,796
11930,793
11937,802
11945,810
11953,824
11960,834
11968,847
11976,855
11983,856
12126,822
12134,827
12142,831
12149,835
12157,835
12165,837
12172,842
12180,841
12188,851
12195,857
12203,861
12210,864
12218,864
12226,859
12233,857
12241,854
12249,847
12256,842
12264,841
12272,843
12279,842
12287,843
12294,844
12302,845
12310,852
12317,823
12325,858
12333,1002
12340,1181
12348,1208
12356,1015
12363,751
12371,750
12501,875
12509,884
12516,892
12524,898
12532,900
12542,899
12549,885
12557,869
12565,854
12572,842
12580,830
12587,819
12595,804
12603,794
12610,783
12631,770
12639,767
12647,762
12655,759
12662,758
12670,758
12678,757
12685,758
12693,758
12700,755
12708,753
12716,750
12723,746
12731,747
12739,748
12746,748
12754,755
12762,760
12769,766
12777,768
12784,770
12915,1171
12922,992
12930,713
12938,710
12945,736
12953,753
12961,753
12968,759
12976,767
12983,772
12991,778
12999,783
13006,786
13014,787
13022,790
13032,795
13039,791
13047,793
13054,799
13062,808
13070,820
13077,831
13085,843
13093,856
13100,866
13108,872
13115,870
13136,850
13144,842
13152,837
13159,829
13167,822
13175,817
13182,811
13190,810
13198,810
13327,870
13335,879
13343,884
13350,884
13358,885
13365,881
13373,874
13381,865
13388,861
13396,854
13404,843
13411,840
13419,838
13427,837
13434,835
13442,835
13450,836
13457,842
13465,811
13472,840
13480,979
13488,1178
13495,1222
13503,1032
13511,745
13521,744
13528,759
13536,765
13543,765
13551,774
13559,782
13566,786
13709,882
13717,864
13725,845
13732,825
13740,804
13748,782
13755,769
13763,756
13771,746
13778,739
13786,733
13794,731
13801,729
13809,731
13816,733
13824,734
13832,736
13839,738
13847,739
13855,740
13862,741
13870,743
13878,743
13885,741
13893,738
13900,736
13908,739
13916,740
13923,752
13931,760
13939,766
13946,771
13954,775
13962,771
14092,1114
14099,795
14107,717
14114,740
14122,762
14130,765
14140,768
14147,765
14155,769
14163,774
14170,779
14178,782
14185,790
14193,794
14214,809
14222,820
14229,830
14237,846
14245,861
14252,877
14260,893
14268,905
14275,917
14283,918
14291,915
14298,907
14306,897
14313,886
14321,875
14329,862
14336,849
14344,837
14352,827
14359,824
14367,821
14375,821
14504,857
14512,850
14519,843
14527,844
14535,847
14542,859
14550,858
14558,852
14565,845
14573,844
14581,841
14588,838
14596,834
14603,829
14611,820
14619,815
14629,814
14636,804
14644,799
14652,800
14659,806
14667,803
14674,785
14682,861
14690,1048
14697,1220
14719,696
14726,725
14734,754
14742,763
14749,755
14757,761
14765,765
14772,768
14780,768
14910,857
14918,848
14926,838
14933,823
14941,808
14949,791
14956,777
14964,767
14971,760
14979,755
14987,752
14994,752
15002,751
15010,753
15017,759
15025,763
15033,764
15040,771
15048,774
15055,777
15063,778
15071,779
15078,781
15086,782
15094,783
15101,780
15109,776
15116,780
15126,781
15134,777
15142,785
15149,792
15157,795
15301,1197
15308,917
15316,703
15324,752
15331,792
15339,818
15347,819
15354,828
15362,840
15370,846
15377,851
15385,854
15392,858
15400,862
15408,866
15415,867
15423,873
15431,876
15438,881
15446,887
15454,894
15461,905
15469,913
15476,924
15484,934
15492,936
15499,930
15507,921
15515,907
15522,893
15530,880
15538,868
15545,855
15553,836
15683,843
15690,840
15698,831
15706,825
15713,822
15721,819
15729,822
15739,825
15746,817
15754,814
15761,813
15769,807
15777,802
15784,800
15806,790
15813,787
15821,785
15828,780
15836,778
15844,777
15852,775
15859,758
15867,752
15874,861
15882,1046
15890,1129
15897,1007
15905,670
15913,624
15920,670
15928,699
15936,712
15943,720
15951,729
15959,737
16088,874
16096,869
16103,856
16111,846
16119,835
16126,824
16134,804
16142,793
16149,776
16157,765
16164,753
16172,750
16180,743
16187,742
16195,740
16203,741
16210,745
16218,749
16228,754
16235,750
16243,751
16251,756
16258,766
16266,767
16274,775
16281,779
16289,782
16310,782
16317,789
16325,802
16333,813
16341,824
16348,832
16356,842
16363,847
16371,844
16502,1101
16509,797
16517,777
16524,803
16532,820
16540,824
16547,825
16555,832
16563,835
16570,839
16578,840
16586,842
16593,841
16601,840
16609,841
16616,845
16624,848
16631,851
16639,858
16647,864
16654,874
16662,884
16670,894
16677,901
16685,907
16693,906
16700,896
16708,887
16715,873
16725,851
16733,828
16741,810
16884,838
16891,834
16899,826
16907,819
16914,808
16922,800
16930,790
16937,781
16945,781
16953,783
16960,786
16968,789
16976,788
16983,787
16991,785
16999,781
17006,777
17014,770
17021,765
17029,757
17037,754
17044,755
17052,755
17060,756
17067,757
17075,760
17083,765
17090,742
17098,750
17105,878
17113,1093
17121,1194
17128,1030
17259,824
17266,832
17274,842
17282,846
17289,856
17297,864
17304,873
17312,877
17320,879
17327,878
17337,860
17345,837
17353,822
17360,809
17368,791
17389,768
17396,768
17404,774
17412,776
17419,783
17427,792
17435,800
17442,809
17450,814
17458,820
17465,825
17473,832
17481,839
17488,842
17496,847
17503,852
17511,851
17519,852
17526,856
17534,855
17542,858
17671,863
17679,861
17686,855
17694,852
17702,848
17709,849
17717,846
17725,851
17732,826
17740,831
17748,950
17755,1160
17763,1261
17770,1102
17778,774
17786,727
17793,754
17801,775
17809,781
17816,784
17826,792
17834,788
17841,788
17849,791
17857,796
17864,800
17872,806
17893,818
17901,820
17908,822
17916,825
17924,828
17932,834
17939,844
17947,852
17955,857
18085,756
18092,761
18100,762
18108,764
18115,764
18123,767
18131,767
18138,771
18146,772
18154,773
18161,775
18169,777
18176,776
18184,771
18192,773
18199,768
18207,765
18214,766
18222,768
18230,771
18238,778
18245,783
18253,788
18260,794
18268,796
18276,798
18283,797
18291,799
18299,796
18306,795
18314,788
18324,780
18467,794
18474,805
18482,816
18490,825
18497,832
18505,840
18513,846
18520,853
18528,858
18535,863
18543,870
18551,873
18559,881
18566,889
18574,900
18581,909
18589,922
18597,931
18604,940
18612,944
18620,940
18627,932
18635,920
18643,909
18650,893
18658,879
18665,864
18673,851
18681,840
18688,831
18696,824
18704,820
18711,819
18719,819
18849,842
18857,841
18864,837
18872,833
18879,832
18887,836
18895,843
18902,849
18910,849
18918,846
18925,847
18935,841
18943,832
18950,821
18972,802
18979,801
18987,798
18995,795
19002,791
19010,789
19017,788
19025,767
19033,774
19041,900
19048,1095
19056,1161
19063,978
19071,642
19079,636
19086,685
19094,714
19102,725
19109,727
19117,736
19124,744
19254,886
19262,880
19269,868
19277,857
19285,843
19292,831
19300,816
19308,800
19315,786
19323,776
19330,765
19338,760
19346,755
19353,750
19361,751
19369,756
19376,760
19384,763
19392,770
19399,771
19407,779
19414,782
19422,790
19432,790
19440,782
19447,778
19455,777
19476,779
19484,786
19491,794
19499,808
19506,823
19514,834
19522,842
19530,849
19537,851
19545,847
19675,928
19683,729
19690,764
19698,795
19705,814
19713,816
19721,820
19728,826
19736,832
19744,836
19751,838
19759,839
19767,841
19774,844
19782,844
19789,847
19797,851
19805,858
19812,863
19820,871
19828,879
19835,889
19843,898
19851,904
19858,909
19866,904
19873,894
19881,878
19889,867
19896,853
19904,839
19912,823
20057,820
20065,812
20073,808
20080,795
20088,785
20096,776
20103,769
20111,774
20118,776
20126,778
20134,776
20141,777
20149,771
20157,766
20164,761
20172,756
20180,748
20187,745
20195,744
20203,744
20210,746
20218,743
20225,747
20233,748
20241,747
20248,722
20256,803
20264,1010
20271,1202
20279,1131
20287,809
20294,660
20302,682
20432,835
20440,848
20448,859
20455,870
20463,877
20470,878
20478,873
20486,862
20493,852
20501,837
20509,824
20516,806
20524,793
20531,781
20541,770
20562,751
20570,756
20578,763
20585,772
20593,783
20601,793
20608,806
20616,811
20623,820
20631,827
20639,834
20647,841
20654,845
20662,845
20669,844
20677,846
20685,843
20692,839
20700,837
20708,842
20715,841
20846,864
20853,844
20861,846
20869,957
20876,1173
20884,1291
20892,1136
20899,798
20907,747
20915,772
20922,790
20930,785
20937,786
20945,797
20953,802
20960,808
20968,809
20976,813
20983,815
20991,820
20999,820
21006,823
21014,827
21021,832
21031,836
21039,835
21047,837
21068,870
21076,876
21083,870
21091,863
21098,849
21106,837
21114,822
21121,808
21129,790
21259,785
21267,786
21275,787
21282,782
21290,778
21297,773
21305,769
21313,768
21320,768
21328,774
21336,783
21343,789
21351,791
21359,795
21366,792
21374,790
21381,789
21389,787
21397,780
21404,780
21412,781
21420,781
21427,780
21435,783
21443,786
21450,788
21458,798
21465,770
21473,794
21481,935
21488,1159
21496,1229
21639,853
21647,862
21657,878
21665,885
21672,895
21680,907
21688,918
21695,920
21703,917
21710,907
21718,898
21726,891
21733,878
21741,866
21749,853
21756,845
21764,838
21772,832
21779,829
21787,827
21794,827
21802,829
21810,836
21817,837
21825,840
21833,840
21840,846
21848,846
21856,847
21863,846
21871,849
21878,850
21886,846
21894,843
22023,850
22031,849
22039,849
22046,846
22054,843
22062,845
22069,813
22077,844
22085,986
22092,1190
22100,1235
22107,1002
22115,704
22123,724
22144,776
22154,773
22162,767
22169,760
22177,761
22185,763
22192,768
22200,770
22207,770
22215,770
22223,772
22230,773
22238,781
22246,789
22253,795
22261,804
22269,812
22276,822
22284,831
22291,838
22299,832
22307,826
22437,773
22445,778
22452,780
22460,784
22468,783
22475,785
22483,782
22491,782
22498,774
22506,775
22513,775
22521,778
22529,786
22536,791
22544,797
22552,801
22559,803
22567,796
22575,794
22582,786
22590,783
22597,782
22605,784
22613,787
22620,789
22644,784
22651,790
22659,793
22666,785
22674,881
22682,1080
22689,1205
22697,1129
22705,803
22712,714
22842,915
22850,922
22858,933
22865,938
22873,946
22881,946
22888,943
22896,934
22903,917
22911,900
22919,884
22926,871
22934,857
22942,841
22949,823
22957,812
22964,803
22972,796
22980,789
22987,788
22995,785
23003,788
23010,793
23018,794
23026,800
23033,804
23041,808
23049,808
23056,808
23064,808
23071,810
23079,807
23222,815
23230,808
23238,804
23245,801
23255,774
23263,768
23271,882
23278,1090
23286,1181
23294,1018
23301,699
23309,668
23316,690
23324,710
23332,708
23339,714
23347,722
23355,725
23362,732
23370,738
23378,744
23385,745
23393,750
23400,756
23408,761
23416,766
23423,774
23431,782
23439,792
23446,802
23454,816
23462,829
23469,839
23477,844
23607,786
23614,791
23622,795
23629,795
23637,795
23645,798
23652,798
23660,801
23668,800
23675,798
23683,790
23691,789
23698,789
23706,794
23727,815
23734,821
23742,826
23752,828
23760,820
23767,817
23775,817
23783,814
23790,821
23798,825
23806,833
23813,836
23821,842
23828,846
23836,850
23844,846
23851,834
23859,924
23867,1127
23874,1285
23882,1188
24012,882
24019,885
24027,892
24035,896
24042,907
24050,916
24058,920
24065,920
24073,917
24081,910
24088,897
24096,883
24103,868
24111,855
24119,835
24126,822
24134,804
24142,795
24149,785
24157,780
24165,778
24172,780
24180,781
24187,784
24195,789
24203,787
24210,789
24231,792
24242,787
24249,776
24257,769
24264,761
24272,750
24280,745
24287,747
24295,750
24425,794
24433,798
24441,766
24448,809
24456,993
24464,1204
24471,1185
24479,913
24486,689
24494,708
24502,733
24509,739
24517,733
24525,742
24532,747
24540,755
24548,760
24555,766
24563,769
24570,772
24578,780
24586,783
24593,790
24601,793
24609,801
24616,808
24624,820
24631,827
24639,843
24647,856
24654,867
24662,870
24805,825
24813,829
24821,834
24828,841
24836,844
24844,847
24854,843
24861,835
24869,831
24877,836
24884,840
24892,851
24899,862
24907,868
24915,869
24922,869
24930,868
24938,867
24945,865
24953,860
24961,853
24968,851
24976,854
24983,854
24991,857
24999,855
25006,855
25014,858
25022,862
25029,825
25037,882
25045,1061
25052,1231
25060,1206
25190,870
25197,875
25205,883
25212,887
25220,892
25228,904
25235,908
25243,911
25251,908
25258,902
25266,890
25274,879
25281,867
25289,855
25310,812
25318,793
25325,779
25333,766
25341,759
25351,747
25358,733
25366,726
25374,726
25381,729
25389,733
25396,732
25404,736
25412,742
25419,742
25427,743
25435,738
25442,737
25450,738
25458,740
25465,746
25473,754
25603,775
25611,780
25618,893
25626,1087
25634,1167
25641,1040
25649,719
25657,693
25664,722
25672,749
25680,754
25687,758
25695,769
25702,773
25710,780
25718,782
25725,787
25733,790
25741,794
25748,796
25756,803
25764,808
25771,815
25779,822
25786,832
25794,843
25815,875
25823,886
25830,889
25840,886
25848,869
25856,861
25863,852
25871,844
25879,834
26008,879
26016,871
26024,869
26031,874
26039,871
26047,871
26054,877
26062,872
26069,871
26077,872
26085,865
26092,859
26100,850
26108,852
26115,846
26123,830
26130,822
26138,825
26146,827
26153,828
26161,828
26169,827
26176,831
26184,794
26192,830
26199,987
26207,1195
26214,1216
26222,997
26230,745
26237,747
26245,769
26389,884
26396,886
26404,881
26411,872
26419,858
26427,842
26434,820
26442,804
26452,778
26460,753
26467,731
26475,722
26483,713
26490,706
26498,702
26505,704
26513,706
26521,711
26528,715
26536,722
26544,725
26551,729
26559,737
26567,737
26574,745
26582,748
26590,748
26597,746
26605,748
26612,749
26620,759
26628,768
26635,774
26643,778
26773,929
26780,1142
26788,1238
26796,1093
26803,775
26811,734
26819,757
26826,771
26834,767
26842,772
26849,781
26857,787
26864,793
26872,801
26893,810
26901,820
26908,831
26916,841
26923,859
26931,866
26941,884
26949,884
26956,893
26964,907
26972,921
26979,928
26987,931
26995,925
27002,918
27010,912
27017,904
27025,893
27033,880
27040,870
27048,857
27056,851
27185,896
27193,897
27201,899
27208,907
27216,910
27223,908
27231,904
27239,897
27246,889
27254,880
27262,871
27269,862
27277,859
27285,854
27292,854
27300,854
27307,851
27315,848
27323,849
27330,839
27338,819
27346,904
27353,1101
27361,1253
27369,1163
27376,854
27397,796
27405,796
27413,778
27420,783
27428,784
27438,778
27446,770
27453,770
27461,773
27590,844
27598,833
27606,819
27613,805
27621,796
27629,786
27636,777
27644,771
27652,766
27659,766
27667,765
27675,768
27682,770
27690,775
27697,776
27705,781
27713,780
27720,781
27728,782
27736,781
27743,778
27751,776
27759,780
27766,783
27774,793
27781,799
27789,804
27797,808
27804,810
27812,807
27820,803
27827,801
27971,795
27978,810
27986,815
27993,827
28001,835
28009,846
28016,852
28024,857
28032,857
28039,859
28049,864
28057,865
28065,864
28072,870
28080,878
28087,888
28095,898
28103,910
28110,922
28118,929
28125,934
28133,930
28141,924
28149,911
28156,900
28164,887
28171,877
28179,861
28187,846
28194,835
28202,824
28210,818
28217,810
28225,810
28355,853
28362,853
28370,852
28378,844
28385,836
28393,832
28401,822
28408,816
28416,811
28423,811
28431,806
28439,806
28446,802
28454,803
28475,772
28483,838
28490,1018
28498,1136
28506,1083
28513,780
28521,657
28529,689
28536,713
28546,716
28554,707
28562,710
28569,714
28577,717
28585,722
28592,729
28600,732
28607,737
28615,742
28623,747
28630,753
28638,761
28768,759
28776,754
28783,744
28791,745
28799,746
28806,750
28814,751
28822,755
28829,756
28837,759
28845,765
28852,767
28860,769
28868,771
28875,770
28883,762
28890,764
28898,762
28906,768
28913,776
28921,783
28929,788
28936,791
28944,792
28951,789
28959,787
28980,782
28988,779
28995,785
29003,793
29011,799
29018,807
29026,815
29036,821
29044,796
29051,804
29181,870
29188,873
29196,873
29204,873
29211,875
29219,879
29227,886
29234,890
29242,899
29250,908
29257,916
29265,917
29272,913
29280,902
29288,889
29295,876
29303,863
29311,848
29318,830
29326,817
29334,805
29341,798
29349,789
29356,788
29364,784
29372,786
29379,787
29387,788
29395,790
29402,793
29410,793
29417,796
29561,828
29569,815
29576,798
29584,787
29592,783
29599,775
29607,772
29614,767
29622,766
29630,767
29637,742
29645,750
29655,945
29663,1148
29670,1143
29678,884
29686,650
29693,666
29701,696
29708,703
29716,696
29724,706
29731,717
29739,729
29747,733
29754,741
29762,744
29770,746
29777,750
29785,755
29793,762
29800,768
29808,776
29815,782
29945,773
29953,773
29961,772
29968,771
29976,773
29984,776
29991,783
29999,783
30006,787
30014,789
30022,793
30029,797
30037,800
30045,802
30066,802
30073,805
30081,803
30088,811
30096,820
30104,834
30111,846
30119,852
30127,856
30134,855
30144,858
30152,843
30160,838
30167,841
30175,838
30182,835
30190,839
30198,840
30205,844
30213,850
30221,855
30228,862
30359,860
30366,863
30374,862
30382,860
30389,863
30397,865
30405,866
30412,867
30420,873
30428,879
30435,890
30443,903
30451,908
30458,915
30466,911
30473,900
30481,884
30489,871
30496,857
30504,844
30512,829
30519,816
30527,803
30535,791
30542,786
30550,780
30571,780
30579,779
30586,775
30594,775
30601,772
30609,770
30617,767
30624,769
30632,766
30642,765
30772,792
30780,787
30788,790
30795,792
30803,793
30810,792
30818,792
30826,798
30833,779
30841,772
30849,875
30856,1086
30864,1196
30872,1067
30879,717
30887,667
30895,711
30902,738
30910,750
30917,750
30925,763
30933,770
30940,775
30948,779
30956,786
30963,791
30971,792
30979,795
30986,801
30994,804
31001,810
31009,821
31152,798
31160,798
31168,802
31176,807
31183,812
31191,819
31198,824
31206,832
31214,836
31221,843
31229,844
31237,849
31244,851
31254,850
31262,834
31269,826
31277,822
31285,822
31292,826
31300,830
31308,841
31315,845
31323,852
31330,854
31338,855
31346,853
31353,852
31361,843
31369,836
31376,834
31384,834
31392,840
31399,838
31407,839
31537,833
31544,834
31552,836
31560,836
31567,837
31575,836
31583,836
31590,841
31598,844
31606,848
31613,852
31621,862
31628,871
31636,879
31657,889
31665,882
31673,870
31680,849
31688,836
31696,816
31703,796
31711,775
31718,762
31726,750
31734,737
31744,731
31751,720
31759,714
31767,713
31774,718
31782,718
31790,727
31797,732
31805,743
31812,751
31820,758
31828,762
31958,822
31965,818
31973,815
31981,815
31988,815
31996,813
32003,816
32011,818
32019,820
32026,821
32034,793
32042,851
32049,1039
32057,1249
32065,1212
32072,924
32080,732
32087,750
32095,775
32103,778
32110,778
32118,785
32126,795
32133,801
32141,806
32162,819
32169,830
32177,837
32185,845
32192,856
32200,862
32208,873
32215,883
32223,895
32353,852
32363,848
32371,840
32379,837
32386,838
32394,839
32402,841
32409,845
32417,846
32425,850
32432,853
32440,850
32448,849
32455,852
32463,841
32470,832
32478,830
32486,831
32493,834
32501,842
32509,850
32516,852
32524,856
32531,853
32539,852
32547,846
32554,843
32562,837
32570,827
32577,827
32585,828
32593,829
32600,826
32744,820
32752,817
32759,814
32767,809
32775,807
32782,806
32790,803
32798,800
32805,806
32813,808
32821,814
32828,822
32836,832
32843,839
32853,839
32861,827
32869,814
32876,804
32884,793
32892,783
32899,769
32907,758
32914,744
32922,736
32930,728
32937,725
32945,724
32953,726
32960,728
32968,732
32976,738
32983,743
32991,745
32998,746
33128,827
33136,832
33143,826
33151,819
33159,812
33166,807
33174,804
33182,799
33189,804
33197,804
33205,803
33212,806
33220,809
33227,808
33248,992
33256,1210
33264,1217
33271,952
33279,716
33287,747
33294,779
33302,794
33310,796
33317,808
33325,821
33333,827
33340,836
33350,835
33358,831
33365,831
33373,838
33381,843
33388,853
33396,857
33404,866
33411,874
33541,831
33548,827
33556,824
33564,819
33571,818
33579,819
33587,818
33594,816
33602,817
33610,818
33617,815
33625,813
33632,813
33640,814
33648,803
33655,796
33663,793
33671,793
33678,793
33686,798
33693,805
33701,809
33709,813
33716,813
33724,808
33732,797
33753,783
33761,779
33768,775
33776,769
33783,763
33791,761
33799,758
33806,761
33814,745
33944,769
33951,773
33962,777
33969,770
33977,769
33985,775
33992,787
34000,792
34007,804
34015,813
34023,826
34030,835
34038,842
34046,839
34053,830
34061,821
34069,809
34076,804
34084,789
34091,776
34099,763
34107,752
34114,740
34122,739
34130,735
34137,734
34145,736
34153,741
34160,746
34168,750
34175,755
34183,760
34191,766
34334,815
34342,816
34350,819
34357,824
34365,827
34373,831
34380,835
34388,840
34396,845
34403,822
34411,884
34418,1067
34426,1247
34434,1204
34441,928
34451,760
34459,777
34467,789
34474,792
34482,796
34490,809
34497,814
34505,822
34512,825
34520,833
34528,836
34535,839
34543,851
34551,856
34558,859
34566,854
34574,861
34581,870
34589,879
34718,807
34726,809
34734,806
34741,807
34749,804
34757,805
34764,805
34772,810
34780,806
34787,804
34795,802
34803,803
34810,804
34818,797
34839,790
34847,789
34855,792
34862,792
34870,790
34877,788
34885,782
34893,777
34900,770
34908,764
34916,753
34923,751
34931,745
34938,746
34948,743
34956,737
34964,735
34971,740
34979,735
34987,717
34994,798
35002,993
35132,808
35140,815
35147,820
35155,827
35163,831
35170,840
35178,848
35186,857
35193,866
35201,872
35208,876
35216,869
35224,860
35231,849
35239,840
35247,823
35254,813
35262,802
35269,787
35277,776
35285,770
35292,769
35300,768
35308,773
35315,771
35323,777
35344,790
35352,799
35359,805
35367,812
35375,824
35382,826
35390,832
35397,829
35405,836
35535,876
35543,876
35550,877
35560,842
35568,855
35576,997
35583,1201
35591,1256
35599,1054
35606,761
35614,760
35621,791
35629,807
35637,802
35644,805
35652,815
35660,821
35667,826
35675,832
35683,833
35690,836
35698,836
35705,840
35713,842
35721,845
35728,851
35736,856
35744,862
35751,871
35759,882
35767,888
35774,899
35917,802
35925,801
35933,798
35940,794
35948,786
35956,782
35963,771
35971,765
35979,763
35986,761
35994,764
36002,767
36009,770
36017,768
36024,771
36032,767
36040,763
36047,759
36057,752
36065,736
36073,733
36080,732
36088,738
36095,739
36103,738
36111,745
36118,752
36126,749
36134,724
36141,810
36149,1005
36157,1137
36164,1077
36172,758
36302,833
36309,843
36317,850
36325,863
36332,873
36340,883
36347,885
36355,886
36363,879
36370,867
36378,855
36386,840
36393,828
36401,815
36422,786
36429,782
36437,786
36445,787
36453,787
36460,790
36468,795
36475,804
36483,811
36491,818
36498,823
36506,831
36514,834
36521,837
36529,837
36537,837
36547,840
36554,831
36562,831
36569,838
36577,844
36585,848
36715,1054
36723,1219
36730,1199
36738,948
36746,762
36753,781
36761,797
36769,802
36776,801
36784,804
36792,809
36799,812
36807,814
36815,815
36822,816
36830,816
36837,818
36845,817
36853,822
36860,826
36868,831
36876,839
36883,844
36891,854
36899,860
36906,873
36927,870
36935,857
36943,841
36950,822
36958,804
36966,784
36973,769
36981,755
36989,742
37118,765
37126,765
37134,765
37141,770
37149,776
37159,781
37166,771
37174,768
37182,763
37189,764
37197,759
37205,761
37212,756
37220,756
37227,757
37235,760
37243,762
37250,763
37258,768
37266,772
37273,772
37281,751
37289,833
37296,1030
37304,1209
37311,1137
37319,836
37327,702
37334,723
37342,743
37350,743
37493,905
37501,907
37508,908
37516,900
37524,895
37531,885
37539,879
37546,867
37554,857
37562,844
37570,834
37577,829
37585,827
37592,823
37600,823
37608,827
37615,831
37623,836
37631,836
37638,841
37646,843
37656,851
37663,844
37671,844
37679,845
37686,847
37694,847
37702,844
37709,842
37717,841
37724,842
37732,846
37740,862
37747,871
37877,957
37885,1173
37892,1318
37900,1188
37908,858
37915,773
37923,797
37931,809
37938,806
37946,804
37954,818
37961,820
37969,823
37976,825
37998,830
38005,832
38013,829
38020,829
38028,828
38036,832
38043,837
38051,840
38059,844
38066,852
38074,864
38082,866
38089,866
38097,860
38105,854
38112,838
38120,827
38127,817
38135,804
38145,778
38153,756
38160,743
38291,834
38298,835
38306,834
38314,822
38321,824
38329,827
38337,834
38344,844
38352,849
38360,854
38367,851
38375,845
38382,843
38390,845
38398,842
38405,837
38413,830
38421,831
38428,831
38436,833
38444,835
38451,839
38459,844
38466,834
38474,819
38482,919
38503,1238
38510,920
38518,753
38525,792
38533,820
38541,832
38549,832
38556,846
38564,858
38694,997
38701,990
38709,980
38717,963
38724,948
38732,932
38740,918
38747,897
38757,877
38765,856
38773,843
38780,838
38788,833
38795,831
38803,833
38811,835
38818,839
38826,843
38834,848
38841,853
38849,854
38857,858
38864,854
38872,850
38879,857
38887,851
38895,843
38902,846
38910,846
38918,847
38925,851
38933,858
38941,861
39085,1195
39092,882
39100,706
39107,738
39115,756
39123,766
39130,759
39138,761
39146,765
39153,768
39161,770
39169,769
39176,772
39184,771
39192,771
39199,773
39207,775
39215,778
39222,785
39230,787
39237,794
39245,805
39255,823
39263,820
39270,822
39278,820
39286,816
39293,809
39301,798
39308,790
39316,780
39324,768
39331,755
39339,743
39469,785
39476,784
39484,780
39492,781
39499,778
39507,781
39515,786
39522,794
39530,792
39537,796
39545,791
39553,787
39560,788
39568,782
39589,778
39597,778
39604,785
39612,789
39620,797
39627,806
39635,802
39642,793
39650,886
39658,1089
39665,1221
39673,1125
39681,798
39688,727
39696,760
39704,786
39711,790
39719,790
39727,797
39734,804
39744,809
39874,917
39882,903
39889,893
39897,874
39905,860
39912,840
39920,822
39927,805
39935,798
39943,791
39950,783
39958,783
39966,779
39973,782
39981,783
39989,785
39996,785
40004,787
40011,788
40019,789
40027,789
40034,788
40042,789
40050,788
40057,787
40065,780
40073,776
40094,775
40101,778
40109,783
40117,780
40124,779
40132,771
40140,762
40147,750
40155,747
40285,701
40293,720
40301,719
40308,720
40316,727
40324,735
40331,736
40339,743
40346,746
40354,749
40364,754
40372,750
40379,746
40387,753
40395,762
40402,772
40410,783
40418,795
40425,810
40433,821
40440,835
40448,842
40456,845
40463,838
40471,830
40479,818
40486,812
40494,803
40502,790
40509,779
40517,772
40524,763
40532,758
40676,815
40684,820
40691,834
40699,843
40706,854
40714,858
40722,860
40729,858
40737,859
40745,858
40752,858
40760,850
40768,850
40775,850
40783,851
40791,853
40798,852
40806,856
40813,861
40821,836
40829,857
40836,1000
40844,1217
40854,1236
40862,939
40869,746
40877,768
40884,788
40892,795
40900,792
40907,802
40915,807
40923,816
40930,819
41060,913
41068,896
41075,872
41083,871
41091,863
41098,847
41106,829
41114,810
41121,801
41129,792
41136,790
41144,787
41152,789
41159,789
41181,796
41188,797
41196,794
41204,787
41211,783
41219,783
41226,782
41234,779
41242,778
41249,770
41257,762
41265,755
41272,757
41280,752
41288,755
41295,762
41303,773
41311,776
41318,779
41326,780
41333,774
41343,767
41474,714
41481,751
41489,772
41497,769
41504,774
41512,778
41519,784
41527,785
41535,788
41542,792
41550,796
41558,802
41565,802
41573,808
41581,810
41588,816
41596,822
41604,830
41611,838
41619,851
41626,864
41634,871
41642,872
41649,870
41657,865
41665,853
41686,823
41693,817
41701,808
41708,802
41716,798
41724,798
41731,797
41739,799
41747,797
41877,867
41884,872
41892,874
41900,873
41907,870
41915,861
41923,857
41930,848
41938,841
41945,836
41953,836
41963,827
41971,818
41978,811
41986,812
41994,816
42001,793
42009,811
42016,939
42024,1125
42032,1184
42039,1026
42047,716
42055,714
42062,744
42070,769
42078,774
42085,779
42093,789
42100,795
42108,798
42116,802
42259,859
42267,839
42275,815
42282,791
42290,773
42298,757
42305,748
42313,738
42320,730
42328,725
42336,723
42343,720
42351,720
42359,722
42366,724
42374,728
42382,731
42389,737
42397,736
42404,739
42412,740
42420,740
42427,733
42435,733
42443,734
42453,736
42460,731
42468,735
42476,740
42483,746
42491,752
42498,747
42506,748
42514,748
42643,746
42651,766
42659,772
42666,772
42674,784
42682,786
42689,789
42697,790
42704,792
42712,794
42720,796
42727,798
42735,798
42743,802
42764,820
42771,837
42779,851
42787,870
42794,882
42802,892
42809,900
42817,901
42825,893
42832,881
42840,872
42848,863
42855,856
42863,842
42871,832
42878,820
42886,816
42894,810
42901,810
42909,807
42916,809
42924,814
43054,868
43061,871
43071,868
43079,853
43087,844
43094,836
43102,834
43110,831
43117,824
43125,823
43132,821
43140,824
43148,824
43155,823
43163,824
43171,827
43178,802
43186,812
43194,944
43201,1168
43209,1259
43216,1090
43224,774
43232,733
43239,757
43247,767
43268,773
43276,777
43284,775
43291,774
43299,771
43306,772
43314,770
43322,768
43329,770
43459,777
43467,766
43474,753
43482,746
43490,746
43497,739
43505,738
43513,738
43520,744
43528,748
43535,752
43543,754
43551,756
43561,754
43568,751
43576,750
43584,753
43591,757
43599,760
43607,761
43614,756
43622,760
43629,760
43637,770
43645,782
43652,795
43660,798
43668,802
43675,805
43683,799
43691,799
43698,798
43706,798
43849,795
43857,803
43865,812
43873,824
43880,831
43888,838
43895,844
43903,853
43911,857
43918,865
43926,869
43934,874
43941,884
43949,888
43956,899
43964,906
43972,920
43979,929
43987,936
43995,934
44002,931
44010,921
44018,912
44025,899
44033,886
44040,873
44048,862
44058,838
44066,817
44073,810
44081,804
44089,805
44096,803
44104,806
44234,868
44241,868
44249,867
44256,868
44264,861
44272,854
44279,845
44287,837
44295,826
44302,824
44310,822
44318,820
44325,816
44333,816
44354,808
44362,787
44370,881
44377,1068
44385,1160
44392,1046
44400,708
44408,653
44415,695
44423,719
44431,727
44438,728
44446,732
44454,740
44461,744
44469,746
44476,747
44484,754
44492,753
44499,753
44507,758
44637,789
44644,776
44652,767
44660,758
44670,749
44677,735
44685,731
44693,731
44700,737
44708,742
44715,746
44723,758
44731,762
44738,768
44746,770
44754,775
44761,774
44769,775
44777,773
44784,771
44792,771
44799,774
44807,782
44815,787
44822,794
44830,797
44838,802
44859,795
44866,795
44874,798
44882,803
44889,809
44897,814
44904,822
44912,825
44920,832
45049,863
45057,864
45064,862
45072,865
45080,864
45087,867
45095,869
45103,875
45110,877
45118,886
45126,895
45133,907
45141,915
45149,917
45159,913
45166,898
45174,882
45181,868
45189,858
45197,845
45204,833
45212,819
45220,811
45227,802
45235,797
45242,789
45250,784
45258,783
45265,785
45273,789
45281,790
45288,793
45296,796
45440,826
45448,814
45455,806
45463,798
45470,793
45478,784
45486,779
45494,774
45501,775
45509,765
45516,747
45524,824
45532,1002
45539,1127
45547,1066
45555,766
45562,656
45570,684
45578,703
45585,711
45593,716
45600,726
45608,732
45616,736
45623,742
45631,748
45639,756
45646,759
45656,764
45664,758
45671,759
45679,763
45687,777
45694,786
45824,776
45832,777
45839,779
45847,780
45855,782
45862,785
45870,787
45878,789
45885,794
45893,795
45901,796
45908,795
45916,794
45923,792
45944,787
45952,791
45960,799
45967,813
45975,823
45983,833
45990,840
45998,844
46006,847
46013,843
46021,842
46029,838
46036,837
46044,838
46051,842
46059,842
46067,842
46074,841
46082,844
46090,851
46097,825
46227,857
46235,860
46242,858
46250,859
46258,860
46268,865
46275,860
46283,859
46291,866
46298,877
46306,888
46314,893
46321,894
46329,886
46336,878
46344,868
46352,857
46359,844
46367,831
46375,816
46382,804
46390,796
46398,786
46405,781
46413,780
46420,781
46428,780
46449,789
46457,786
46465,783
46472,783
46480,781
46488,777
46495,775
46503,775
46511,768
46641,777
46648,780
46656,779
46664,774
46671,777
46679,778
46687,760
46694,766
46702,888
46710,1094
46717,1192
46725,1048
46732,732
46740,690
46748,716
46758,732
46765,722
46773,724
46781,732
46788,744
46796,750
46803,757
46811,760
46819,771
46826,775
46834,783
46842,790
46849,798
46857,803
46865,811
46872,824
46880,836
47023,807
47030,814
47038,819
47046,824
47053,832
47061,836
47069,841
47077,842
47084,850
47092,851
47099,855
47107,855
47115,851
47122,847
47130,847
47138,850
47145,852
47153,859
47160,860
47168,865
47176,866
47183,870
47191,864
47199,860
47206,855
47214,848
47222,846
47229,845
47237,848
47244,845
47254,846
47262,835
47270,833
47277,815
47407,847
47415,849
47422,850
47430,850
47438,854
47445,855
47453,860
47460,863
47468,872
47476,879
47483,888
47491,891
47499,897
47506,893
47528,863
47535,846
47543,828
47550,814
47558,791
47566,774
47574,760
47581,748
47589,740
47596,732
47604,731
47612,725
47619,728
47627,728
47635,734
47642,735
47650,740
47658,740
47665,742
47673,746
47680,747
47688,749
47818,786
47826,788
47834,791
47841,788
47849,790
47857,791
47864,770
47874,800
47882,956
47890,1120
47897,1124
47905,884
47912,630
47920,666
47928,700
47935,732
47943,742
47950,753
47958,765
47966,774
47974,781
47981,788
47989,790
47996,795
48004,799
48012,805
48033,827
48040,838
48048,852
48056,869
48063,885
48071,899
48079,909
48086,917
48094,919
48102,916
48232,852
48240,856
48247,858
48255,857
48263,855
48270,854
48278,851
48286,847
48293,837
48301,837
48308,834
48316,834
48324,836
48331,839
48339,839
48347,838
48354,838
48364,826
48372,812
48379,804
48387,801
48395,798
48402,801
48410,800
48418,805
48425,807
48433,811
48440,814
48448,814
48456,784
48463,849
48471,1038
48614,844
48622,844
48630,845
48637,848
48645,848
48653,857
48660,857
48668,860
48676,857
48683,851
48691,837
48699,823
48706,812
48714,799
48721,780
48729,757
48737,744
48744,735
48752,733
48760,724
48767,722
48775,717
48783,719
48790,723
48798,724
48805,729
48813,734
48821,740
48828,744
48836,756
48844,757
48882,454
48890,395
48898,395
48905,423
48913,460
48921,501
48928,541
48936,583
48944,617
48951,647
48959,673
49089,867
49097,835
49118,880
49126,887
49133,904
49141,914
49148,923
49156,928
49164,935
49171,940
49179,940
49187,946
49194,948
49202,953
49210,956
49217,963
49225,965
49233,973
49240,981
49248,991
49255,999
49263,1002
49271,995
49278,987
49286,978
49294,956
49301,942
49309,924
49317,912
49324,894
49332,881
49339,868
49347,863
49355,859
49362,853
49492,872
49502,874
49510,867
49518,866
49525,866
49533,865
49540,858
49548,851
49556,847
49563,836
49571,826
49579,833
49586,832
49594,837
49602,837
49623,833
49630,827
49638,814
49646,907
49653,1104
49661,1239
49669,1131
49676,807
49684,705
49692,727
49699,752
49707,755
49714,758
49722,767
49730,775
49737,781
49745,784
49753,792
49760,794
49768,801
49776,804
49906,862
49913,852
49921,841
49929,831
49936,830
49944,819
49952,822
49959,826
49967,833
49975,839
49982,852
49992,858
50000,858
50007,859
50015,870
50023,877
50030,889
50038,898
50046,904
50053,915
50061,921
50068,930
50076,932
50084,941
50091,950
50099,967
50107,980
50128,1014
50135,1025
50143,1032
50151,1038
50158,1049
50166,1053
50173,1059
50304,1148
50311,1147
50319,1155
50327,1162
50334,1172
50342,1176
50350,1184
50357,1184
50365,1188
50372,1186
50380,1187
50388,1192
50395,1196
50403,1204
50411,1205
50418,1215
50426,1223
50434,1231
50441,1238
50449,1243
50456,1238
50466,1224
50474,1199
50482,1180
50489,1165
50497,1149
50640,1049
50648,1035
50656,1018
50663,1006
50671,992
50678,982
50686,969
50694,958
50702,950
50709,938
50717,925
50724,907
50732,894
50740,881
50747,865
50755,850
50763,841
50770,831
50778,818
50786,816
50793,807
50801,806
50808,803
50816,776
50824,797
50831,937
50839,1099
50846,1096
50854,913
50862,607
50870,615
50877,645
51007,749
51014,761
51022,765
51030,766
51037,768
51045,757
51053,748
51060,727
51068,711
51078,684
51085,656
51093,631
51101,613
51108,598
51116,596
51124,589
51145,581
51152,587
51160,593
51167,605
51175,616
51183,627
51191,633
51198,643
51206,646
51213,652
51221,659
51229,653
51236,648
51244,652
51252,657
51259,661
51267,671
51275,671
51282,674
51290,677
51420,1027
51428,1050
51436,875
51443,558
51451,559
51458,584
51466,607
51474,626
51481,635
51489,647
51497,658
51504,662
51512,663
51520,666
51527,668
51535,676
51542,678
51550,681
51558,690
51568,690
51575,685
51583,693
51590,701
51598,719
51606,733
51613,745
51621,753
51629,752
51650,737
51657,719
51665,699
51673,677
51681,661
51688,644
51696,634
51704,629
51834,694
51841,692
51849,701
51857,706
51864,712
51872,714
51880,717
51887,712
51895,706
51903,706
51910,701
51918,700
51925,695
51933,702
51941,702
51948,705
51956,707
51964,714
51971,719
51979,718
51987,707
51994,794
52002,985
52009,1104
52017,1055
52025,744
52032,615
52040,642
52048,667
52058,698
52065,700
52073,707
52216,909
52224,904
52231,900
52239,889
52246,877
52254,864
52262,851
52269,838
52277,832
52285,826
52292,820
52300,822
52308,825
52315,828
52323,830
52331,833
52338,833
52346,837
52353,841
52361,840
52369,846
52376,845
52384,846
52392,847
52399,851
52407,847
52415,850
52422,847
52430,843
52437,844
52445,843
52453,848
52460,853
52468,859
52598,865
52606,1014
52613,1198
52621,1229
52629,1038
52636,739
52644,725
52651,751
52659,772
52667,784
52677,782
52684,786
52692,786
52700,790
52721,800
52728,802
52736,802
52744,795
52751,796
52759,799
52767,806
52774,810
52782,824
52790,829
52797,838
52805,847
52813,853
52820,847
52828,835
52835,827
52843,813
52851,806
52858,786
52866,775
52874,756
53003,788
53011,793
53018,794
53026,791
53034,794
53041,789
53049,789
53057,785
53064,785
53072,783
53080,778
53087,780
53095,784
53103,796
53110,801
53118,803
53125,800
53133,802
53141,800
53148,802
53156,796
53166,790
53174,775
53181,774
53189,776
53197,781
53204,784
53225,798
53233,805
53240,782
53248,849
53256,1025
53263,1200
53271,1176
53279,927
53408,898
53416,903
53424,906
53431,914
53439,918
53447,929
53454,937
53462,939
53469,936
53477,928
53485,918
53492,907
53500,890
53508,863
53515,847
53523,827
53531,813
53538,801
53546,792
53553,787
53561,788
53569,790
53576,790
53584,792
53592,792
53599,794
53607,790
53615,796
53622,797
53630,798
53637,798
53645,800
53655,798
53799,842
53807,837
53814,830
53822,822
53830,815
53837,806
53845,799
53853,793
53860,779
53868,773
53875,767
53883,766
53891,761
53899,762
53906,757
53914,754
53921,753
53929,730
53937,755
53944,886
53952,1089
53960,1118
53967,962
53975,665
53983,638
53990,664
53998,692
54005,699
54013,708
54021,721
54028,729
54036,736
54044,739
54174,870
54182,865
54189,847
54197,829
54205,807
54212,782
54220,770
54228,769
54235,765
54243,752
54250,748
54258,744
54266,745
54276,745
54283,743
54304,744
54312,756
54320,766
54327,776
54335,784
54342,791
54350,802
54358,808
54365,816
54373,821
54381,826
54388,825
54396,826
54404,831
54411,830
54419,834
54427,837
54434,841
54442,839
54449,838
54457,835
54465,834
54595,856
54602,858
54610,857
54618,855
54625,826
54633,887
54641,1057
54648,1240
54656,1178
54663,937
54671,740
54679,753
54686,778
54694,787
54702,786
54709,795
54717,804
54725,808
54732,812
54740,809
54747,810
54755,810
54765,815
54773,807
54780,808
54788,811
54809,830
54817,842
54824,849
54832,859
54840,865
54847,874
54855,874
54862,868
54870,858
55000,771
55008,769
55015,772
55023,772
55031,774
55038,771
55046,772
55053,771
55061,771
55069,771
55076,768
55084,770
55092,768
55099,769
55107,766
55115,770
55122,769
55130,779
55137,786
55145,790
55153,793
55160,796
55168,800
55176,796
55183,795
55191,790
55199,789
55206,786
55214,789
55221,787
55229,790
55237,792
55380,828
55388,835
55398,844
55405,842
55413,845
55421,849
55428,856
55436,863
55444,872
55451,889
55459,900
55466,915
55474,926
55482,942
55489,955
55497,961
55505,958
55512,948
55520,936
55528,923
55535,908
55543,883
55551,864
55558,850
55566,832
55574,813
55581,807
55589,806
55596,807
55604,806
55612,808
55619,809
55627,812
55635,815
55764,839
55772,841
55780,839
55787,839
55795,834
55802,828
55810,822
55818,813
55825,798
55833,798
55841,795
55848,797
55856,794
55863,794
55887,791
55895,749
55902,792
55910,955
55918,1110
55925,1079
55933,835
55940,590
55948,627
55956,656
55963,687
55971,706
55979,713
55986,726
55994,735
56002,743
56009,743
56017,743
56024,742
56032,751
56040,755
56047,757
56178,784
56185,774
56193,762
56201,753
56208,745
56216,745
56224,744
56231,744
56239,742
56247,749
56254,753
56262,754
56269,759
56277,762
56285,768
56292,771
56300,779
56308,778
56315,780
56323,781
56331,784
56338,780
56346,778
56353,782
56363,785
56371,784
56392,795
56400,804
56407,808
56415,815
56423,817
56430,824
56438,824
56445,828
56453,834
56461,841
56591,832
56599,848
56607,856
56614,858
56622,853
56630,854
56637,854
56645,850
56652,849
56660,843
56668,841
56675,838
56683,840
56691,839
56698,845
56706,849
56714,862
56721,870
56729,874
56736,873
56744,868
56752,863
56759,858
56767,851
56775,837
56782,821
56790,804
56798,797
56805,789
56813,787
56820,785
56828,786
56972,827
56979,827
56987,826
56997,820
57005,805
57012,795
57020,787
57027,778
57035,773
57043,766
57050,761
57058,754
57066,751
57073,741
57081,742
57089,743
57096,745
57104,748
57111,755
57119,726
57127,750
57134,912
57142,1109
57150,1149
57157,991
57165,674
57172,644
57180,663
57188,688
57195,710
57203,723
57211,736
57218,749
57226,757
57356,890
57363,883
57371,867
57379,856
57386,840
57394,820
57402,806
57409,794
57417,786
57425,776
57432,776
57440,777
57447,779
57455,777
57476,781
57486,792
57494,792
57501,796
57509,801
57517,814
57524,821
57532,828
57540,831
57547,835
57555,834
57562,837
57570,838
57578,843
57585,849
57593,855
57601,858
57608,863
57616,860
57624,853
57631,853
57639,851
57769,755
57777,759
57785,767
57792,782
57800,787
57808,793
57815,801
57823,804
57830,811
57838,807
57846,805
57853,804
57861,805
57869,807
57876,808
57884,813
57892,818
57899,824
57907,834
57914,849
57922,864
57930,879
57937,887
57945,887
57953,884
57960,879
57984,811
57991,794
57999,780
58007,765
58014,752
58022,743
58030,740
58037,740
58045,741
58052,744
58183,798
58190,803
58198,804
58206,805
58214,807
58221,807
58229,803
58236,801
58244,798
58252,794
58259,788
58267,784
58275,784
58282,784
58290,784
58298,784
58305,784
58313,786
58320,790
58328,774
58336,784
58343,906
58351,1085
58359,1140
58366,1052
58374,750
58382,696
58389,707
58397,729
58404,748
58412,756
58420,766
58563,908
58570,902
58578,892
58586,882
58596,863
58603,839
58611,824
58619,818
58626,815
58634,816
58642,816
58649,818
58657,822
58664,824
58672,826
58680,831
58687,836
58695,837
58703,841
58710,844
58718,847
58726,847
58733,850
58741,849
58749,847
58756,848
58764,850
58772,845
58779,842
58787,842
58794,839
58802,834
58810,831
58817,832
58947,844
58955,848
58962,822
58970,842
58977,975
58985,1141
58993,1170
59000,1035
59008,752
59016,722
59023,734
59031,748
59039,764
59046,769
59067,787
59075,787
59085,782
59093,771
59100,764
59108,763
59116,761
59123,766
59131,770
59139,775
59146,781
59154,792
59161,801
59169,812
59177,822
59184,825
59192,824
59200,818
59207,810
59215,800
59223,787
59230,771
59361,790
59368,791
59376,791
59383,793
59391,794
59399,787
59406,788
59414,786
59422,787
59429,784
59437,781
59445,775
59452,773
59460,776
59468,781
59475,787
59483,794
59491,798
59498,799
59506,798
59513,798
59521,796
59529,795
59536,794
59544,789
59552,787
59573,794
59583,797
59590,798
59598,800
59606,811
59613,793
59621,833
59628,983
59636,1148
59644,1175
59774,897
59782,896
59789,899
59797,903
59805,906
59812,911
59820,921
59828,926
59835,927
59843,920
59851,911
59858,899
59866,883
59873,867
59881,848
59889,831
59896,817
59904,805
59912,797
59919,791
59927,788
59935,786
59942,786
59950,787
59957,788
59965,789
59973,791
59980,794
59988,801
59996,802
60003,800
8,825
30,815
37,812
45,803
53,795
60,790
68,789
75,785
83,778
91,778
98,778
106,780
114,780
126,749
133,815
141,952
148,1010
156,913
164,598
171,470
179,451
187,449
194,439
202,430
209,425
217,425
225,421
232,413
240,425
248,463
255,508
263,547
271,592
278,631
286,674
293,708
301,747
309,784
316,816
324,848
332,879
339,910
347,924
355,939
362,939
370,942
377,938
385,936
393,928
400,920
408,913
416,915
423,917
431,916
438,921
446,923
454,928
461,928
469,932
477,932
484,936
492,937
500,942
507,943
515,941
536,944
543,944
551,952
559,955
566,956
576,953
584,948
592,943
599,940
607,939
615,939
622,947
630,948
637,959
645,958
775,977
782,1150
790,1278
798,1246
806,991
813,803
821,807
828,816
836,835
844,835
851,843
859,845
867,845
874,848
882,848
889,846
897,843
905,844
912,842
920,847
928,845
935,849
943,849
951,855
958,860
966,868
973,877
981,882
989,885
996,874
1004,865
1012,852
1019,844
1040,799
1048,777
1056,760
1063,746
1071,740
1079,730
1086,727
1094,720
1102,721
1109,716
1117,718
1124,718
1134,718
1142,708
1150,705
1157,709
1165,711
1173,714
1180,716
1188,721
1196,717
1203,722
1211,720
1218,725
1226,726
1234,728
1241,728
1372,782
1379,779
1387,782
1395,778
1402,783
1410,784
1418,760
1425,790
1433,942
1440,1128
1448,1143
1456,988
1463,734
1471,704
1479,712
1486,730
1494,733
1502,747
1509,754
1517,761
1524,766
1545,781
1553,790
1561,797
1569,810
1576,818
1584,828
1591,837
1599,848
1607,861
1614,871
1622,886
1630,895
1637,908
1645,908
1652,906
1662,892
1670,878
1678,859
1685,848
1693,832
1701,824
1708,817
1716,811
1723,812
1731,810
1739,815
1746,814
1754,820
1884,844
1892,842
1900,837
1907,839
1915,838
1922,845
1930,847
1938,852
1945,843
1953,840
1961,830
1968,827
1976,821
1984,814
1991,813
1999,808
2006,808
2014,804
2022,807
2029,805
2050,792
2058,881
2066,1067
2073,1174
2081,1086
2089,781
2097,684
2104,693
2112,703
2119,707
2127,708
2135,716
2142,718
2150,725
2158,727
2165,728
2173,731
2180,733
2190,738
2198,730
2206,732
2213,734
2221,748
2229,758
2236,773
2244,786
2251,803
2259,812
2267,821
2397,788
2404,796
2412,794
2420,798
2427,796
2435,801
2443,797
2450,799
2458,801
2466,799
2473,797
2481,791
2488,793
2496,786
2504,784
2511,781
2519,788
2527,792
2534,804
2555,820
2563,820
2570,829
2578,825
2586,829
2593,826
2601,827
2609,831
2616,835
2624,839
2632,839
2639,845
2647,844
2655,852
2662,844
2670,858
2677,950
2685,1135
2693,1235
2700,1136
2708,856
2718,777
2726,786
2733,798
2741,799
2748,804
2756,817
2764,818
2771,825
2901,927
2909,918
2916,903
2924,888
2931,868
2939,853
2947,835
2954,825
2962,811
2970,808
2977,800
2985,799
2993,795
3000,797
3008,802
3015,803
3023,805
3031,802
3038,808
3060,802
3067,799
3075,792
3083,787
3090,781
3098,771
3105,763
3113,756
3121,762
3128,762
3136,771
3144,771
3151,773
3159,773
3167,774
3174,772
3182,767
3190,768
3197,757
3205,760
3212,757
3220,760
3228,756
3235,761
3245,756
3253,754
3261,753
3268,732
3276,781
3283,944
3291,1119
3421,833
3428,835
3436,845
3444,848
3451,857
3459,864
3467,873
3474,881
3482,885
3490,890
3497,884
3505,876
3512,860
3520,852
3528,835
3535,825
3543,808
3564,782
3571,785
3579,783
3587,792
3595,794
3602,804
3610,808
3617,818
3625,824
3633,829
3640,836
3648,837
3656,845
3663,845
3671,850
3679,845
3686,848
3694,844
3701,849
3709,856
3717,863
3724,865
3732,865
3740,867
3747,858
3755,858
3762,850
3772,844
3780,825
3788,824
3795,823
3803,827
3933,830
3941,839
3948,839
3956,842
3964,840
3971,844
3979,838
3987,843
3994,838
4002,843
4010,842
4017,847
4025,852
4032,857
4040,871
4048,875
4069,891
4077,876
4084,860
4092,842
4099,822
4107,807
4115,784
4123,768
4130,745
4138,738
4145,726
4153,723
4161,714
4168,713
4176,714
4184,716
4191,721
4199,723
4206,730
4214,728
4222,736
4229,734
4237,739
4245,731
4252,735
4260,740
4268,745
4275,750
4283,755
4290,761
4300,762
4308,757
4316,746
4323,747
4453,930
4461,723
4468,733
4476,751
4484,767
4491,770
4499,777
4506,788
4514,790
4522,801
4529,798
4537,804
4545,801
4552,807
4573,816
4581,822
4589,839
4596,849
4604,868
4611,878
4619,896
4627,905
4635,914
4642,912
4650,908
4657,899
4665,887
4673,879
4680,862
4688,853
4696,835
4703,830
4711,820
4718,819
4726,817
4734,817
4741,817
4749,821
4757,829
4764,828
4772,835
4780,833
4787,839
4795,836
4802,842
4810,839
4818,838
4825,833
4835,831
4965,848
4973,849
4981,851
4988,836
4996,846
5004,976
5011,1164
5019,1211
5027,1072
5034,797
5042,758
5050,765
5057,777
5078,783
5086,786
5094,781
5101,781
5109,775
5117,772
5124,771
5132,766
5139,768
5147,766
5155,773
5162,777
5170,787
5178,789
5185,802
5193,808
5201,818
5208,822
5216,818
5224,812
5231,801
5239,795
5246,779
5254,772
5262,756
5269,749
5277,736
5285,734
5292,729
5300,731
5308,732
5315,733
5323,741
5330,743
5338,753
5468,817
5478,811
5485,805
5493,795
5501,794
5508,792
5516,788
5523,790
5531,790
5539,796
5546,796
5554,804
5562,780
5582,1177
5590,1174
5598,990
5606,776
5613,767
5621,792
5628,794
5636,805
5644,815
5651,826
5659,829
5667,836
5674,841
5682,845
5690,854
5697,855
5705,861
5712,858
5720,867
5728,871
5735,878
5743,885
5751,898
5758,907
5766,913
5773,919
5781,917
5789,915
5796,903
5804,895
5812,879
5819,870
5827,853
5835,845
5842,833
5850,821
5980,842
5988,852
5995,853
6005,854
6013,839
6021,840
6028,832
6036,830
6044,822
6051,821
6059,814
6066,814
6088,813
6095,803
6103,801
6110,794
6118,797
6126,760
6134,802
6141,978
6149,1147
6156,1116
6164,901
6172,699
6179,696
6187,718
6195,720
6202,721
6210,723
6218,733
6225,739
6233,741
6240,746
6248,745
6256,753
6263,752
6271,761
6279,760
6286,769
6294,772
6301,783
6309,793
6317,805
6324,817
6332,826
6340,837
6347,838
6355,839
6363,828
6493,807
6500,811
6508,812
6515,810
6523,809
6533,798
6541,790
6548,784
6556,793
6564,797
6571,808
6592,816
6600,820
6607,825
6615,825
6623,827
6630,823
6638,831
6646,832
6654,843
6661,842
6669,853
6676,853
6684,860
6692,828
6699,872
6707,1047
6715,1192
6722,1183
6730,965
6737,759
6745,779
6753,807
6760,820
6768,828
6776,831
6783,842
6791,847
6799,847
6806,854
6814,851
6821,858
6829,858
6837,867
6844,865
6852,873
6860,874
6867,880
6875,890
7005,817
7013,810
7020,813
7028,808
7036,813
7043,811
7051,813
7061,810
7069,804
7076,796
7097,786
7105,787
7113,781
7120,787
7128,782
7136,784
7143,780
7151,779
7158,769
7166,765
7174,763
7182,752
7189,749
7197,748
7204,753
7212,748
7220,752
7227,750
7235,755
7243,757
7250,725
7258,779
7265,952
7273,1069
7281,1045
7288,820
7296,651
7304,686
7311,707
7319,729
7327,733
7334,748
7342,760
7349,770
7357,778
7365,778
7372,787
7380,791
7388,802
7518,868
7525,856
7533,845
7540,836
7548,827
7556,826
7563,820
7571,822
7579,818
7602,820
7610,825
7617,836
7625,845
7632,851
7640,859
7648,856
7655,867
7663,866
7671,877
7678,884
7686,893
7693,893
7701,903
7709,904
7717,903
7724,897
7732,892
7739,892
7747,883
7755,886
7762,882
7770,885
7778,881
7785,886
7793,884
7800,888
7808,859
7816,911
7823,1085
7831,1228
7839,1206
7846,978
7854,816
7862,818
7869,836
7877,839
7884,843
7892,848
8,884
16,843
23,823
31,812
39,801
46,790
54,778
61,766
69,759
77,755
84,755
92,756
100,761
111,767
119,749
127,724
134,701
142,674
150,650
157,623
165,602
173,582
180,568
188,548
209,516
217,508
224,502
232,497
240,490
248,495
255,516
263,541
270,570
278,599
286,628
293,652
301,676
309,702
316,730
324,753
331,775
339,797
347,819
354,837
362,857
370,859
377,908
385,1050
393,1197
400,1229
408,1075
415,816
423,829
431,861
438,885
446,904
454,914
461,929
469,940
477,943
484,949
492,950
500,955
507,958
515,962
522,961
530,965
538,969
668,933
676,914
686,892
693,875
714,855
722,860
730,863
737,866
745,872
752,874
760,877
768,886
775,888
783,888
791,889
798,892
806,889
814,884
821,885
829,884
837,884
844,888
852,892
859,891
867,890
875,890
882,887
890,880
898,877
905,872
913,863
921,858
928,856
936,855
943,854
951,852
959,851
966,850
974,848
982,850
989,841
997,837
1004,920
1012,1089
1020,1189
1027,1133
1035,826
1043,733
1050,752
1058,766
1066,777
1073,778
1081,786
1088,795
1096,796
1104,800
1111,802
1121,801
1129,793
1137,790
1144,789
1152,792
1159,794
1167,801
1311,772
1319,765
1326,759
1334,749
1342,744
1349,742
1357,738
1365,737
1372,734
1380,731
1388,727
1395,726
1403,728
1410,725
1418,720
1426,718
1433,719
1441,715
1449,715
1456,715
1464,715
1472,716
1479,714
1487,714
1494,716
1502,716
1510,714
1517,715
1525,720
1533,724
1540,730
1548,736
1556,740
1563,747
1571,748
1578,752
1586,754
1594,750
1601,749
1609,745
1617,748
1624,748
1632,750
1639,751
1649,759
1657,750
1665,747
1795,810
1816,816
1824,822
1831,828
1839,833
1847,840
1854,848
1862,858
1870,867
1877,877
1885,889
1893,900
1900,912
1908,920
1916,931
1923,935
1931,936
1938,931
1946,924
1954,912
1961,899
1969,883
1977,865
1984,848
1992,831
2000,822
2007,818
2015,815
2022,810
2030,812
2038,813
2045,815
2053,817
2061,819
2068,819
2076,818
2084,820
2091,823
2099,826
2106,823
2114,823
2122,827
2129,823
2137,824
2145,822
2152,824
2160,825
2290,844
2300,845
2321,818
2329,814
2336,805
2344,798
2352,800
2359,797
2367,804
2375,799
2382,799
2390,797
2397,793
2405,793
2413,790
2421,788
2428,781
2436,773
2443,769
2451,766
2459,767
2466,771
2474,771
2482,769
2489,770
2497,774
2504,774
2512,766
2520,824
2527,965
2535,1069
2543,1057
2550,819
2558,687
2566,709
2573,726
2581,742
2588,750
2596,754
2604,762
2611,766
2619,772
2627,776
2634,778
2642,780
2650,785
2657,790
2665,796
2795,861
2803,843
2824,804
2831,796
2841,793
2849,787
2857,785
2864,789
2872,797
2879,802
2887,806
2895,812
2902,821
2910,818
2918,824
2925,829
2933,834
2941,836
2948,839
2956,843
2963,846
2971,846
2979,846
2986,848
2994,846
3002,846
3009,845
3017,847
3024,844
3032,842
3040,843
3047,845
3055,848
3063,846
3070,848
3078,846
3086,848
3093,846
3101,847
3108,844
3116,846
3124,846
3131,847
3139,844
3147,844
3154,843
3162,842
3170,842
3177,839
3307,863
3328,846
3336,838
3343,831
3351,821
3358,816
3369,812
3376,795
3384,787
3391,786
3399,764
3407,807
3414,938
3422,1046
3430,1057
3437,856
3445,672
3452,691
3460,707
3468,724
3475,734
3483,738
3491,747
3498,752
3506,755
3514,759
3521,761
3529,764
3536,768
3544,767
3552,774
3559,774
3567,781
3575,787
3582,791
3590,797
3598,808
3605,818
3613,829
3620,841
3628,853
3636,864
3643,871
3651,871
3659,865
3666,858
3674,849
3804,804
3811,806
3832,810
3840,812
3848,816
3855,824
3863,825
3871,827
3878,831
3886,836
3896,837
3904,833
3911,830
3919,832
3926,831
3934,834
3942,840
3949,840
3957,841
3965,846
3972,848
3980,851
3987,855
3995,856
4003,856
4010,855
4018,856
4026,857
4033,857
4041,857
4049,857
4056,854
4064,854
4072,855
4079,856
4087,853
4095,852
4102,852
4110,850
4117,850
4125,850
4133,849
4140,849
4148,849
4156,847
4163,843
4171,842
4178,844
4186,850
4317,859
4338,962
4345,1072
4353,1101
4361,984
4368,735
4376,728
4384,742
4391,756
4399,764
4406,764
4414,764
4424,767
4432,758
4439,752
4447,751
4455,752
4462,752
4470,755
4478,758
4485,760
4493,766
4501,774
4508,779
4516,786
4524,795
4531,803
4539,813
4546,824
4554,840
4562,850
4569,855
4577,855
4585,853
4592,844
4600,836
4607,822
4615,802
4623,784
4630,769
4638,754
4646,745
4653,740
4661,736
4669,733
4676,737
4684,740
4814,802
4821,805
4842,806
4850,806
4858,809
4865,812
4873,820
4881,822
4888,827
4896,830
4903,834
4911,836
4919,839
4926,840
4934,843
4942,846
4949,846
4959,849
4967,840
4974,838
4982,838
4990,840
4997,842
5005,844
5013,846
5020,847
5028,850
5035,854
5043,852
5051,852
5058,852
5066,851
5074,852
5081,853
5089,852
5097,849
5104,849
5112,845
5119,843
5127,845
5135,846
5142,852
5150,856
5158,859
5165,858
5173,856
5181,856
5188,854
5196,850
5325,774
5347,807
5354,806
5362,806
5369,806
5377,801
5385,796
5393,793
5400,790
5408,788
5415,783
5423,783
5431,782
5438,782
5446,784
5454,786
5461,789
5469,793
5476,798
5486,808
5494,813
5502,819
5509,827
5517,833
5525,837
5532,836
5540,832
5547,823
5555,811
5563,792
5570,773
5578,754
5586,743
5593,735
5601,731
5609,729
5616,729
5624,728
5631,732
5639,737
5647,741
5654,743
5662,745
5670,748
5677,752
5685,756
5692,759
5700,762
5830,816
5851,818
5858,819
5866,824
5874,831
5881,835
5889,838
5896,841
5904,844
5912,847
5920,848
5927,849
5935,851
5942,853
5950,854
5958,857
5965,857
5973,857
5981,858
5988,862
5996,862
6003,861
6013,859
6021,851
6029,845
6036,842
6044,837
6052,842
6059,847
6067,857
6074,861
6082,861
6090,864
6097,862
6105,865
6113,863
6120,860
6128,858
6136,853
6143,849
6151,847
6158,848
6166,849
6174,851
6181,855
6189,847
6197,853
6204,919
6334,840
6355,841
6363,837
6370,834
6378,831
6386,829
6393,828
6401,829
6409,834
6416,842
6424,849
6431,855
6439,858
6447,854
6454,847
6462,838
6470,827
6477,810
6485,789
6493,767
6500,747
6508,732
6515,720
6523,715
6531,712
6541,713
6548,705
6556,702
6564,703
6571,706
6579,709
6586,717
6594,723
6602,729
6609,732
6617,734
6625,739
6632,743
6640,749
6648,753
6655,756
6663,760
6670,764
6678,765
6686,765
6693,768
6701,769
6709,773
6838,828
6859,836
6867,836
6875,838
6882,842
6890,846
6898,850
6905,852
6913,857
6920,858
6928,860
6936,861
6943,863
6951,858
6959,859
6966,863
6974,871
6982,878
6989,880
6997,884
7004,882
7012,880
7020,880
7027,875
7035,871
7043,867
7050,860
7058,858
7068,858
7075,851
7083,848
7091,854
7098,845
7106,857
7114,932
7121,1119
7129,1216
7136,1152
7144,891
7152,798
7159,798
7167,805
7175,803
7182,806
7190,811
7198,812
7205,816
7335,916
7343,927
7364,916
7372,903
7379,885
7387,862
7394,837
7402,811
7410,791
7417,772
7425,756
7433,745
7440,739
7448,734
7456,734
7463,733
7471,732
7479,732
7486,733
7494,734
7501,736
7509,736
7517,736
7524,737
7532,736
7540,739
7547,739
7555,741
7563,742
7570,743
7578,746
7585,750
7595,752
7603,746
7611,742
7618,742
7626,743
7634,746
7641,751
7649,754
7656,758
7664,762
7672,764
7679,770
7687,773
7695,774
7702,778
7710,781
7718,784
7847,848
7868,849
7876,848
7883,847
7891,848
7899,844
7906,843
7914,846
7921,851
7929,855
7937,858
7945,864
7952,857
7960,885
7967,976
7975,1149
7983,1183
7990,1062
7998,827
8006,799
8013,814
8021,827
8029,825
8036,826
8044,830
8051,835
8059,840
8067,841
8074,844
8082,847
8090,849
8097,850
8105,851
8112,852
8122,856
8130,850
8138,849
8145,852
8153,859
8161,868
8168,879
8176,892
8183,907
8191,918
8199,924
8206,925
8214,921
8344,817
8352,817
8373,813
8380,811
8388,805
8396,801
8403,796
8411,790
8419,785
8426,782
8434,779
8441,776
8449,770
8457,768
8464,764
8472,761
8480,758
8487,759
8495,758
8503,755
8510,754
8518,755
8525,754
8533,754
8541,757
8548,759
8556,758
8564,757
8571,752
8579,751
8587,756
8594,765
8602,774
8609,778
8617,781
8625,782
8632,784
8640,785
8650,781
8658,772
8665,762
8673,760
8680,762
8688,766
8696,770
8703,772
8711,776
8719,783
8726,781
8856,830
8877,840
8885,843
8892,848
8900,855
8908,860
8915,867
8923,874
8931,883
8938,893
8946,907
8953,920
8961,933
8969,940
8976,941
8984,940
8992,933
8999,921
9007,908
9015,891
9022,871
9030,852
9037,837
9045,824
9053,812
9060,807
9068,802
9076,802
9083,803
9091,804
9099,804
9106,808
9114,809
9121,811
9129,814
9137,816
9144,819
9152,819
9160,820
9167,821
9175,822
9185,819
9192,811
9200,804
9208,804
9215,804
9223,806
9231,808
9360,859
9381,847
9389,836
9397,827
9404,819
9412,813
9420,806
9428,800
9435,795
9443,792
9450,794
9458,781
9466,829
9473,960
9481,1103
9489,1066
9496,842
9504,661
9512,680
9519,712
9527,727
9534,727
9542,733
9550,739
9557,741
9565,745
9573,748
9580,751
9588,756
9595,762
9603,765
9611,770
9618,773
9626,778
9634,782
9641,788
9649,794
9657,803
9664,815
9672,826
9679,840
9687,851
9695,859
9702,864
9712,863
9720,849
9728,835
9857,811
9865,814
9886,817
9894,819
9901,823
9909,828
9916,831
9924,834
9932,837
9940,841
9947,843
9955,843
9962,844
9970,842
9978,838
9985,840
9993,844
10001,847
10008,854
10016,862
10023,865
10031,869
10039,869
10046,869
10054,864
10062,861
10069,857
10077,855
10085,854
10092,853
10100,853
10107,852
10115,851
10123,853
10130,856
10138,858
10146,852
10153,933
10161,1101
10169,1195
10298,866
10306,871
10313,874
10321,874
10329,878
10339,880
10346,879
10354,882
