INICIO:
29/11/2024 10:26:06
Leitura(ECG)
872
790
800
841
895
934
966
969
946
883
821
754
677
683
700
726
745
792
782
716
644
574
520
473
433
403
379
366
348
344
335
341
340
347
348
364
370
389
401
420
431
448
455
469
483
572
677
774
863
940
1010
1056
1093
1117
1148
1168
1182
1147
1151
1333
1609
1614
1615
1340
1038
1023
1079
1111
1128
1137
1146
1150
1155
1170
1163
1164
1156
1158
1157
1164
1173
1192
1208
1225
1233
1235
1227
1207
1163
1084
994
899
826
767
745
733
735
733
742
744
755
757
766
765
770
768
776
777
782
779
780
779
794
767
746
737
737
745
750
756
759
765
767
773
770
776
777
777
771
793
809
819
814
814
798
795
798
798
809
814
800
760
847
1134
1562
1604
1041
605
638
693
740
757
777
788
804
815
826
837
846
857
865
881
894
913
928
953
974
1007
1027
1049
1051
1054
1040
1015
954
873
783
713
657
627
610
607
609
611
620
626
636
639
650
651
660
660
671
672
681
689
688
683
673
665
657
656
650
654
648
651
648
654
650
659
656
665
676
670
648
655
671
703
714
728
731
741
741
743
740
737
733
739
743
728
696
768
1041
1457
1591
992
576
604
672
709
732
744
766
776
794
805
822
832
850
863
881
896
914
935
958
986
1048
1073
1086
1098
1090
1060
993
920
842
785
748
733
730
734
740
745
756
759
773
776
787
787
798
799
809
806
814
810
816
813
818
816
816
814
813
812
812
812
811
811
808
816
811
814
808
815
807
812
823
843
845
849
840
842
836
833
832
806
781
783
779
852
1174
1571
1567
847
549
590
647
680
702
714
735
748
769
776
791
802
818
833
851
868
891
916
940
971
998
1026
1040
1051
1050
1042
1006
949
862
783
708
661
628
619
617
627
633
642
645
656
664
677
687
691
700
706
713
713
721
723
730
731
741
740
744
742
752
761
768
784
795
806
812
837
862
885
886
892
885
887
878
875
861
858
857
861
828
797
921
1260
1607
1599
899
620
675
731
778
794
814
825
859
854
850
851
867
882
907
922
949
966
995
1017
1052
1075
1100
1112
1120
1112
1092
1041
960
868
781
721
681
669
661
675
671
671
661
662
658
658
658
660
660
660
663
662
666
668
674
674
679
678
687
686
696
693
701
701
712
711
718
716
720
730
757
771
775
779
780
781
775
771
762
765
765
769
737
716
833
1164
1578
1555
817
580
625
693
726
748
765
784
797
813
828
839
876
891
922
949
983
1010
1045
1077
1110
1131
1143
1152
1127
1074
1010
929
850
781
735
717
709
712
719
728
736
750
757
766
767
778
780
788
786
794
793
799
798
802
800
801
798
797
796
797
797
797
798
796
799
796
801
794
794
793
816
829
836
833
833
825
823
803
794
787
767
724
711
884
1237
1597
1355
618
529
588
647
674
688
708
720
736
749
765
781
796
813
830
849
870
893
915
946
974
1007
1027
1048
1047
1050
1033
998
922
842
757
697
654
636
628
631
636
646
653
660
677
667
658
664
674
687
698
706
716
723
734
744
758
770
789
796
809
818
827
834
838
844
846
847
851
877
895
903
897
899
891
886
871
864
853
853
848
832
786
857
1143
1551
1609
1110
616
645
703
753
780
797
813
822
840
848
867
874
893
901
919
932
952
966
990
1012
1044
1069
1089
1100
1101
1090
1057
998
765
701
648
627
608
603
599
600
601
608
612
619
624
632
638
642
651
651
662
666
675
675
683
681
691
691
698
696
715
696
687
679
686
695
727
752
770
774
780
782
782
779
774
774
777
782
753
730
852
1190
1593
1583
843
582
630
697
733
758
769
786
799
839
860
878
908
929
957
979
1013
1036
1070
1093
1125
1144
1161
1158
1149
1115
1053
964
875
799
744
717
704
706
709
720
722
731
735
746
748
757
757
768
766
775
772
776
776
782
782
784
782
784
785
788
788
787
787
784
790
787
790
784
806
822
838
834
837
831
815
801
787
778
761
718
741
947
1323
1592
1104
522
527
596
652
679
695
716
730
750
762
781
794
813
827
847
862
887
911
937
965
995
1023
1041
1052
1054
1051
1026
980
902
819
739
688
651
641
633
642
644
655
659
671
677
688
694
700
707
712
720
725
731
734
748
749
767
777
793
802
815
820
827
834
838
844
846
852
847
847
853
880
888
894
885
885
876
874
861
856
845
848
843
824
786
874
1157
1568
1598
974
628
660
725
760
780
790
810
819
838
857
851
840
855
868
892
910
939
958
989
1013
1043
1061
1077
1080
1083
1000
912
821
733
678
636
621
608
610
607
616
615
625
627
636
636
644
648
654
660
667
669
671
677
678
687
689
698
696
701
705
714
712
721
719
727
726
733
731
739
761
786
790
793
793
794
795
789
788
779
781
781
776
734
771
999
1398
1599
1242
595
602
736
760
789
813
842
861
886
900
923
936
958
972
996
1010
1035
1054
1083
1102
1127
1141
1148
1149
1113
1043
965
878
806
748
714
699
698
707
713
719
724
738
743
755
756
769
771
781
776
785
782
788
785
788
785
787
784
786
781
782
782
784
782
773
773
784
806
820
812
796
782
765
751
740
739
731
693
669
817
1168
1576
1442
647
507
563
630
665
691
707
730
743
761
771
787
797
819
833
853
870
893
917
942
974
1002
1028
1040
1051
1047
1034
989
922
832
756
688
654
630
631
630
641
646
656
661
670
679
687
696
702
721
691
708
721
744
759
781
792
808
812
825
829
835
832
847
867
887
892
889
885
881
876
863
855
852
856
847
815
799
967
1313
1608
1516
765
629
682
741
771
786
805
819
836
847
858
869
882
898
909
924
936
958
975
1003
1023
1052
1068
1083
1082
1082
1059
1021
944
735
687
649
631
619
617
611
618
618
624
624
635
637
648
651
659
660
667
667
672
676
681
685
689
697
699
706
706
711
703
716
737
763
768
772
768
776
768
773
743
731
728
735
706
719
891
1256
1596
1378
671
599
661
720
747
767
785
798
816
830
850
860
900
917
949
975
1004
1033
1064
1095
1119
1133
1134
1136
1120
1094
1029
952
867
806
755
733
722
727
725
736
741
752
758
767
771
776
780
783
788
787
791
788
792
789
792
789
794
791
795
791
795
789
794
786
784
791
813
828
836
829
827
824
813
805
793
791
789
744
831
1125
1520
1547
826
521
567
624
661
677
695
707
722
734
770
766
759
769
790
810
840
863
897
922
958
982
1011
1027
1038
1034
1024
981
919
837
763
696
659
638
635
636
644
653
658
669
673
684
689
698
702
713
713
724
723
730
731
742
741
746
747
754
760
759
775
802
837
852
865
864
874
868
868
858
859
856
863
841
809
884
1175
1572
1609
1078
627
673
726
782
803
825
836
854
865
880
887
903
910
927
936
957
973
996
1016
1040
1061
1084
1098
1104
1102
1082
1048
979
896
810
743
696
658
633
639
645
660
666
681
706
714
712
708
704
703
703
702
701
696
695
695
698
696
704
703
709
700
708
723
748
756
759
754
755
746
743
733
729
730
734
720
680
739
998
1415
1592
1034
549
583
638
692
709
731
744
767
779
800
812
830
840
858
872
891
909
931
957
983
1012
1034
1055
1054
1041
1001
941
864
801
751
726
715
717
723
730
741
750
760
764
775
776
786
787
796
796
804
803
807
805
811
810
813
809
815
813
830
800
778
773
794
816
835
838
840
840
835
832
823
818
817
821
805
773
812
1054
1442
1605
1141
619
627
695
738
761
773
811
820
822
827
824
834
839
853
861
880
896
924
944
972
988
1002
1004
1001
984
942
873
792
719
661
628
610
610
605
617
620
636
639
653
655
668
671
680
680
691
694
704
705
712
716
719
721
726
734
737
741
741
746
743
746
752
782
800
812
807
811
804
797
799
807
822
814
786
848
1125
1525
1609
927
632
662
729
770
802
824
851
863
883
897
914
925
941
955
975
989
1004
1024
1045
1069
1088
1109
1118
1124
1117
1107
1064
1000
912
831
758
716
688
684
680
689
690
699
705
712
718
723
729
735
743
746
753
756
761
759
765
754
749
736
730
722
715
703
708
725
739
744
736
733
727
726
719
716
711
721
714
687
666
818
1166
1574
1411
639
522
589
652
690
710
730
746
763
779
793
811
823
843
857
879
896
923
942
970
995
1026
1059
1053
1032
1027
1002
960
885
812
741
697
667
659
669
679
700
716
740
753
773
782
800
804
814
819
827
830
835
834
836
835
833
833
831
833
830
827
820
835
852
871
870
870
860
859
847
841
827
829
827
826
782
801
1004
1380
1606
1320
647
619
679
735
761
776
795
803
819
829
848
853
868
877
897
909
928
985
1001
1017
1020
1023
1013
1005
981
936
861
783
702
650
606
589
581
584
586
594
599
612
618
625
635
644
652
673
658
645
650
659
670
679
691
696
711
713
726
729
738
742
750
745
756
774
803
811
815
812
815
810
806
796
792
793
794
778
742
819
1088
1496
617
614
683
750
778
805
828
850
870
887
903
915
929
940
959
971
990
1005
1025
1041
1069
1086
1108
1111
1115
1105
1086
1036
967
888
819
765
733
719
713
719
719
728
731
744
747
758
758
767
766
773
769
775
773
779
778
778
777
779
778
782
783
783
785
786
788
779
793
801
807
803
777
741
731
719
721
717
722
723
715
680
740
1002
1402
1584
993
524
565
630
680
708
725
744
756
774
785
807
811
831
838
860
874
897
915
941
967
994
1016
1036
1047
1049
1043
1015
961
877
797
722
679
647
642
638
648
652
664
669
682
685
706
721
735
754
764
781
788
799
802
812
813
819
821
831
832
834
833
834
830
827
842
865
877
875
873
868
866
853
849
835
838
834
827
781
813
1042
1440
1610
1269
621
626
681
761
761
765
776
797
814
835
850
866
880
893
911
927
948
966
994
1019
1049
1069
1094
1077
1043
975
888
795
715
659
622
606
596
600
600
605
606
618
619
630
634
645
647
658
661
673
676
683
683
690
692
697
702
706
711
716
719
722
732
730
731
737
768
788
802
797
803
799
797
790
785
784
788
790
763
736
864
1194
1595
1529
774
591
642
756
777
804
826
852
872
892
909
927
942
957
977
995
1015
1036
1063
1084
1112
1126
1136
1136
1103
1042
974
892
824
764
730
711
711
711
722
725
736
741
751
755
766
771
777
783
783
785
787
792
791
798
793
795
787
791
787
789
784
787
779
780
778
782
776
781
829
819
808
793
783
764
753
735
732
727
718
673
707
922
1310
1575
1093
539
549
613
663
684
699
717
729
747
760
778
787
807
817
840
855
881
897
927
951
984
1004
1024
1032
1035
1027
1009
963
893
816
747
695
661
651
647
656
657
667
674
686
692
705
720
712
697
716
733
752
769
787
802
810
821
829
838
841
851
852
859
855
861
859
861
855
876
894
900
896
895
884
882
869
857
846
843
846
833
796
840
1087
1476
1606
1190
638
644
708
756
781
793
811
821
838
845
861
872
886
897
911
923
941
960
979
1003
1025
1051
1070
1062
1030
981
902
814
726
665
622
602
593
589
594
600
610
613
626
630
641
646
657
658
666
664
674
673
683
686
694
694
700
704
708
712
716
721
722
733
712
707
728
753
767
772
775
785
780
781
773
782
780
785
752
750
905
1260
1604
1480
698
581
643
758
786
809
837
855
879
892
911
925
948
963
983
1000
1023
1045
1071
1096
1117
1132
1138
1135
1118
1085
1015
929
840
775
726
707
695
704
702
711
713
725
728
737
743
751
755
765
768
772
773
776
780
776
781
779
780
779
784
777
783
780
784
775
783
798
821
828
822
813
792
777
754
753
743
730
681
722
954
1355
1592
1056
517
557
599
641
658
685
703
727
746
766
779
799
815
832
851
872
896
919
946
969
1002
1024
1039
1043
1046
1032
1003
934
856
772
714
666
646
638
642
647
657
663
671
681
691
698
704
714
717
726
726
743
748
764
777
793
804
814
820
824
831
835
838
833
846
865
887
886
890
883
884
870
867
851
851
847
847
813
806
959
1300
1608
1475
750
642
701
762
784
797
815
825
842
851
868
874
889
895
912
922
944
960
983
1005
1030
1067
1067
1051
1050
1042
1026
978
911
732
687
667
650
649
642
646
644
653
659
664
663
673
673
681
685
686
689
692
696
694
698
695
702
701
708
707
715
715
720
716
722
737
765
777
783
777
777
773
769
764
762
762
759
754
719
740
943
1320
1603
1267
598
582
641
706
725
749
760
782
795
812
848
868
894
915
946
972
1007
1030
1065
1089
1117
1125
1130
1127
1112
1065
998
910
832
770
728
710
704
708
709
718
724
737
740
761
744
734
734
745
751
763
768
776
773
784
780
786
785
789
786
792
791
792
788
798
818
835
839
834
830
825
821
807
801
794
797
741
860
1174
1568
1518
740
513
568
627
662
682
693
711
723
741
751
767
776
794
808
831
845
870
894
925
953
985
1008
1025
1030
1026
1012
969
901
813
740
676
641
621
622
622
633
638
647
649
661
665
680
687
699
706
713
722
725
732
739
743
746
753
752
758
761
768
775
798
828
854
868
873
887
871
844
835
831
838
845
840
806
830
1052
1435
1611
1347
700
672
734
786
810
822
840
852
868
876
890
901
914
923
933
946
957
975
996
1024
1045
1069
1080
1093
1086
1082
1050
991
902
822
753
712
677
668
662
670
672
673
678
701
708
700
699
689
688
677
683
683
688
679
681
678
680
681
684
683
686
687
686
688
697
728
747
757
748
754
753
757
746
741
742
754
739
703
742
985
1373
1602
1142
563
584
646
695
716
744
756
784
783
782
786
809
827
853
868
895
915
954
978
1011
1032
1084
1093
1092
1079
1032
960
879
813
760
740
725
732
732
747
752
761
760
772
776
786
786
795
796
796
800
804
804
805
803
798
802
802
807
803
811
806
803
796
818
829
843
838
830
828
831
820
809
802
802
804
782
746
826
1120
1540
1599
950
579
620
689
727
786
795
801
804
805
809
813
823
832
851
868
891
912
941
964
996
1011
1026
1024
1021
986
932
848
764
681
624
578
574
582
593
600
618
631
644
658
672
683
690
699
708
718
723
733
736
747
745
750
752
762
760
766
765
769
766
769
780
803
816
815
815
814
804
796
809
816
830
805
789
923
1259
1609
1575
844
658
712
774
800
819
837
852
870
880
894
899
916
921
939
953
972
986
1011
1032
1056
1076
1096
1103
1107
1101
1081
1031
955
870
791
728
688
677
668
673
676
685
689
704
707
716
714
726
726
735
740
748
751
754
762
753
752
724
699
688
689
687
695
691
698
700
727
747
758
755
758
754
754
747
739
736
742
743
726
696
775
1061
1496
1564
887
567
613
682
707
728
740
761
771
789
800
821
829
848
856
876
892
911
933
960
989
1011
1036
1050
1060
1058
1046
1008
953
869
793
670
663
671
683
699
711
725
739
756
765
779
784
797
796
808
809
818
816
827
825
827
823
826
827
825
824
826
826
823
824
823
843
857
866
859
863
854
852
839
831
816
829
804
760
737
886
1232
1602
1544
769
580
651
709
756
774
797
811
826
845
857
869
905
919
921
935
941
964
982
1009
1023
1034
1034
1031
1014
971
895
806
722
652
613
590
587
586
593
592
603
606
618
623
638
647
660
664
674
680
688
692
698
701
706
712
715
720
719
726
726
731
729
735
748
777
784
791
790
792
785
786
774
773
771
777
768
904
1291
1609
1505
706
609
674
746
785
817
837
855
869
887
899
912
925
937
954
986
981
983
1004
1035
1068
1097
1122
1133
1142
1126
1095
1025
942
846
777
724
699
685
694
694
701
701
714
721
729
736
739
741
745
754
756
758
757
761
761
767
764
769
765
772
771
768
773
780
789
784
775
762
757
744
737
718
719
718
720
682
671
820
1180
1586
1470
645
501
563
630
668
692
714
731
749
761
782
798
815
831
856
871
896
913
942
970
1005
1029
1055
1066
1074
1068
1050
994
913
821
741
680
648
635
631
640
641
660
646
637
643
681
695
724
742
764
776
793
801
810
818
828
837
841
844
846
849
844
844
853
883
895
903
894
892
881
875
859
852
844
848
837
794
798
1008
1400
1611
1473
707
627
672
737
761
785
797
816
826
846
856
871
881
903
913
931
944
961
980
1011
1037
1066
1086
1094
1071
1016
932
826
739
666
627
597
591
582
588
587
596
604
610
618
624
633
639
652
659
667
666
676
675
683
682
694
694
699
702
711
711
713
712
742
741
745
747
755
756
762
761
760
757
765
773
769
731
735
944
1331
1607
1393
647
589
653
716
745
760
783
821
839
861
880
905
926
953
972
998
1018
1050
1075
1105
1123
1142
1141
1142
1124
1079
1000
912
829
764
724
707
701
703
708
712
722
728
741
743
751
751
763
763
768
770
777
772
774
772
777
776
777
777
780
777
781
786
779
777
794
817
824
828
820
825
815
812
793
793
769
715
723
919
1293
1595
1241
520
510
576
663
665
669
682
708
724
747
762
785
803
827
841
868
893
925
949
984
1012
1038
1056
1069
1070
1059
1029
961
873
782
717
665
646
633
634
634
646
647
659
664
678
681
688
694
706
712
725
729
732
735
740
744
738
749
766
794
812
838
849
860
861
860
857
853
845
842
845
843
825
786
885
1196
1596
1609
1031
596
647
707
766
786
813
828
848
859
874
885
899
911
924
940
960
979
996
1024
1047
1074
1088
1106
1105
1106
1081
1037
935
830
730
678
648
645
644
658
661
672
677
713
719
713
716
710
711
705
709
702
706
701
705
701
706
706
716
715
715
706
713
736
755
765
762
764
761
759
751
749
746
755
749
721
695
842
1186
1597
1543
747
532
599
662
702
726
748
767
783
797
812
830
840
859
874
897
912
940
959
988
1011
1042
1057
1082
1073
1044
989
909
835
769
732
713
714
710
722
726
740
749
760
766
777
777
782
787
792
794
796
798
794
794
792
804
783
764
758
766
765
768
775
804
822
837
830
834
828
830
820
814
804
811
806
777
742
870
1208
1602
1588
833
584
631
699
735
758
773
816
818
825
825
830
833
842
853
869
888
908
936
961
987
998
1009
1007
998
961
900
811
735
666
623
596
592
589
597
602
610
620
629
638
647
656
663
674
677
686
689
697
699
710
712
718
717
725
724
735
739
743
739
747
768
791
800
800
800
799
797
791
786
791
792
758
821
1082
1502
1608
966
608
655
728
779
806
831
852
871
888
903
920
930
949
961
978
989
1010
1026
1051
1070
1095
1108
1126
1126
1122
1101
1062
993
908
822
756
713
694
689
686
693
700
711
716
729
733
740
743
750
748
758
758
763
760
763
760
764
768
760
753
743
736
723
718
717
739
749
755
745
745
742
734
724
718
717
721
714
678
686
882
1261
1596
1266
574
549
610
673
688
712
723
745
759
779
790
809
821
839
855
874
892
917
945
989
991
998
1013
1028
1033
1027
1005
951
878
801
739
695
675
660
663
676
690
708
729
751
763
779
787
801
807
817
818
824
820
826
824
828
824
827
822
824
823
826
821
821
835
855
867
866
858
853
849
837
829
816
819
816
806
762
804
1040
1444
1606
1190
625
634
693
747
760
780
795
810
821
832
846
858
874
884
902
914
935
994
1012
1025
1034
1029
1022
1010
983
932
858
774
700
646
610
600
591
598
600
610
615
631
637
646
667
659
643
651
659
671
676
690
695
709
715
724
728
737
742
746
747
756
783
799
812
808
809
806
805
796
792
788
790
780
749
737
908
1268
1605
1474
689
579
726
754
780
812
832
860
880
903
915
936
952
968
981
1004
1027
1053
1080
1104
1125
1134
1141
1130
1114
1064
989
895
817
747
713
690
690
686
698
703
709
711
721
727
734
740
747
751
755
761
763
769
771
774
768
775
773
778
775
775
767
780
793
813
817
815
809
773
754
747
742
731
695
673
829
1180
1587
1438
653
521
581
642
673
686
705
718
735
747
768
783
798
813
832
851
867
890
915
946
970
999
1013
1033
1032
1030
1005
960
883
807
732
679
644
634
630
635
640
651
660
668
677
684
694
697
705
708
717
717
725
725
735
740
754
775
795
802
804
815
838
866
873
878
874
875
865
860
846
849
846
847
817
794
907
1228
1604
1582
874
639
681
748
776
791
811
821
837
848
866
874
891
897
924
915
916
926
956
980
1012
1032
1053
1060
1068
1057
1039
988
919
839
775
726
698
686
687
704
695
698
699
699
690
689
682
682
682
689
683
683
689
691
690
687
690
688
698
695
697
697
721
742
759
756
760
760
761
752
745
739
748
751
731
696
780
1070
1488
1572
921
573
616
684
716
735
749
770
782
798
811
829
840
859
870
894
910
934
954
981
1041
1057
1080
1091
1095
1073
1023
948
871
805
764
740
736
735
739
746
757
769
760
746
753
759
767
774
785
792
796
799
800
805
801
809
807
812
816
831
838
854
854
858
851
849
841
835
818
815
810
803
767
768
955
1326
1609
1416
664
599
656
711
738
750
771
810
819
821
827
833
837
850
860
879
897
921
941
968
985
1000
995
992
963
919
839
762
686
633
601
590
586
588
590
595
609
615
628
633
645
646
654
657
670
671
684
683
693
694
697
695
707
718
716
717
727
748
769
773
779
791
790
788
793
765
744
747
700
834
1166
1592
1572
873
650
708
775
806
829
846
860
876
892
901
918
929
943
951
967
980
1001
1016
1041
1062
1085
1092
1102
1098
1095
1071
1031
960
882
808
750
716
701
699
695
704
707
723
726
730
730
741
743
750
751
753
750
754
752
759
758
761
765
770
768
773
799
805
806
784
769
752
739
727
722
717
719
713
676
692
892
1267
1562
1150
563
560
623
672
687
711
720
743
752
767
779
798
811
829
844
883
876
884
902
934
965
993
1009
1022
1025
1018
989
933
859
787
736
700
684
671
678
681
693
696
710
717
728
729
740
753
759
775
786
787
798
815
809
825
837
856
857
855
867
873
868
863
850
838
828
827
830
810
785
882
1184
1574
1576
916
649
690
753
778
798
805
824
829
845
858
871
879
894
902
917
932
946
962
985
1009
1028
1044
1045
1046
1043
1033
986
917
836
773
720
680
672
665
664
663
663
656
660
662
668
666
672
680
667
647
653
658
666
675
699
716
733
733
745
743
745
742
750
744
743
743
748
730
701
798
1099
1510
1518
827
576
630
692
723
730
750
758
776
787
805
817
834
845
863
880
900
919
942
967
991
1014
1030
1050
1034
1012
959
895
828
783
756
742
743
747
750
757
767
773
784
787
796
792
800
802
807
803
810
813
817
813
824
829
843
842
844
837
834
829
820
809
803
805
804
786
736
827
1142
1563
1597
920
567
623
676
727
756
756
751
767
780
808
825
846
862
882
944
961
978
996
1015
1022
1028
1022
1017
985
936
853
774
697
649
617
606
601
603
605
612
622
630
641
650
658
663
669
673
681
680
687
689
697
705
722
731
744
741
750
744
746
741
737
730
733
736
733
700
714
930
1309
1598
1279
550
543
612
673
712
730
755
797
820
843
868
892
913
940
960
990
1017
1049
1072
1096
1105
1120
1114
1108
1073
1010
925
846
774
732
713
705
707
711
715
733
720
711
715
725
738
750
761
759
768
779
790
794
800
790
786
785
817
837
849
836
828
821
821
815
807
807
807
797
760
781
994
1370
700
543
602
658
687
711
723
735
742
756
765
776
787
800
819
832
854
873
905
926
956
977
998
1005
1011
1000
974
919
847
764
704
654
628
616
616
621
627
638
647
659
667
681
687
696
695
705
711
726
722
727
727
735
731
735
731
752
778
794
800
796
794
778
782
789
806
809
794
802
1092
1460
1609
1209
587
623
699
762
804
832
855
874
894
909
917
931
938
955
968
984
997
1022
1040
1068
1084
1105
1108
1116
1105
1088
1045
983
896
815
754
717
696
694
694
697
709
712
722
729
736
740
747
747
756
754
759
758
762
758
765
762
752
742
728
721
723
746
755
757
744
742
735
731
718
718
717
722
710
675
714
953
1342
1599
1088
478
528
594
658
690
719
733
757
769
789
798
816
831
851
863
884
902
930
954
982
1022
1025
1015
1021
1017
1007
975
913
836
766
714
678
666
660
666
672
697
711
730
747
766
780
791
802
811
822
826
829
828
832
826
833
828
833
826
828
818
831
852
873
873
868
860
854
845
835
826
822
824
810
773
818
1068
1459
1609
1149
564
603
671
724
759
777
797
808
827
837
854
868
883
895
911
928
947
968
985
1011
1032
1069
1055
1041
998
935
849
765
688
637
607
590
584
585
591
598
608
614
627
631
642
644
657
661
685
667
654
651
664
666
681
687
697
699
705
705
712
728
760
782
791
791
794
793
786
784
779
784
784
778
739
800
1048
1448
1603
1057
538
593
654
717
741
767
808
826
853
872
896
916
943
960
988
1008
1036
1055
1085
1103
1118
1120
1119
1106
1081
1030
955
878
808
761
729
720
713
722
722
736
739
749
751
762
764
772
774
778
777
779
776
780
779
781
783
781
785
787
789
784
790
803
828
837
840
832
833
821
817
803
802
759
727
822
1113
1501
1488
746
512
581
648
691
708
728
739
755
764
784
794
813
825
844
859
882
900
925
948
973
994
1009
1015
1011
1006
989
954
888
814
742
697
662
652
642
651
651
662
670
685
688
702
706
712
714
723
725
732
736
737
743
744
749
748
755
754
765
791
823
843
854
857
858
857
854
851
847
855
853
836
818
955
1281
1606
1557
795
592
670
731
778
799
822
833
849
862
876
887
896
911
924
939
948
968
987
1013
1049
1047
1035
1040
1037
1037
1010
960
884
816
750
714
686
679
679
689
689
698
705
715
720
736
742
729
727
718
718
708
706
699
700
698
696
686
690
705
728
738
738
737
732
728
724
721
716
724
721
699
696
872
1212
1568
1342
564
486
577
638
690
717
739
757
775
789
805
823
838
851
866
892
909
935
955
987
1008
1030
1040
1052
1045
1038
1005
952
873
702
679
671
680
689
709
721
737
746
766
772
786
791
801
804
813
820
807
785
787
788
800
798
799
801
823
847
860
861
855
852
845
840
832
833
828
831
805
786
903
1229
1597
1573
804
565
633
698
744
777
792
805
818
835
849
860
876
885
897
908
932
947
1013
1030
1039
1036
1029
1013
988
938
861
778
704
649
610
597
590
594
597
606
607
622
628
641
645
656
662
674
678
687
690
697
703
705
709
713
720
718
719
718
742
762
778
778
780
777
778
770
770
767
771
768
754
727
831
1134
1536
1574
667
526
581
648
699
774
796
830
856
885
904
935
953
977
996
1022
1042
1067
1092
1117
1132
1139
1140
1134
1116
1064
987
897
824
761
731
712
714
712
723
726
738
742
753
754
762
765
772
774
779
779
781
782
781
783
780
783
779
785
784
788
779
778
779
802
816
830
826
826
822
816
801
793
787
754
717
796
1089
1485
1556
808
478
542
607
656
687
704
719
734
751
765
779
796
808
826
844
866
885
912
934
970
991
1014
1020
1036
1007
967
909
842
764
708
661
639
628
634
638
649
659
669
679
691
699
706
714
721
731
734
745
747
754
751
756
755
762
772
784
795
805
816
816
819
827
860
879
889
880
881
873
871
859
853
846
852
846
810
796
965
1324
1608
1511
726
611
667
735
770
792
807
826
839
856
864
878
885
904
916
935
947
969
988
1013
1035
1055
1068
1078
1077
1064
1037
983
907
823
756
704
681
668
669
664
662
659
661
662
665
666
666
679
664
645
642
649
656
666
671
682
687
696
699
707
710
720
723
732
727
733
736
762
784
795
795
796
793
791
785
777
774
775
778
756
726
826
1140
1557
1580
844
552
607
679
722
749
765
785
797
815
829
845
858
900
926
952
988
1015
1053
1081
1109
1121
1134
1131
1118
1083
1023
941
863
799
752
730
720
721
723
731
738
752
755
766
769
779
779
786
783
788
786
793
792
794
792
796
794
796
795
797
799
798
801
800
801
796
810
789
767
776
805
817
824
823
828
826
825
815
813
807
773
730
826
1127
1536
1537
780
516
568
641
679
705
714
732
738
753
766
784
792
808
822
841
859
882
905
931
959
982
1004
1014
1022
1016
1005
964
902
822
751
687
655
633
632
628
635
643
655
664
673
683
694
701
708
713
720
726
729
737
738
746
744
753
759
772
783
796
805
814
824
829
831
830
851
874
891
890
891
883
882
867
864
851
852
848
846
808
814
997
1360
1607
1142
598
623
691
749
776
800
818
836
852
865
880
891
907
917
936
949
967
982
1008
1028
1054
1068
1080
1081
1079
1057
1024
962
884
806
742
669
653
650
641
642
638
642
642
647
650
655
655
663
666
670
673
675
677
679
686
685
691
694
701
702
710
712
720
722
725
720
740
761
781
781
784
781
782
777
770
767
768
775
770
739
753
949
1308
1596
1241
603
587
663
723
750
763
781
791
809
823
838
874
887
917
939
972
1018
1031
1036
1060
1078
1098
1102
1102
1075
1033
961
888
819
773
747
738
736
737
741
744
753
763
770
772
783
785
792
792
797
797
800
796
799
795
796
792
796
793
793
793
796
790
787
794
810
829
833
832
825
826
817
809
791
794
793
793
860
1160
1533
1547
806
491
565
624
675
692
709
718
740
748
765
777
798
809
828
843
866
887
914
938
969
996
1017
1030
1036
1033
1010
966
886
806
729
678
642
632
624
631
634
647
650
675
658
651
655
672
679
696
706
718
724
734
739
746
749
752
757
758
767
798
817
829
844
847
857
856
856
850
852
857
852
821
853
1070
1433
1610
1329
626
614
686
749
789
810
833
846
862
872
886
896
913
920
934
948
966
988
1009
1038
1060
1080
1091
1101
1092
1079
1033
966
875
797
728
693
668
665
662
673
677
683
686
694
700
709
714
726
728
717
716
705
704
692
690
686
684
686
685
682
679
692
719
737
742
740
738
740
743
718
696
699
703
697
670
769
1056
1473
1580
895
493
568
632
694
721
748
762
785
800
819
835
851
869
884
904
920
942
961
990
1015
1041
1056
1074
1075
1073
1045
1003
923
719
686
672
676
683
701
713
728
736
754
760
775
779
790
795
805
808
814
812
816
817
820
821
818
820
818
820
814
811
815
837
851
859
851
851
845
839
828
822
816
823
817
781
768
940
1301
1608
1505
706
591
642
712
743
764
779
798
809
829
840
855
880
881
895
915
931
955
977
998
1015
1023
1024
1013
985
925
841
752
686
636
613
599
602
602
612
617
629
635
647
652
662
670
681
681
686
690
698
705
707
713
712
714
712
718
720
728
730
731
725
737
754
783
789
792
790
795
789
787
780
778
779
779
748
733
1523
1599
973
585
644
712
774
799
821
842
859
876
890
907
919
933
947
966
978
1001
1017
1044
1064
1090
1102
1114
1114
1114
1091
1048
971
889
812
757
722
705
699
714
697
685
688
699
710
722
733
741
752
758
765
765
775
773
778
777
782
778
783
779
787
785
794
790
795
809
806
800
783
773
761
755
737
730
725
730
712
674
714
963
1358
1586
1041
499
537
606
667
692
718
732
751
765
784
795
815
824
846
859
883
899
927
950
982
1007
1033
1044
1052
1048
1035
998
928
844
762
707
666
651
644
651
654
666
668
681
686
700
717
726
744
759
775
784
797
805
813
812
824
824
829
827
835
843
824
807
828
845
861
861
864
861
861
855
850
850
855
847
815
829
1031
1398
1610
1391
621
593
666
734
773
804
816
835
847
861
865
879
891
905
916
934
950
971
993
1015
1042
1064
1079
1084
1088
988
905
805
723
660
626
608
600
596
597
603
606
617
622
633
639
647
650
662
662
672
677
687
682
689
692
701
702
707
709
711
708
711
730
751
763
765
765
762
764
759
757
745
755
758
748
718
826
1124
1525
1575
863
489
574
667
702
709
734
752
779
799
856
885
910
942
967
1003
1031
1069
1095
1128
1145
1162
1164
1158
1131
1085
1002
915
835
775
738
719
717
714
720
724
735
737
748
751
764
763
772
773
782
783
789
786
786
786
787
784
783
784
782
783
782
781
775
784
800
820
824
827
818
820
810
807
792
792
791
745
823
1100
1500
1588
935
476
539
596
656
677
700
712
731
744
765
774
792
805
825
842
865
887
912
939
965
994
1015
1033
1038
1038
1018
942
841
755
682
641
615
615
612
625
629
645
653
667
674
689
697
709
714
726
730
737
742
749
754
758
760
760
765
762
768
772
789
797
806
806
827
854
875
885
884
886
881
877
867
863
856
861
853
821
795
965
1322
1611
1573
800
612
670
734
775
797
816
834
847
859
869
883
894
910
919
939
952
974
991
1023
1045
1074
1084
1095
1093
1088
1058
1002
918
834
757
703
671
658
655
656
681
680
684
678
681
675
676
671
687
662
644
638
647
652
662
669
678
682
688
696
701
708
713
722
724
733
729
737
753
781
787
795
789
796
790
788
778
774
770
773
763
724
745
955
1337
1605
1287
603
578
641
705
726
749
762
783
796
815
826
844
856
877
924
950
988
1019
1056
1081
1110
1121
1133
1126
1113
1063
992
906
835
773
740
725
724
727
732
739
745
756
762
772
773
780
781
789
788
796
793
801
797
803
798
796
793
798
795
797
796
800
801
799
797
805
785
766
762
769
795
815
824
826
828
822
821
814
813
802
799
760
729
861
1204
1590
1515
729
530
586
644
686
701
721
728
742
753
767
767
787
805
829
842
874
896
917
934
962
996
1028
1044
1059
1050
1018
972
891
811
733
679
640
634
620
626
637
643
641
654
663
671
678
687
685
687
697
708
719
725
729
724
744
739
748
762
781
788
800
806
813
820
821
844
867
881
884
890
880
884
874
866
850
858
859
853
796
817
1037
1562
1610
1126
597
621
677
740
766
793
811
832
863
877
877
890
911
925
944
956
984
997
1030
1055
1074
1087
1106
1114
1108
1083
1041
967
880
786
718
673
640
647
639
640
628
633
633
638
628
640
644
646
648
652
655
664
665
664
669
680
682
673
684
686
697
701
703
697
711
724
751
757
764
759
761
756
753
750
753
756
757
743
697
772
1063
1491
1602
1028
564
598
661
716
730
755
770
793
806
826
838
854
871
916
934
966
1032
1047
1064
1088
1116
1126
1137
1127
1092
1019
942
856
793
748
738
731
741
741
747
757
768
770
773
782
788
796
797
801
800
807
802
805
802
808
804
807
800
803
796
799
798
802
800
795
792
809
834
843
833
831
831
823
822
812
808
802
799
784
906
1252
1597
1452
700
560
611
667
677
690
701
717
725
745
754
773
781
798
814
834
853
885
908
935
964
998
1016
1027
1030
1024
1003
954
887
804
732
674
648
634
633
635
649
663
650
640
650
658
676
683
695
703
719
723
731
736
744
748
752
755
760
769
774
780
784
796
803
826
854
883
890
892
892
885
882
876
865
855
862
859
822
790
933
1269
1609
1591
891
655
700
752
780
791
808
823
842
851
863
874
887
902
916
933
945
966
984
1007
1027
1058
1075
1084
1085
1086
1057
1010
925
843
763
711
679
670
664
669
674
681
706
702
702
691
689
685
684
680
681
682
680
682
685

FIM:
29/11/2024 10:27:06
