INICIO:
29/11/2024 10:27:06
Leitura(ECG)
570
471
450
488
528
573
612
648
671
695
712
726
732
743
755
768
755
767
937
1244
1536
1150
353
258
272
300
302
302
307
313
323
333
357
371
395
418
452
480
518
557
603
641
689
715
806
1072
1128
1153
1135
1103
1058
1039
1030
1046
1061
1085
1095
1111
1115
1124
1126
1128
1128
1135
1134
1133
1129
1124
1120
1112
1107
1097
1088
1077
1077
1065
1062
1053
1051
1035
1028
1030
1045
1043
1041
1026
1023
1009
999
980
965
962
956
941
890
911
1127
1512
1613
1487
777
705
749
813
828
847
881
884
885
885
892
872
853
859
876
897
921
949
979
1004
1026
1032
1035
1019
987
911
827
739
674
625
606
594
593
592
597
599
606
611
617
622
624
629
631
640
643
650
647
653
653
660
659
664
662
669
669
678
681
681
674
682
701
726
739
737
737
737
738
719
729
740
746
709
734
950
1347
1609
1349
659
614
674
733
758
775
795
806
825
838
858
865
880
887
908
919
938
957
984
1006
1032
1053
1070
1074
1069
1056
1025
964
876
797
727
684
665
642
624
630
638
652
662
677
687
701
706
720
720
731
732
740
741
747
745
754
752
740
736
725
721
710
712
702
701
697
719
733
748
743
743
741
735
727
722
720
722
725
707
670
743
1036
1453
1583
935
540
578
648
689
713
724
746
762
780
799
816
826
846
874
904
903
914
944
972
1006
1030
1058
1068
1076
1069
1058
1014
945
856
781
717
656
662
676
697
715
732
744
762
769
783
785
798
802
815
814
819
820
824
824
828
835
814
797
795
799
806
807
806
810
822
840
861
876
877
879
867
848
831
833
834
842
827
783
771
958
1331
1608
1395
628
576
640
702
733
755
774
789
804
819
831
849
865
911
922
930
941
966
986
999
1015
1033
1036
1026
998
943
864
768
691
628
602
586
589
587
603
605
614
619
625
627
646
656
664
669
675
682
689
697
706
717
716
726
715
723
733
748
742
749
759
757
768
797
801
806
804
808
799
796
809
798
790
790
784
748
1291
1609
1415
660
608
682
760
805
842
854
876
901
919
928
947
961
973
985
995
1017
1034
1053
1073
1103
1122
1148
1149
1146
1131
1099
1024
944
854
781
730
709
691
682
688
698
709
708
712
724
733
731
737
748
760
755
759
756
760
754
756
758
764
763
767
761
767
766
756
751
749
762
770
774
761
758
745
743
732
725
720
722
719
683
668
837
1206
1593
1402
615
522
579
643
676
708
723
740
756
779
790
808
825
847
858
893
890
900
925
960
994
1026
1051
1065
1066
1055
1034
974
886
801
728
681
667
658
658
654
667
671
684
705
717
732
746
760
767
780
796
804
804
815
814
819
820
824
821
828
827
826
827
830
819
821
842
865
874
869
863
861
854
848
839
829
832
828
815
763
825
1085
1496
1606
1134
606
628
686
748
767
782
798
819
833
843
858
872
884
894
906
918
939
957
986
1065
1078
1071
1057
1029
992
926
836
754
683
637
605
596
582
598
583
574
575
592
605
623
633
648
656
670
672
686
691
699
698
707
713
722
727
731
735
739
741
744
750
746
752
777
803
803
807
804
808
794
792
779
785
785
792
761
729
831
1149
1557
1586
895
676
745
762
794
817
845
863
886
899
919
930
948
964
982
1000
1021
1044
1070
1096
1117
1133
1136
1135
1116
1082
1007
922
831
768
721
705
695
700
702
709
712
722
728
736
742
747
753
757
764
762
767
765
768
764
769
764
769
764
777
757
745
736
741
751
778
797
819
813
798
784
761
752
748
750
719
686
778
1092
1499
1556
810
491
555
623
671
699
713
730
743
760
776
792
806
820
840
855
880
901
927
951
983
1008
1033
1041
1051
1044
1028
973
899
810
736
678
648
631
629
633
641
647
653
662
671
680
685
697
699
711
714
727
735
748
761
774
788
795
804
810
817
815
820
839
867
877
883
873
875
864
861
847
846
843
848
829
790
857
1130
1537
1606
1078
603
644
690
730
761
783
803
823
837
858
873
894
909
930
944
968
984
1008
1032
1063
1084
1105
1112
1117
1104
1077
1019
937
845
766
669
654
649
641
641
637
641
642
646
645
651
653
659
661
661
668
670
675
678
685
684
691
691
699
699
707
709
716
711
728
746
771
776
779
778
778
772
768
764
763
768
765
736
722
888
1240
1598
1468
684
561
628
691
729
748
769
784
802
815
835
849
863
906
925
960
992
1033
1065
1099
1121
1156
1137
1117
1085
1039
959
881
805
756
724
716
714
722
726
733
745
753
761
766
779
783
790
791
797
793
798
795
800
795
796
792
795
789
791
788
789
790
793
787
783
799
821
835
833
830
825
825
811
807
793
795
792
790
866
1191
1584
1509
731
527
581
643
676
687
705
712
730
742
760
771
789
802
820
837
860
878
908
934
962
988
1010
1026
1030
1029
1005
962
886
809
733
682
646
636
627
634
637
649
657
668
674
685
705
695
679
685
692
701
710
719
729
736
743
748
754
759
767
773
785
795
810
813
822
845
877
890
892
893
894
895
883
874
862
860
854
850
808
833
1040
1423
1609
1282
659
655
716
775
794
812
826
840
851
864
876
885
898
907
921
934
955
971
997
1017
1043
1057
1075
1077
1078
1063
1038
979
904
825
760
711
687
675
671
675
689
697
689
688
682
684
680
682
679
678
676
677
678
680
679
681
685
683
688
692
699
696
706
703
715
708
717
732
743
744
753
757
762
758
759
757
766
768
753
732
851
1159
1548
1469
759
590
655
722
747
765
778
794
806
823
836
853
859
876
886
909
922
976
1009
1042
1073
1093
1108
1108
1101
1066
1010
932
861
795
758
733
732
729
734
740
752
760
769
777
782
787
790
795
796
801
800
805
802
808
805
807
803
808
803
806
803
804
798
798
809
832
844
845
842
838
836
824
816
805
807
806
798
757
791
1001
1380
1602
585
644
719
705
697
703
718
732
743
758
774
791
805
825
840
865
887
918
942
976
994
1014
1021
1028
1012
985
925
851
770
706
659
636
624
622
627
630
637
644
656
660
669
673
686
688
697
701
713
713
721
723
729
729
738
738
739
746
760
772
783
792
794
788
785
790
793
807
815
812
783
861
1143
1541
1607
1104
626
663
728
784
810
828
849
859
877
884
900
907
921
931
949
959
980
997
1024
1050
1075
1091
1100
1103
1093
1073
1022
932
827
737
685
661
652
657
664
674
680
691
696
709
716
731
732
740
743
752
752
758
766
761
756
743
735
728
724
710
707
712
736
742
745
734
735
728
724
716
715
714
718
705
668
729
994
1401
1582
983
518
565
628
685
703
726
739
760
773
792
803
820
832
852
869
890
912
938
963
990
1019
1038
1054
1058
1058
1037
999
927
848
768
713
674
662
657
671
686
705
727
743
760
770
784
788
801
804
813
811
819
819
825
823
839
814
799
788
792
799
830
850
862
858
857
854
848
842
835
834
836
837
804
784
918
1250
1605
1530
779
623
676
744
761
781
789
807
814
830
840
854
866
880
894
910
927
946
968
1032
1050
1046
1043
1025
1001
947
868
781
708
650
614
596
589
591
593
602
607
619
624
636
642
655
658
670
671
680
681
687
690
698
700
708
711
716
719
727
728
726
732
755
782
789
792
788
790
782
782
771
775
774
780
756
732
823
1122
1530
1549
700
587
627
728
757
785
816
840
868
888
914
929
954
968
994
1010
1035
1053
1079
1101
1119
1127
1131
1126
1108
1062
988
906
825
769
730
716
707
712
714
725
726
739
739
750
755
766
766
773
775
779
780
783
783
783
782
782
784
783
785
784
788
785
791
786
788
785
808
827
832
826
813
795
775
762
749
749
740
706
693
858
1210
1583
1331
628
552
616
672
691
705
721
736
753
766
782
797
812
826
842
865
882
906
928
960
1001
1003
995
1008
1010
1010
982
935
860
791
725
688
664
659
656
667
667
677
685
696
706
711
720
724
733
733
750
755
768
778
790
798
810
817
823
827
828
833
833
836
833
851
873
885
882
882
876
879
865
858
845
848
845
837
791
816
1031
1411
1606
1309
649
635
699
754
778
795
811
821
840
848
864
874
890
899
917
928
946
963
989
1012
1037
1055
1069
1075
1077
1064
1025
819
735
679
636
618
602
602
599
602
605
612
618
634
619
611
613
624
635
645
656
664
672
680
689
693
703
704
714
718
725
717
724
740
769
779
785
781
785
782
782
774
769
768
773
757
720
787
1054
1459
1593
1018
543
594
654
713
736
762
775
796
808
829
866
884
910
937
971
1001
1037
1066
1101
1123
1144
1148
1152
1134
1101
1028
942
855
787
738
719
711
713
714
720
728
733
742
746
754
755
765
766
774
773
779
778
787
785
789
784
786
785
789
784
788
783
778
775
796
831
819
792
787
788
788
788
782
787
790
794
815
1099
1508
1603
974
525
568
625
670
693
713
729
745
759
776
787
803
813
831
841
865
882
912
936
973
998
1028
1041
1051
1046
1029
979
905
818
737
676
638
622
615
621
625
638
641
653
656
668
675
687
692
704
708
716
717
725
727
734
737
741
744
746
751
753
763
768
785
812
849
864
871
870
875
871
866
857
855
857
858
838
796
896
1194
1599
1607
1014
635
673
732
778
800
834
827
827
834
852
869
891
904
924
942
965
985
1011
1035
1061
1083
1102
1112
1110
1104
1073
1018
931
846
765
720
684
673
663
669
668
678
681
704
709
701
700
694
695
691
691
686
689
683
686
681
686
681
687
688
695
698
700
695
703
729
753
763
762
765
763
762
755
750
747
756
754
729
700
832
1156
1576
1517
749
551
614
679
716
736
755
770
787
804
815
832
845
864
877
898
918
942
961
991
1015
1067
1078
1082
1080
1049
977
879
790
738
713
705
711
718
731
740
754
760
773
778
791
793
802
799
807
805
812
812
812
811
816
814
816
816
815
816
813
815
809
806
803
825
841
853
843
842
836
832
817
810
804
808
805
785
763
878
1186
1574
1506
774
582
644
759
767
776
773
782
783
795
800
809
821
833
845
864
890
912
939
963
987
998
1009
1006
998
958
900
820
750
687
651
628
622
619
626
632
639
648
658
668
676
682
689
698
703
713
713
723
736
721
701
705
708
720
722
732
734
746
753
760
756
769
789
815
822
823
834
836
843
841
853
855
853
815
879
1138
1534
1607
1145
663
689
751
797
813
829
841
849
861
874
892
903
918
926
943
955
976
989
1011
1027
1052
1065
1079
1078
1077
1060
1029
966
891
812
750
710
687
678
676
683
688
698
705
714
719
728
730
739
741
749
755
751
742
730
725
715
714
704
704
702
705
697
700
712
739
746
750
744
748
739
736
732
732
741
728
682
665
800
1139
1534
1459
706
534
604
673
715
731
755
771
791
804
828
839
857
867
891
908
929
949
975
995
1022
1041
1061
1070
1072
1063
1039
984
903
823
676
669
668
686
698
713
725
739
750
763
775
782
791
798
806
809
813
813
817
816
821
817
822
817
823
820
818
811
819
836
855
859
857
850
849
840
832
821
816
818
812
781
764
924
1272
1608
1479
712
597
659
721
752
765
784
795
812
821
837
849
863
877
921
955
943
940
951
973
985
998
996
993
967
915
830
755
682
638
610
601
598
606
613
615
621
630
645
651
657
660
671
676
682
683
691
691
701
700
707
704
710
707
717
717
720
724
746
767
777
779
776
779
770
770
763
761
759
762
729
725
871
1214
1593
579
632
706
751
777
810
834
858
871
890
899
915
928
952
957
979
998
1019
1035
1064
1089
1107
1113
1119
1112
1089
1037
959
882
805
754
721
706
699
705
703
718
728
737
740
758
739
733
725
732
739
751
755
760
767
778
773
781
790
790
791
795
788
784
783
803
848
838
828
809
793
769
758
752
750
737
698
751
994
1378
1528
938
528
576
643
689
697
719
729
745
755
774
782
800
813
831
844
864
884
905
929
952
981
1006
1021
1021
1020
1013
973
903
837
763
710
667
659
651
655
658
672
668
674
681
698
703
707
718
723
739
737
758
771
784
790
803
807
814
821
826
824
841
867
879
881
878
873
858
869
841
813
806
817
805
790
881
1160
1528
1583
922
579
657
726
771
802
815
824
840
866
870
882
893
902
914
923
942
961
978
1000
1038
1052
1066
1074
1079
1060
1036
982
907
824
764
670
657
649
631
636
643
642
638
651
652
659
658
672
672
681
681
687
681
692
696

FIM:
29/11/2024 10:27:27
