INICIO:
29/11/2024 10:25:06
Leitura(ECG)
713
599
551
602
854
1254
1594
1159
512
576
661
731
767
806
829
856
874
922
908
840
764
701
651
616
587
571
560
567
568
579
577
584
577
575
545
498
432
375
324
298
286
293
356
447
549
634
721
786
852
897
944
975
1008
1026
1044
1052
1064
1070
1073
1073
1077
1076
1070
1069
1082
1104
1108
1108
1095
1088
1070
1060
1040
1037
1028
1030
1001
977
1082
1398
1603
1607
1117
753
802
861
907
931
953
964
976
982
992
994
1006
1009
1023
1027
1041
1050
1070
1083
1101
1116
1117
1122
1114
1099
1049
988
904
825
762
744
735
746
752
770
775
791
792
802
802
809
806
809
807
809
805
804
804
802
800
796
794
792
791
781
777
784
806
811
817
806
804
791
783
766
762
756
756
736
699
759
1024
1416
1589
950
481
546
607
664
686
707
746
755
752
757
757
766
772
785
798
815
834
854
879
896
912
917
920
905
893
848
789
713
655
606
581
560
560
562
577
581
590
597
606
610
617
627
633
638
640
648
650
658
660
669
672
681
683
692
696
681
679
709
724
739
738
747
746
752
743
748
753
724
765
990
1383
1607
1258
598
628
697
773
801
833
847
868
880
897
907
919
930
940
953
966
984
999
1020
1036
1060
1070
1082
1082
1081
1060
1043
991
930
852
793
742
719
706
704
703
710
721
730
736
743
751
753
761
759
765
763
769
767
774
768
776
773
776
777
775
778
788
799
797
789
773
767
750
740
724
730
726
723
682
701
891
1254
1588
1229
519
521
590
655
684
723
720
721
733
754
777
797
820
838
861
882
908
928
960
981
1007
1021
1038
1036
1040
1025
1001
944
878
804
747
704
683
674
671
672
679
688
695
703
709
726
728
746
759
774
785
797
805
808
812
814
822
821
822
819
838
858
878
876
872
864
862
851
846
835
840
836
823
786
870
1158
1546
1604
985
556
628
685
740
771
791
813
825
844
853
870
879
900
910
928
939
956
970
995
1015
1036
1047
1054
1052
1045
1028
991
816
740
684
629
598
583
589
591
606
608
621
627
639
642
653
657
664
667
677
680
684
690
688
699
696
698
700
726
746
766
763
761
756
758
747
747
740
747
749
733
710
835
1163
1551
1534
757
506
590
652
700
732
750
772
786
808
820
842
850
871
883
906
960
989
1025
1055
1085
1097
1107
1102
1093
1058
1006
925
858
794
759
737
735
734
744
751
761
768
775
779
786
793
795
801
802
807
803
805
800
806
802
807
798
803
797
797
785
816
814
810
801
804
801
804
798
797
793
799
797
782
752
848
1154
1554
1597
916
546
710
739
749
758
761
769
777
784
789
801
813
824
842
857
881
901
929
948
975
981
992
987
982
949
896
819
748
680
640
615
609
607
612
619
631
640
646
658
664
676
682
692
695
707
710
718
716
723
720
730
730
735
737
745
747
750
749
750
767
790
806
807
818
817
826
824
837
844
852
820
811
973
1329
1608
1570
802
630
692
757
802
823
858
852
852
861
880
894
914
928
949
963
989
1002
1030
1048
1075
1089
1103
1103
1101
1084
1059
1006
932
854
788
740
707
696
691
695
698
707
710
721
722
733
731
740
740
748
745
756
752
741
734
726
720
708
708
699
702
696
698
693
699
693
697
705
733
747
753
751
749
750
748
744
734
736
737
743
712
697
831
1180
1583
1501
703
529
591
660
697
726
742
763
778
797
810
824
840
858
876
893
915
932
958
978
1010
1028
1051
1071
1053
1021
918
850
797
754
729
720
725
733
742
754
767
781
787
797
801
811
811
820
820
829
826
832
829
833
829
829
822
823
819
819
816
815
816
815
815
813
813
809
812
810
813
809
829
838
848
841
843
840
841
830
824
810
804
803
804
777
745
844
1152
1569
1594
600
649
703
714
730
736
743
750
761
768
779
791
805
821
836
855
874
902
927
958
974
996
1000
1004
990
974
925
862
784
720
664
637
621
619
620
625
634
661
649
640
645
659
671
681
696
704
716
721
731
735
746
748
758
758
768
767
775
774
783
785
791
798
803
820
830
844
845
863
883
906
908
914
909
915
906
899
884
874
864
865
866
841
810
910
1224
1601
1608
1000
630
668
729
774
803
815
833
842
861
869
886
896
910
918
932
946
966
984
1005
1031
1051
1069
1079
1087
1077
1064
1025
971
888
814
739
696
667
663
673
672
670
663
661
654
657
654
659
655
661
659
668
663
667
677
664
643
648
649
662
666
680
686
699
700
705
709
716
718
721
745
768
783
784
788
784
788
781
780
770
775
775
776
733
746
941
1328
1599
1395
606
551
617
676
719
745
768
783
804
818
835
867
893
918
948
977
1014
1042
1073
1103
1124
1139
1140
1135
1114
1077
1002
925
841
782
736
717
705
711
711
718
721
732
737
746
752
760
765
771
776
778
780
778
781
780
782
777
780
776
779
775
780
775
782
779
786
783
785
783
782
790
794
792
797
798
806
805
803
794
780
778
761
722
702
876
1230
1602
1432
630
508
573
633
672
694
715
733
749
765
779
794
806
824
837
861
878
906
927
957
983
1015
1029
1046
1047
1046
1023
982
906
827
748
690
651
635
633
635
645
648
660
665
679
687
701
705
718
718
728
728
739
736
749
760
772
784
792
808
814
828
830
840
840
850
850
857
852
856
853
857
854
853
857
877
887
889
892
886
883
878
871
858
851
842
858
813
754
818
1109
1532
1608
1099
609
634
698
750
781
795
815
829
846
859
873
885
897
909
922
940
955
976
995
1021
1042
1084
1076
1059
1022
969
888
799
717
654
614
590
581
579
585
590
601
603
615
621
635
637
651
652
663
665
672
674
684
684
691
692
698
702
708
711
715
723
723
728
727
737
736
745
746
756
758
767
765
774
771
781
779
786
789
798
812
830
835
833
831
831
823
820
826
831
846
843
814
828
1036
1417
1612
1305
669
648
710
770
802
829
851
872
888
902
912
925
934
950
955
976
988
1014
1031
1058
1076
1099
1107
1118
1112
1105
1078
1034
960
878
802
742
703
683
679
677
683
687
698
701
712
713
724
723
732
730
738
734
742
749
742
735
727
722
711
710
702
705
699
703
699
706
699
702
700
708
708
714
715
722
723
727
727
732
736
739
746
746
757
773
793
793
797
792
802
798
797
788
784
774
781
779
751
728
876
1219
1601
1553
661
569
610
670
703
727
751
776
796
818
834
852
892
921
948
980
1008
1041
1070
1102
1125
1139
1147
1144
1136
1104
1051
973
898
824
774
740
731
720
725
726
739
741
751
754
762
765
772
776
779
783
784
785
783
787
785
787
785
791
785
789
783
786
783
790
785
790
789
795
791
794
792
796
795
796
794
792
795
799
820
814
807
790
785
772
764
751
744
731
725
723
716
678
705
930
1320
1598
1262
555
526
586
640
675
692
731
725
727
736
761
778
806
823
848
868
895
914
949
975
1008
1030
1050
1062
1066
1058
1034
988
911
832
755
701
663
653
645
646
647
658
655
667
672
693
704
721
740
750
766
776
795
799
809
808
818
817
827
825
828
825
832
832
833
830
833
833
828
838
857
876
874
874
867
867
855
854
837
836
831
835
803
782
910
1260
1605
1588
838
559
631
685
736
763
785
800
816
827
844
856
874
886
903
915
937
949
1018
1040
1052
1057
1067
1031
987
939
870
784
703
643
602
582
575
581
582
593
597
611
617
632
636
653
656
670
677
687
690
703
705
710
711
714
717
717
722
722
725
724
730
731
738
733
733
745
772
784
795
790
793
785
786
778
774
772
779
773
731
749
970
1575
771
555
635
714
761
803
827
852
870
889
902
921
936
947
962
977
994
1008
1031
1055
1086
1107
1135
1146
1154
1144
1126
1075
1003
905
821
750
711
689
684
683
689
695
704
713
717
734
722
709
714
723
729
742
748
758
759
768
768
774
770
778
774
780
777
783
784
776
785
793
796
788
781
767
761
743
736
722
725
718
707
654
708
972
1410
1605
1088
511
536
593
645
673
695
717
731
753
765
785
797
818
828
855
872
900
923
953
976
1010
1034
1058
1065
1067
1056
1029
967
884
799
725
679
649
639
636
647
651
666
674
687
708
723
737
753
771
783
795
803
813
815
825
824
831
830
834
833
841
834
841
839
848
824
826
836
854
858
865
864
865
859
852
846
849
851
835
793
848
1114
1528
1611
1170
641
649
713
757
784
796
815
823
838
843
860
866
885
895
912
924
944
963
985
1011
1070
1076
1059
1044
1009
955
868
786
706
649
612
594
588
590
598
604
611
618
628
631
642
645
657
659
671
672
684
680
689
689
699
699
701
704
713
716
723
726
728
735
737
739
736
758
777
800
803
805
800
805
797
793
781
788
786
787
749
769
979
1364
1600
543
615
689
745
781
819
843
875
894
917
929
950
960
980
991
1012
1029
1054
1073
1099
1119
1135
1146
1146
1137
1109
1058
976
894
811
755
715
704
696
704
702
714
717
729
730
742
742
749
752
757
759
764
766
767
770
769
769
764
768
766
770
765
771
767
769
762
809
813
802
790
772
756
741
729
718
720
714
689
654
794
1132
1548
1479
660
450
545
604
655
686
711
727
743
758
774
790
804
821
836
857
872
900
923
956
1005
1016
1012
1026
1030
1035
1012
971
891
814
738
689
654
647
640
648
657
670
677
686
695
701
711
718
740
746
765
773
789
795
805
811
819
822
827
829
834
839
835
835
828
849
867
885
884
882
872
869
854
850
838
842
837
828
779
804
1030
1428
1609
1405
641
604
665
720
754
777
798
811
831
840
858
864
884
893
916
929
949
965
993
1015
1044
1065
1082
1090
1091
1017
930
837
741
676
625
603
589
592
590
598
601
606
610
634
620
613
615
624
632
645
656
665
674
679
690
692
703
705
716
717
728
728
736
735
743
741
750
749
753
754
779
798
811
812
810
811
805
802
792
789
788
795
778
741
795
1068
1478
1601
1147
586
700
736
771
798
828
850
878
896
917
926
945
957
979
991
1017
1036
1062
1083
1110
1127
1140
1138
1130
1108
1063
991
906
831
768
732
710
706
705
714
719
728
733
746
746
756
758
767
766
774
773
776
775
779
778
779
781
780
789
772
753
751
756
763
770
776
783
795
797
786
780
768
764
754
748
750
767
777
779
781
777
778
772
765
755
753
747
751
738
707
738
971
1354
1598
1174
556
556
624
682
709
726
743
758
774
790
805
822
836
856
869
891
905
929
950
981
1003
1031
1044
1059
1057
1056
1031
993
922
845
771
714
676
652
666
678
700
711
735
744
764
771
784
791
801
803
807
808
811
816
815
818
817
818
812
820
817
824
817
820
815
821
815
833
807
785
779
802
822
839
845
852
850
851
838
833
824
825
826
818
782
791
993
1369
1610
1450
661
578
651
702
751
768
791
800
842
849
850
857
861
868
874
890
904
929
950
981
997
1016
1019
1019
997
962
890
807
727
664
619
597
588
589
594
600
607
612
623
631
647
652
663
668
681
685
696
695
706
703
709
707
717
716
720
720
725
727
729
736
738
741
738
758
780
798
801
805
805
797
793
802
813
822
799
793
956
1309
1612
1434
648
600
673
737
785
812
840
856
877
893
915
922
941
948
963
974
995
1010
1038
1064
1093
1116
1134
1141
1140
1127
1096
1035
945
858
776
721
683
675
670
677
673
687
690
701
702
716
720
729
732
738
741
749
753
755
761
752
748
731
727
715
716
704
706
700
698
692
706
727
740
744
741
742
737
736
729
723
718
726
717
689
676
859
1226
1599
1439
625
503
582
642
687
713
737
755
774
791
805
819
832
851
865
885
907
950
953
963
991
1027
1050
1071
1075
1077
1048
998
913
831
679
667
675
687
703
715
733
743
759
765
783
790
805
809
816
818
823
818
822
819
819
816
814
812
812
813
813
816
814
817
814
819
811
809
802
827
842
855
849
847
840
838
826
820
811
812
811
797
750
803
1070
1484
1610
1188
556
585
652
706
739
758
780
822
833
835
837
841
849
860
871
890
910
937
963
996
1012
1030
1028
1026
999
956
872
787
705
649
609
592
596
583
567
577
588
606
618
634
644
659
668
680
690
698
707
711
719
721
730
729
739
739
748
748
759
759
768
768
775
774
779
777
783
779
780
794
829
841
843
859
863
865
860
862
864
870
857
816
865
1135
1553
1612
1323
664
667
722
779
807
837
850
873
884
900
907
921
928
943
952
970
981
1003
1021
1048
1074
1099
1117
1128
1128
1115
1089
1030
950
855
778
717
687
667
666
665
676
678
691
693
706
710
720
724
738
739
727
728
699
674
665
666
664
671
672
683
683
693
694
702
701
712
712
715
719
723
723
743
765
779
784
786
787
788
785
775
768
761
770
765
739
710
854
1191
1594
1561
771
527
598
659
704
729
752
769
786
801
813
832
847
863
876
898
915
937
960
1038
1064
1096
1116
1126
1123
1099
1048
969
889
812
763
730
721
713
722
724
738
742
758
759
766
768
778
780
788
786
790
790
790
790
791
793
791
789
785
789
788
792
788
793
788
806
784
766
758
767
764
773
791
823
830
839
837
842
839
834
823
817
816
818
768
846
1130
1531
1594
935
535
572
632
670
691
702
716
726
743
756
771
785
800
815
829
853
868
896
918
952
975
1007
1021
1037
1035
1027
992
941
862
787
713
665
635
622
621
625
632
640
653
660
672
678
688
693
700
702
714
716
725
725
737
735
741
741
748
759
763
780
788
808
817
830
832
845
841
847
853
878
894
899
895
896
894
886
877
865
866
848
823
791
778
926
1276
1608
1574
821
615
675
738
782
809
825
846
854
874
881
898
905
919
927
945
958
976
994
1017
1038
1064
1086
1096
1102
1092
1075
1031
965
878
799
667
651
640
636
629
624
627
632
635
637
642
642
651
652
662
661
672
671
675
672
679
679
686
683
689
691
700
702
708
710
714
720
718
721
736
765
778
789
785
788
780
782
775
771
766
776
769
744
737
919
1283
1603
1453
651
537
617
674
719
747
785
782
800
830
859
895
922
954
977
1009
1032
1063
1092
1124
1145
1161
1164
1159
1142
1095
1023
933
851
780
744
720
719
718
726
723
729
729
741
744
754
755
764
766
775
780
780
782
784
785
785
789
783
785
783
788
786
789
781
788
784
786
779
795
810
830
831
830
826
808
794
777
772
758
733
683
769
1056
1471
1578
883
472
537
592
649
672
696
710
727
744
757
770
784
806
820
843
860
886
908
939
965
1001
1027
1048
1052
1064
1020
962
885
810
734
681
641
631
626
635
641
649
659
673
685
694
705
710
722
727
737
740
747
747
761
767
779
790
802
812
821
829
833
839
841
850
847
854
851
856
854
856
846
861
876
890
885
888
884
886
877
869
858
849
847
845
828
785
843
1105
1523
1609
1188
620
635
688
748
766
789
802
822
830
844
852
867
875
887
903
920
939
958
980
1004
1033
1052
1085
1068
1041
985
909
819
736
665
620
596
587
585
587
593
611
597
586
592
603
618
630
645
652
666
670
684
687
699
700
708
708
720
725
732
731
738
741
747
752
759
763
767
769
769
775
774
777
779
786
783
800
813
827
825
826
820
824
816
812
802
796
798
770
763
904
1259
1606
1582
859
644
693
765
799
824
841
860
877
891
902
917
928
939
953
964
983
996
1017
1032
1063
1083
1107
1117
1128
1116
1109
1072
1019
937
858
782
734
702
691
689
693
697
701
710
717
727
732
742
745
761
743
726
724
734
737
748
750
761
767
766
758
753
747
740
734
727
727
722
724
721
729
723
727
721
728
721
728
741
764
768
774
768
773
771
767
756
752
747
748
754
737
700
748
1008
1408
1600
1156
549
565
625
679
714
732
755
766
787
798
813
826
847
863
878
893
910
933
958
987
1015
1044
1075
1082
1071
1043
985
910
834
776
736
719
717
719
731
736
747
751
768
773
782
782
796
799
805
802
808
807
813
811
814
813
814
822
803
778
777
779
788
795
804
810
812
816
815
819
823
848
861
866
863
864
856
856
840
836
819
822
821
813
763
801
1044
1510
703
552
611
649
687
698
719
724
738
747
765
773
786
797
814
831
854
878
901
931
962
994
1017
1036
1038
1040
1019
983
911
829
742
681
633
617
607
611
613
623
627
635
641
648
660
669
678
685
695
698
704
708
717
717
728
729
737
735
743
741
749
749
759
770
782
796
800
819
846
878
880
887
892
875
846
841
831
836
839
850
822
798
910
1241
1606
1609
996
637
675
733
778
803
823
837
852
864
878
888
903
908
924
932
952
965
991
1009
1042
1063
1088
1099
1106
1098
1082
1042
975
889
804
736
688
665
655
657
657
678
677
678
672
671
667
667
665
665
665
667
671
671
675
673
681
679
687
689
694
694
701
701
707
706
712
713
720
717
724
741
765
776
782
784
784
786
781
777
768
773
774
779
747
730
854
1184
1587
1394
657
566
616
687
710
741
757
783
797
820
833
853
895
913
945
972
1010
1039
1079
1104
1135
1147
1159
1152
1141
1101
1040
953
872
800
753
729
717
718
720
728
731
742
747
758
758
766
766
774
772
780
778
784
780
784
784
788
784
786
786
787
789
791
793
791
793
790
794
790
793
792
793
788
803
822
837
834
840
830
811
792
773
766
754
737
688
734
974
1377
1594
1119
523
539
589
652
671
694
711
731
742
758
775
787
804
837
833
834
853
882
915
951
990
1019
1046
1058
1067
1056
1032
973
895
806
741
683
658
641
645
643
653
660
671
680
690
694
700
707
714
719
723
729
739
750
761
780
786
799
806
814
822
829
835
837
840
839
841
844
868
884
894
885
882
874
873
862
860
852
852
846
831
783
844
1120
1522
1611
1218
605
629
684
739
768
785
807
819
838
846
861
867
887
893
912
921
944
963
991
1015
1043
1068
1087
1096
1093
1081
930
837
743
670
607
571
556
563
565
579
582
595
602
617
623
633
639
653
659
669
677
682
685
687
694
697
704
707
716
717
725
723
729
725
733
730
737
734
761
779
791
791
792
789
788
782
775
772
773
777
763
722
751
992
1397
1602
1269
598
583
642
699
760
786
810
839
863
888
905
927
942
968
983
1008
1028
1057
1083
1114
1132
1150
1150
1150
1125
1084
1008
922
839
773
732
709
702
703
712
715
725
728
743
750
763
766
775
772
779
790
776
752
757
756
767
768
775
775
783
784
791
790
794
799
802
800
800
804
799
831
835
831
814
807
794
785
767
755
742
740
738
720
679
719
957
1359
1600
1115
543
547
611
661
689
703
722
734
754
764
784
793
812
826
843
860
883
907
932
964
993
1021
1040
1058
1058
1052
1027
983
906
831
752
701
662
655
646
653
654
665
669
679
687
701
721
730
750
760
776
784
797
806
817
817
824
826
832
834
835
836
836
841
843
849
855
836
816
818
820
826
833
859
875
880
876
878
872
874
860
857
844
844
839
838
803
789
936
1284
1610
1563
802
614
662
718
754
770
786
799
815
824
844
852
869
876
896
937
954
971
983
1001
1015
1026
1029
1031
1012
983
919
846
757
686
629
601
581
581
581
592
597
605
613
623
631
640
647
653
660
662
674
675
681
681
692
692
700
699
708
705
715
712
720
720
726
730
737
736
737
750
776
793
796
801
799
806
799
796
797
777
744
721
800
1101
1516
1609
1169
615
663
726
788
819
844
861
882
896
913
921
935
943
963
973
991
1002
1025
1042
1072
1092
1119
1131
1139
1135
1126
1094
1031
946
857
780
722
688
669
673
675
686
687
699
701
713
712
721
725
736
737
743
747
754
755
756
756
758
761
764
764
749
744
730
732
724
717
713
731
747
752
746
745
743
739
737
729
727
727
735
720
682
719
972
1375
1598
1169
547
558
619
673
703
722
740
753
789
782
784
793
816
835
860
884
913
938
968
1001
1032
1064
1080
1093
1091
1085
1047
991
902
824
745
702
673
666
675
692
712
726
746
758
774
780
793
796
808
807
817
815
824
821
822
819
820
817
823
820
819
818
818
820
818
820
818
820
813
818
834
855
853
859
852
853
842
838
822
816
812
814
806
769
776
969
1339
1609
1385
667
607
654
718
739
761
771
789
798
841
846
852
855
859
869
880
899
915
942
961
990
1003
1014
1018
985
919
850
769
704
641
607
588
590
593
606
610
623
631
645
655
666
674
680
686
693
701
704
712
712
720
721
726
722
728
724
733
732
740
738
744
746
751
752
759
762
766
770
774
778
796
826
830
847
853
862
859
862
856
860
861
856
816
832
1038
1417
1612
1474
750
666
718
774
802
818
838
845
864
871
889
897
912
919
934
945
965
982
1005
1029
1058
1084
1100
1113
1114
1110
1086
1045
969
886
801
743
694
677
665
681
660
655
658
673
681
696
703
717
737
738
734
725
721
712
710
701
705
700
702
695
700
700
708
706
714
713
717
714
719
718
730
749
759
764
763
765
760
760
754
751
746
754
748
736
694
767
1048
1466
1594
1043
522
580
634
694
723
746
763
782
797
808
827
840
858
872
894
910
936
954
984
1053
1082
1105
1122
1127
1110
1070
994
912
831
772
731
721
714
724
727
738
739
750
753
765
768
776
778
786
787
793
798
799
802
815
792
774
771
773
781
784
791
790
798
801
809
803
807
814
844
853
856
850
850
842
838
826
820
812
814
813
791
748
830
1123
1308
612
581
629
675
697
706
720
728
742
750
761
771
783
796
810
829
848
872
895
929
958
993
1014
1032
1032
1032
1005
958
877
798
717
665
626
613
608
612
616
625
635
643
654
664
677
682
691
695
705
703
715
716
729
728
737
738
748
750
755
753
757
759
769
781
788
809
811
823
842
874
884
903
878
865
856
861
855
857
857
866
863
830
821
994
1353
1611
1564
819
663
707
774
801
821
835
851
861
877
885
902
906
919
923
939
947
966
986
1012
1036
1061
1079
1092
1097
1089
1073
1033
967
878
799
730
691
665
664
659
677
676
675
674
671
671
669
671
668
673
668
672
669
675
673
682
682
690
689
696
694
703
703
708
710
718
723
727
729
731
740
737
745
763
783
787
794
789
796
791
790
780
777
771
778
775
757
725
904
1224
1598
1438
692
560
621
692
727
750
770
789
806
856
870
898
921
951
970
998
1020
1049
1077
1107
1130
1146
1159
1157
1146
1113
1061
980
899
820
766
729
719
708
715
716
726
728
739
744
754
757
763
765
771
775
776
778
778
783
776
774
770
775
772
781
778
784
779
785
782
789
786
787
787
790
789
803
823
835
834
822
815
792
781
758
753
745
740
698
691
848
1206
1590
1431
649
520
578
637
674
691
713
727
749
761
791
787
786
796
821
844
876
901
934
962
1001
1026
1055
1067
1077
1070
1054
1007
936
848
769
706
666
646
643
647
650
655
657
664
668
681
684
696
700
711
719
727
742
757
771
781
790
796
808
813
822
823
830
827
835
827
832
843
870
876
880
873
871
868
861
853
843
841
840
837
800
780
922
1276
1608
1568
794
592
652
713
752
780
795
815
825
843
850
864
874
891
902
918
936
957
981
1003
1033
1053
1078
1090
1101
1049
981
865
755
654
605
580
575
574
581
587
599
606
614
621
631
643
651
662
665
676
678
688
688
696
696
704
703
713
712
719
716
723
720
727
725
724
726
747
773
779
783
778
781
777
774
764
764
763
774
758
721
758
1015
1418
1603
1174
580
591
649
707
763
786
807
839
860
888
906
927
941
965
985
1009
1031
1059
1086
1114
1137
1148
1155
1145
1127
1077
1007
915
836
766
730
706
707
705
716
718
728
731
740
742
750
754
762
765
781
762
749
747
755
759
766
770
776
783
783
788
788
795
794
797
795
803
794
800
815
849
841
829
818
800
789
770
762
752
749
711
683
784
1098
1524
1531
794
524
571
636
668
692
708
725
738
753
770
785
803
814
833
847
869
887
915
936
969
994
1026
1040
1053
1049
1041
1007
950
866
787
716
671
646
637
636
638
647
651
661
668
678
682
696
698
720
729
745
756
769
782
791
802
807
817
819
828
828
834
830
837
836
842
836
851
829
815
820
847
857
869
866
872
872
872
862
857
847
847
847
838
799
823
1039
1422
1610
1337
677
644
704
754
781
792
810
818
836
843
857
865
880
890
904
917
934
950
970
1041
1053
1062
1051
1042
1011
973
898
814
728
662
614
592
584
584
583
588
597
604
619
625
636
639
648
649
663
666
674
677
686
685
693
692
701
704
710
714
716
720
728
736
737
742
746
752
750
764
785
806
805
813
809
815
807
807
797
794
791
806
766
712
1306
1609
1410
669
619
690
769
806
835
855
879
891
914
929
944
951
966
975
991
1002
1024
1043
1068
1094
1118
1137
1145
1146
1133
1113
1060
988
895
815
745
708
682
679
677
689
690
701
705
716
719
728
734
742
746
751
757
759
762
761
766
762
765
760
766
762
771
771
766
754
746
736
726
730
745
762
757
759
751
750
740
740
728
729
724
730
716
679
717
971
1376
1601
1127
526
551
611
672
697
722
736
758
771
805
798
797
807
829
848
876
898
934
961
997
1025
1056
1072
1091
1090
1082
1047
987
900
814
740
690
665
655
656
663
677
687
710
723
742
754
766
775
785
794
802
807
810
815
816
822
821
829
824
828
824
827
821
830
824
827
825
828
820
826
845
861
860
860
858
856
851
839
834
823
826
822
817
770
791
1000
1389
1610
1364
652
618
667
728
747
770
783
799
812
829
840
875
888
887
900
906
924
936
962
981
1003
1014
1021
1017
1007
939
848
757
687
629
597
580
579
583
593
603
611
625
630
642
647
663
667
678
681
688
690
703
705
713
713
722
722
730
734
738
742
746
749
752
757
758
762
763
768
765
773
790
813
812
822
818
818
816
818
826
834
847
830
808
882
1172
1577
1609
1107
672
690
754
795
821
834
853
865
878
888
900
910
922
935
944
962
975
998
1015
1044
1066
1094
1106
1117
1113
1107
1071
1019
934
850
772
719
685
673
670
674
680
685
700
693
680
685
694
706
718
725
735
740
761
756
754
744
741
731
728
721
719
716
717
717
716
717
718
724
722
726
724
730
734
758
765
775
771
774
772
775
762
758
748
754
754
755
724
704
844
1186
1590
1507
742
561
618
677
716
730
753
768
789
802
821
829
848
858
877
893
917
938
961
988
1015
1079
1088
1104
1100
1089
1038
970
887
819
762
732
718
719
727
735
744
752
762
764
772
775
787
789
795
793
798
795
802
798
812
787
771
762
772
771
782
782
791
791
801
801
804
805
807
806
819
841
848
850
846
846
842
840
825
820
813
818
809
785
746
858
1606
1165
563
566
616
663
687
697
714
722
738
743
759
764
781
794
814
826
854
879
909
937
969
996
1019
1033
1037
1032
1006
958
875
794
713
660
621
611
606
616
619
629
631
644
649
663
669
680
687
696
704
711
719
721
728
733
737
738
745
742
750
749
756
761
770
780
796
809
812
822
845
885
873
857
854
858
857
856
852
855
853
862
848
813
848
1096
1495
1609
1314
682
663
724
782
809
826
842
857
870
879
887
900
909
922
931
945
958
980
994
1025
1048
1076
1090
1105
1101
1096
1066
1019
938
854
773
714
677
662
658
665
673
668
671
665
668
662
666
662
666
667
669
671
673
676
676
679
680
685
685
690
689
698
697
707
706
715
716
722
722
730
726
738
760
783
784
790
792
792
791
784
782
773
778
780
778
734
807
1055
1455
1593
1032
563
602
663
722
742
769
784
806
819
865
886
907
936
957
986
1007
1038
1062
1098
1120
1146
1155
1162
1150
1133
1091
1023
937
858
788
743
722
715
719
722
728
730
741
743
753
754
762
764
773
771
777
775
782
776
780
777
782
781
781
781
781
783
787
788
784
787
784
788
784
787
784
792
785
791
805
829
822
809
795
777
763
746
735
725
727
708
672
708
947
1333
1593
1088
530
540
604
655
681
696
714
744
743
737
752
767
792
808
833
856
883
910
937
967
992
1023
1039
1057
1058
1055
1028
983
906
828
753
705
667
656
648
653
654
666
670
680
686
694
703
709
724
730
750
759
777
783
796
802
815
818
824
828
832
836
838
842
841
844
843
845
841
861
877
891
889
890
881
879
867
862
844
845
843
839
800
794
957
1307
1608
1516
745
604
666
724
765
782
803
814
832
841
859
867
883
892
910
918
940
955
978
999
1026
1088
1084
1081
1029
963
883
801
716
655
605
586
575
585
586
598
599
611
622
634
639
647
652
661
672
678
685
687
694
698
703
701
706
702
710
708
717
715
726
727
731
728
745
763
782
786
787
787
790
786
779
775
773
779
774
741
733
912
1270
1599
1456
679
672
730
764
793
820
842
867
884
904
915
933
942
964
979
1004
1019
1046
1067
1098
1115
1134
1141
1143
1128
1095
1030
945
858
781
733
703
698
694
702
704
716
720
731
734
746
757
745
724
731
734
749
750
761
764
774
775
782
778
784
786
789
786
788
790
787
783
826
837
819
811
792
783
761
748
737
730
726
706
667
733
1010
1427
1580
949
508
547
611
655
682
695
716
728
748
756
774
787
809
823
842
857
883
906
933
962
989
1015
1031
1045
1046
1045
1017
967
884
808
732
681
644
636
630
638
643
656
662
674
680
691
698
715
730
738
756
764
782
789
801
806
818
820
827
828
832
834
840
842
838
846
844
843
854
860
861
864
862
858
848
845
841
849
841
810
810
999
1359
1609
1430
716
640
700
759
785
800
816
827
839
848
857
870
877
893
901
917
930
953
968
994
1015
1042
1055
1075
1052
1004
933
844
758
684
636
606
594
586
594
594
607
609
626
629
639
641
654
656
663
668
675
679
682
685
687
691
692
700
702
708
710
719
717
726
726
737
734
736
735
762
784
799
800
801
798
799
792
788
783
786
790
781
745
765
980
1491
1598
1015
643
710
753
781
814
838
865
887
907
923
939
957
972
987
1003
1026
1041
1065
1084
1111
1124
1141
1139
1138
1115
1075
1000
921
836
775
730
712
703
705
709
717
723
730
737
740
748
752
761
762
767
766
774
769
773
770
779
777
783
782
785
784
790
788
786
786
783
834
831
823
805
798
775
766
745
741
734
736
706
677
798
1126
1538
1507
737
500
568
626
677
696
720
732
752
763
785
796
814
826
845
860
884
917
925
928
957
985
1016
1035
1051
1050
1041
999
928
845
766
704
662
650
643
649
650
664
669
680
685
697
699
710
721
726
742
753
768
775
788
791
802
806
817
816
828
822
827
822
840
857
871
867
865
862
856
849
836
829
828
832
815
776
810
1056
1454
1610
1246
626
623
683
736
765
781
801
813
830
840
854
867
880
892
905
923
937
960
982
1011
1034
1061
1072
1085
1078
1072
932
841
753
682
636
608
600
595
598
596
602
606
631
614
602
605
619
628
642
648
663
668
681
683
695
697
708
708
715
717
726
726
730
736
759
783
796
798
795
797
789
787
774
776
772
780
760
724
775
1039
1447
1596
1067
578
603
666
714
736
754
770
787
820
846
866
896
916
946
966
996
1021
1053
1079
1104
1125
1135
1137
1126
1105
1055
982
896
824
761
731
712
711
709
723
726
738
742
754
756
764
766
775
776
781
782
783
784
785
787
786
789
786
790
786
792
791
798
800
780
762
785
806
819
817
822
820
821
813
813
813
791
745
769
994
1373
1598
1136
563
568
632
680
704
715
732
741
757
767
781
791
805
821
840
858
876
896
917
948
972
1002
1015
1032
1030
1029
1000
957
880
805
727
678
643
632
627
631
636
647
655
665
672
677
688
696
707
709
718
719
730
729
736
736
742
750
762
774
783
799
805
811
812
834
856
879
880
882
876
877
866
863
848
851
850
851
821
800
928
1264
1607
1577
695
617
657
713
745
769
793
810
832
847
865
875
895
909
927
937
962
978
1003
1023
1055
1075
1097
1103
1109
1097
1076
1023
942
852
773
715
678
661
656
655
646
648
645
647
644
648
648
651
655
657
663
662
666
665
672
673
679
679
685
684
693
690
701
698
703
702
721
744
763
768
771
774
773
770
766
761
761
767
763
731
716
886
1246
1605
1468
684
557
627
684
723
743
764
777
795
812
831
844
858
897
915
950
978
1016
1048
1102
1102
1105
1109
1115
1099
1064
994
916
837
778
740
725
722
726
733
738
748
753
764
768
778
782
791
791
798
796
800
796
800
795
799
796
797
792
793
792
793
793
794
793
789
793
794
795
791
804
819
836
834
840
834
836
824
820
805
800
786
731
741
934
1318
1598
1281
574
543
593
656
678
699
710
730
742
759
772
789
802
818
836
851
875
896
924
951
984
1010
1036
1044
1055
1047
1033
982
911
823
753
689
652
633
631
642
630
614
621
631
647
656
673
684
697
710
720
729
733
741
744
752
759
772
780
795
808
821
832
838
846
851
859
857
858
853
860
854
858
868
887
889
893
884
889
880
875
860
852
845
847
844
827
784
832
1083
1499
1607
1172
643
643
708
753
774
786
806
817
836
845
863
868
882
892
908
920
940
956
978
1002
1028
1051
1068
1078
1058
1015
935
847
759
692
638
612
597
594
594
600
607
611
623
626
636
638
647
651
662
663
687
667
654
651
665
668
678
683
697
702
716
718
727
731
741
745
751
755
756
766
769
775
787
809
819
824
821
827
823
822
809
805
794
798
796
788
745
792
1036
1451
699
599
674
742
788
808
836
855
879
894
915
923
941
952
968
980
994
1011
1033
1057
1079
1103
1122
1137
1135
1131
1109
1073
996
912
825
763
712
695
684
689
691
700
703
708
711
718
725
731
739
744
750
752
758
756
767
765
772
766
771
764
770
766
769
767
749
736
734
728
722
730
751
762
762
766
759
760
749
749
738
739
736
744
721
687
751
1040
1450
1596
998
517
568
627
679
702
724
738
758
773
791
804
821
831
852
867
889
905
934
956
991
1018
1050
1066
1078
1080
1073
1040
981
898
808
733
679
651
639
641
640
660
668
690
707
727
742
757
770
784
796
802
811
811
821
820
827
826
831
827
831
826
832
828
831
827
832
823
824
838
859
867
866
863
857
854
843
837
822
821
831
801
737
768
1001
1407
1610
1263
622
622
677
743
761
787
799
819
830
848
858
873
882
895
938
947
965
974
996
1005
1024
1028
1032
1023
1006
959
887
799
721
653
611
590
580
585
588
597
599
611
617
632
635
649
650
663
666
679
682
694
697
705
706
713
715
720
725
727
733
736
742
743
747
750
754
750
764
784
809
810
816
810
816
808
808
797
796
792
756
771
954
1326
1607
1485
754
657
709
779
805
831
843
861
874
889
913
906
893
906
920
942
962
985
1012
1040
1068
1091
1112
1119
1126
1115
1096
1044
969
876
803
739
711
692
693
692
700
698
705
708
714
719
725
726
733
741
742
749
748
754
754
761
757
762
761
759
752
742
734
725
718
713
714
707
706
716
740
745
751
745
753
747
746
736
731
727
731
731
712
684
804
1123
1540
1535
790
535
589
658
696
718
732
755
767
790
801
820
828
849
863
886
901

FIM:
29/11/2024 10:26:06
