INICIO:
29/11/2024 10:24:06
Leitura(ECG)
811
723
735
780
849
917
966
998
995
928
834
753
687
650
631
627
627
651
634
554
465
395
334
286
241
207
183
174
162
157
152
160
166
178
188
206
219
237
254
269
287
314
341
355
365
442
546
657
764
870
965
1026
1077
1120
1154
1172
1193
1193
1194
1194
1203
1171
1156
1304
1595
1611
1608
1394
1062
1101
1123
1153
1175
1190
1202
1212
1213
1218
1223
1236
1245
1253
1267
1278
1297
1317
1335
1335
1346
1345
1333
1303
1250
1163
1065
972
907
860
839
832
834
834
844
852
851
857
860
860
854
858
859
865
838
816
811
812
815
820
818
818
813
815
815
818
813
812
803
807
802
798
796
781
765
755
740
725
741
742
742
735
725
719
720
700
689
674
674
676
665
627
635
829
1202
1570
1226
498
472
537
591
621
637
658
672
691
699
716
739
762
766
787
804
829
851
877
916
947
981
1006
1019
1022
1019
987
917
822
746
675
618
583
580
575
580
606
616
630
644
661
678
702
729
755
731
734
743
759
764
773
779
784
786
784
773
784
803
785
764
762
756
763
779
789
792
799
809
812
808
806
820
817
839
857
862
854
856
854
849
836
829
819
821
822
809
765
781
1011
1403
1611
1355
625
612
657
701
732
787
799
802
806
809
816
820
830
845
857
880
899
924
959
992
1016
1034
1038
1036
1013
961
867
772
683
632
598
582
580
586
584
599
609
614
625
633
642
652
665
671
687
689
699
702
706
713
721
724
731
730
739
740
740
744
745
749
754
756
759
764
767
787
755
764
785
802
816
843
849
864
891
913
922
927
929
933
932
925
916
910
899
894
896
876
835
891
1165
1585
1612
1226
689
693
744
787
811
830
844
855
873
879
892
901
912
927
942
956
973
996
1017
1043
1067
1094
1110
1119
1119
1112
1076
1004
915
830
754
701
674
668
665
658
655
651
653
654
655
655
660
661
669
668
674
672
678
681
684
684
692
696
696
701
705
707
709
713
718
720
723
734
738
744
742
749
746
752
751
774
762
766
775
784
793
790
798
804
798
797
794
802
809
792
755
808
1084
1495
1606
1166
607
629
751
778
813
835
858
882
904
920
934
951
966
988
1006
1028
1042
1067
1093
1125
1143
1160
1157
1145
1123
1067
978
886
804
741
705
689
689
691
692
700
708
715
721
724
734
740
745
752
761
765
768
762
765
769
771
767
768
769
775
776
776
777
774
775
772
772
772
781
771
771
781
785
775
765
767
763
752
738
728
722
721
715
683
678
866
1240
1592
1230
501
495
572
628
675
698
727
741
754
769
793
813
830
838
857
880
902
927
943
979
1020
1046
1068
1086
1090
1086
1052
991
895
809
726
674
644
633
630
636
638
643
651
660
688
707
726
739
765
777
789
797
815
819
825
825
835
837
835
831
836
840
835
839
841
847
841
837
838
858
876
880
876
872
862
860
852
846
836
838
830
806
775
872
1167
1580
1602
960
588
643
698
744
771
787
803
818
838
843
872
866
859
865
895
914
936
1021
1053
1077
1083
1083
1075
1054
1009
933
832
744
670
627
604
599
589
594
607
616
618
629
635
643
652
663
670
670
679
684
687
691
702
704
705
711
719
716
725
725
734
734
740
748
748
744
752
765
789
802
804
808
806
807
802
789
780
781
781
766
727
823
1607
1279
619
626
695
758
789
826
845
859
882
896
917
925
939
951
967
980
1002
1022
1038
1055
1092
1115
1137
1142
1140
1134
1103
1039
942
828
727
677
659
655
665
673
682
697
708
719
728
741
744
756
759
765
772
777
773
778
779
783
775
780
782
786
782
778
779
785
776
755
756
766
774
770
757
749
745
740
733
718
716
716
706
666
702
937
1331
1597
1077
499
534
597
652
679
698
720
740
756
764
787
804
820
834
856
874
891
911
940
970
999
1032
1055
1070
1070
1058
1021
964
878
794
717
668
635
627
624
632
638
647
656
680
697
712
730
745
764
774
790
799
822
802
790
790
801
803
810
814
822
830
835
831
844
871
892
890
880
878
876
875
866
857
848
855
843
802
824
1045
1421
1611
1352
619
615
677
730
757
777
795
812
825
843
852
868
878
894
903
919
935
958
984
1012
1035
1098
1099
1074
1038
977
883
787
699
631
595
571
569
573
574
572
586
590
600
608
618
627
640
645
645
651
666
669
674
683
686
687
690
699
700
704
713
732
747
759
761
767
768
769
764
759
748
749
751
758
696
736
997
1415
1599
1045
518
580
641
706
738
762
813
834
867
889
914
942
962
984
1005
1033
1058
1088
1115
1144
1155
1167
1167
1158
1118
1055
965
874
795
746
715
709
700
705
712
721
722
730
743
751
758
766
770
771
774
778
781
783
785
781
790
787
783
780
788
791
793
792
791
787
789
783
792
809
823
834
831
830
814
795
768
761
750
724
679
751
1023
1442
1578
907
490
545
600
647
671
695
711
725
745
757
782
790
822
817
816
831
862
888
926
968
1008
1035
1060
1070
1070
1050
1005
925
839
760
697
661
646
646
646
648
658
673
670
684
696
708
710
720
721
731
735
744
748
756
769
785
796
804
813
819
832
836
840
838
845
847
855
854
858
858
859
851
864
883
892
889
884
883
881
872
859
855
842
848
847
825
788
867
1160
1576
1606
1017
608
660
713
759
774
795
816
829
841
856
869
881
897
899
917
937
954
968
996
1023
1050
1093
1086
1076
1009
909
811
723
654
602
584
582
567
576
590
604
609
622
630
644
647
655
662
674
679
688
690
702
703
711
719
718
718
721
720
720
728
734
737
737
742
746
758
759
760
761
762
760
763
768
789
808
821
821
821
810
813
813
813
811
808
807
748
817
1095
1519
1608
1204
633
675
729
789
820
844
861
881
893
908
926
939
950
960
973
988
1004
1021
1046
1074
1103
1127
1148
1158
1158
1145
1110
1038
950
856
772
718
692
680
694
680
661
663
675
687
698
708
720
732
737
758
758
762
765
773
777
776
777
784
785
782
778
767
763
747
736
734
737
728
727
715
715
716
713
706
717
734
752
751
753
755
758
753
742
734
735
737
736
716
677
776
1090
1524
1588
912
507
584
631
681
703
728
747
769
779
800
816
831
844
857
884
902
921
941
975
998
1033
1058
1085
1099
1098
1085
917
825
756
716
686
685
690
705
707
721
733
751
756
769
774
782
787
795
796
817
794
776
778
785
790
796
803
803
811
814
813
816
822
821
823
822
828
827
829
828
833
828
823
825
827
825
839
852
863
860
854
856
850
843
828
827
815
811
803
792
749
1327
1606
1427
632
551
598
645
674
690
700
715
726
742
761
766
781
798
816
831
850
871
902
931
962
992
1029
1042
1050
1048
1033
980
899
812
727
671
633
614
610
605
619
630
629
639
644
659
669
678
683
689
698
710
717
725
725
729
735
739
739
757
744
726
735
756
777
783
806
827
847
853
863
868
879
882
884
880
884
889
910
916
919
914
911
912
911
904
892
883
869
873
866
832
808
946
1277
1610
1593
873
628
682
736
771
794
816
828
842
858
870
887
890
903
913
928
944
962
981
1010
1034
1062
1087
1106
1112
1115
1018
924
825
725
664
622
607
596
590
586
598
601
609
614
631
630
637
644
656
659
656
663
671
679
685
692
695
702
704
707
711
726
724
725
728
743
734
756
742
712
711
727
730
744
755
762
773
798
815
817
821
832
834
831
828
819
808
810
819
793
763
1414
1610
1329
629
633
696
762
800
830
856
870
884
905
910
923
935
948
960
976
990
1004
1027
1051
1079
1109
1133
1150
1147
1145
1119
1068
978
875
795
734
693
668
673
667
676
683
691
687
697
703
713
716
724
732
738
736
741
745
750
752
754
760
756
755
763
770
763
762
746
742
735
728
718
718
707
703
720
737
748
748
756
736
713
704
705
699
700
707
722
691
681
848
1214
1603
1454
640
533
598
653
695
732
748
763
779
795
817
829
841
857
874
891
913
929
952
977
1014
1040
1069
1089
1100
1094
1085
1044
959
859
778
706
641
650
655
680
695
707
720
740
749
765
777
790
797
803
812
811
815
822
823
824
827
820
821
822
822
821
825
824
827
824
827
827
829
821
826
827
841
855
864
858
859
860
846
842
837
823
815
826
818
780
763
931
1282
1610
1301
583
569
627
687
725
750
813
826
830
832
844
851
854
857
873
896
915
940
969
999
1027
1047
1051
1054
1033
990
916
825
738
676
633
605
601
606
603
610
617
630
640
647
658
664
677
683
684
690
701
706
713
710
723
730
739
734
733
739
744
749
752
755
760
763
762
763
761
767
764
812
816
837
855
853
855
860
857
855
854
856
847
811
874
1140
1552
1608
1194
645
668
723
777
801
825
845
865
871
877
894
904
915
946
935
934
947
972
997
1034
1062
1087
1112
1132
1129
1117
1089
1022
936
843
769
711
688
672
670
672
683
697
707
707
712
715
722
731
726
726
716
710
706
700
693
693
683
687
685
689
694
692
687
698
702
696
690
713
735
755
760
753
759
762
756
747
747
738
742
743
709
718
921
1289
1603
1331
573
550
618
672
704
724
748
767
779
796
808
820
837
863
879
899
915
944
965
998
1023
1058
1095
1099
1097
1062
1001
917
841
774
731
695
674
676
698
707
715
729
747
758
772
779
787
795
806
808
814
811
819
823
818
823
822
825
820
821
820
818
814
823
809
809
826
842
844
849
841
837
830
823
805
799
799
796
772
731
830
1137
1552
1599
921
528
603
724
746
757
761
763
769
780
787
789
802
819
835
857
877
906
940
974
989
1022
1036
1038
1033
1013
944
859
768
685
631
602
585
588
594
606
613
623
633
643
651
655
666
676
685
694
702
707
718
719
730
739
720
694
692
700
717
730
744
749
755
764
771
773
803
835
851
861
867
880
878
881
874
873
875
885
848
837
1008
1363
1610
1569
799
641
701
758
796
819
844
854
870
887
895
902
915
925
942
957
971
986
1011
1033
1059
1084
1109
1120
1125
1127
1104
1052
971
884
797
731
684
668
663
663
667
675
681
693
699
712
715
730
730
721
713
710
708
701
701
695
696
689
688
689
695
692
697
707
704
711
715
717
718
724
725
729
744
724
709
707
713
732
759
781
790
799
799
810
806
810
804
792
798
806
792
754
785
1026
1431
1609
1258
607
623
674
726
750
764
776
792
807
825
840
878
898
926
961
988
1008
1039
1080
1110
1134
1151
1167
1170
1156
1110
1044
957
867
793
748
721
717
713
714
723
733
736
741
747
754
764
770
778
791
782
779
790
787
792
792
786
789
796
794
800
792
795
794
799
790
792
794
797
798
797
802
799
798
799
799
797
824
825
820
808
786
745
733
721
717
708
711
719
689
671
797
1138
1559
1523
737
498
564
622
666
695
718
737
746
770
784
800
811
827
845
861
878
895
918
947
978
1013
1042
1061
1071
1075
1070
1028
960
869
780
714
663
634
629
633
637
642
648
653
670
673
681
714
722
737
753
772
784
796
807
814
816
825
827
831
830
837
837
832
834
839
844
841
839
844
841
845
845
839
853
866
879
871
871
868
867
858
849
838
830
833
824
795
763
974
1327
1610
1461
649
559
631
690
733
757
782
799
811
826
845
861
871
888
908
958
974
987
1000
1025
1042
1056
1057
1061
1039
995
927
840
743
671
616
589
576
582
579
584
587
595
605
617
626
638
648
647
655
664
681
690
699
696
702
711
720
715
726
725
730
730
733
738
748
752
751
765
771
770
768
770
769
776
797
809
810
817
823
823
802
803
814
820
836
819
793
904
1225
1604
1609
1048
649
690
744
790
825
841
859
874
905
895
876
877
902
920
940
959
990
1015
1040
1070
1105
1121
1140
1152
1152
1139
1098
1019
925
836
759
715
692
682
676
686
693
704
701
705
713
720
720
724
733
739
743
749
757
762
755
742
733
723
719
709
706
698
701
692
698
698
704
698
701
701
708
715
711
711
718
727
749
763
768
782
772
775
776
775
767
766
759
767
768
741
708
813
1131
1563
1585
890
550
602
656
704
729
748
768
785
810
815
829
840
860
878
901
932
933
927
1009
1050
1088
1121
1138
1143
1118
1072
1000
910
819
771
736
726
726
728
733
747
754
763
768
776
777
784
794
799
799
799
802
804
802
802
802
802
802
801
799
792
798
802
806
805
800
795
801
800
805
802
803
801
796
800
820
827
834
839
833
832
827
823
822
792
788
766
720
776
1052
1459
1595
1001
462
528
594
643
664
684
705
721
740
745
763
781
790
804
831
849
870
896
924
958
987
1018
1046
1063
1070
1074
1041
955
844
747
670
625
600
597
606
613
622
636
648
661
672
681
681
693
706
714
725
737
743
745
750
754
764
776
783
792
803
814
827
834
845
852
860
850
849
851
855
869
885
897
893
891
886
884
880
868
854
857
853
851
811
795
946
1298
1609
1578
802
605
668
712
746
770
791
811
828
843
856
866
881
887
908
920
937
955
972
998
1033
1067
1089
1106
1114
1107
1094
930
828
736
664
620
594
588
588
589
591
602
601
606
630
612
591
600
618
626
642
654
652
669
679
678
688
697
705
712
715
719
724
728
735
738
744
745
753
756
763
759
765
775
795
805
808
805
803
803
800
795
789
789
795
801
759
745
899
1240
1598
1513
625
690
743
777
809
832
858
877
899
908
925
942
958
965
985
1007
1026
1039
1064
1088
1117
1134
1148
1152
1143
1107
1053
982
893
809
749
716
702
702
698
709
714
720
727
735
741
753
755
762
764
775
780
783
779
779
775
784
796
774
748
748
754
765
771
778
786
797
796
781
781
766
755
768
789
787
782
777
780
771
768
756
744
741
745
741
704
731
944
1327
1598
1230
540
549
602
662
691
716
731
751
765
787
799
814
832
844
862
880
901
917
946
972
1006
1035
1059
1076
1089
1085
1068
1016
950
856
771
705
670
645
640
642
661
671
686
707
728
748
759
780
784
787
799
806
812
812
812
816
820
822
822
830
825
822
832
826
819
821
821
814
831
849
875
848
815
804
807
808
808
805
813
819
805
762
818
1075
1473
1610
1192
571
619
683
732
767
791
810
828
837
846
860
866
879
880
929
938
952
960
978
1001
1021
1033
1036
1031
1011
969
884
794
706
641
592
575
564
567
574
583
586
599
606
616
628
638
648
652
663
665
672
682
693
691
702
705
711
710
717
720
721
727
734
726
740
741
738
742
766
783
796
804
801
802
801
799
791
784
788
758
749
929
1300
1610
1515
740
642
736
765
776
802
824
842
874
894
907
920
934
951
967
980
996
1014
1037
1066
1098
1117
1132
1144
1146
1143
1119
1065
983
891
810
748
708
686
682
684
689
696
710
709
713
717
734
735
741
741
756
759
763
762
766
770
764
766
770
772
767
761
748
741
731
731
728
720
709
727
745
760
759
752
756
751
742
728
723
725
733
716
689
736
983
1379
1593
1067
528
568
630
676
703
725
744
754
777
790
809
817
824
843
861
884
902
937
943
953
983
1018
1046
1065
1071
1066
1038
981
907
832
748
690
654
661
681
707
724
734
754
766
780
788
795
801
808
812
822
823
828
829
827
824
827
825
820
822
822
820
823
826
821
815
817
835
853
861
861
857
845
840
829
824
812
812
814
789
755
862
1183
1581
1586
855
547
629
687
731
759
781
792
807
832
841
847
887
901
902
909
921
941
965
986
1005
1019
1031
1030
1020
990
944
863
773
693
644
601
586
579
585
595
612
600
585
593
610
617
635
646
663
674
682
693
701
706
714
725
728
732
732
739
748
748
750
757
761
767
763
784
802
817
816
815
816
809
803
795
790
787
756
780
1006
1387
1610
1403
656
633
705
767
802
832
855
867
883
894
903
908
918
938
955
980
988
1006
1017
1036
1068
1100
1114
1127
1135
1129
1097
1045
968
883
794
731
695
674
668
670
677
681
690
696
708
716
726
727
730
730
743
746
749
751
753
752
753
752
761
764
734
711
701
691
684
693
711
729
742
754
750
754
753
747
742
740
737
745
732
697
728
965
1356
1605
1163
537
570
625
682
704
729
735
759
773
794
806
819
831
854
864
882
892
918
943
977
1006
1033
1058
1066
1066
1057
1034
981
908
825
752
693
664
647
651
665
691
706
719
734
763
777
782
792
801
809
815
824
821
820
817
824
824
826
829
831
824
824
826
825
829
831
822
816
827
846
863
865
864
859
857
851
851
829
824
833
806
743
761
971
1355
1610
1333
643
625
679
735
755
782
798
813
830
850
864
877
911
918
928
927
934
952
985
996
1008
1022
1031
1027
1014
974
909
831
755
679
632
611
596
593
597
605
615
626
632
647
650
658
664
671
674
680
686
690
697
707
710
710
715
720
723
733
737
738
735
741
749
745
741
755
787
798
797
799
809
808
800
791
785
793
771
760
900
1247
1604
1584
838
614
689
745
791
822
841
863
879
898
912
921
942
937
932
942
955
976
1008
1042
1069
1092
1114
1125
1131
1129
1118
1073
997
904
825
764
712
691
695
695
701
708
714
717
723
728
734
732
740
747
745
752
755
762
762
761
760
757
769
761
748
738
726
718
712
721
737
744
741
737
735
728
726
718
715
711
716
703
665
707
963
1354
1593
1073
470
530
596
653
686
703
727
745
758
776
793
806
819
837
859
882
901
922
946
974
1000
1035
1051
1064
1060
1054
1030
981
901
815
728
666
619
604
606
635
661
675
703
725
749
764
784
798
808
813
825
826
832
838
844
845
843
845
847
851
847
843
845
847
834
833
849
860
868
873
870
869
859
851
843
833
819
821
823
790
781
940
1291
1607
1478
685
597
656
712
747
777
790
800
810
831
836
851
862
875
888
932
950
956
976
991
1003
1010
1014
1010
1003
966
906
827
751
679
631
602
584
585
589
599
604
610
624
634
634
645
655
665
671
679
681
687
687
696
712
701
686
689
698
710
712
720
727
741
744
754
763
771
769
769
781
808
829
829
830
829
833
827
822
807
817
801
778
849
1115
1521
1607
1156
659
691
750
803
822
842
860
873
883
903
912
921
933
944
954
969
979
998
1017
1040
1064
1083
1096
1108
1107
1097
1074
1033
965
878
809
742
704
689
684
682
695
701
711
720
727
734
737
740
745
750
752
752
757
758
757
759
761
771
760
751
741
734
728
718
717
712
705
705
719
737
760
738
718
715
708
710
707
710
719
723
712
687
798
1103
1508
1544
801
494
592
656
703
722
748
765
783
797
815
828
844
855
871
893
904
923
937
966
995
1020
1041
1061
1064
1066
1057
1032
971
897
813
746
650
654
675
689
704
726
748
754
770
775
786
791
800
802
809
807
815
818
822
815
815
815
811
815
813
816
817
817
811
820
842
853
859
857
845
848
839
832
819
821
819
812
783
782
948
1299
1607
1427
638
576
648
699
753
756
754
765
788
807
825
844
860
904
915
927
940
962
980
993
1008
1019
1022
1017
996
958
888
813
729
668
622
603
594
595
600
600
609
623
626
634
648
654
664
671
673
680
687
691
698
698
703
701
710
713
722
722
728
742
759
767
781
785
787
782
784
776
773
763
768
773
766
727
762
1001
1411
640
572
650
727
775
806
824
845
871
886
904
919
931
939
948
964
982
1002
1021
1042
1064
1095
1114
1123
1116
1111
1093
1059
966
862
770
716
685
678
679
693
707
714
718
731
738
752
763
767
777
779
784
781
787
784
782
789
793
794
793
789
787
784
784
778
805
818
813
803
779
767
758
743
727
730
723
718
685
681
835
1173
1564
1330
578
519
589
646
671
690
708
726
741
758
779
790
811
826
842
854
876
900
929
945
973
999
1025
1036
1038
1029
1015
979
925
849
772
711
674
656
646
648
651
661
669
678
687
696
703
717
731
740
753
769
787
797
818
802
788
787
796
816
836
849
863
877
879
874
879
870
866
853
853
852
851
823
815
965
1298
1608
1544
748
603
674
734
773
790
811
821
837
855
870
882
889
894
909
925
945
959
980
995
1023
1049
1064
1074
1073
1067
1048
1004
934
738
688
655
636
621
618
618
625
632
637
640
646
647
656
660
666
663
667
673
673
678
685
685
695
691
695
697
701
704
711
727
752
766
770
765
765
763
761
751
749
754
753
746
720
811
1101
1592
1442
613
483
580
648
693
725
755
773
791
807
828
842
858
900
919
950
983
1022
1052
1083
1106
1128
1138
1139
1126
1100
1034
959
877
807
760
729
721
722
725
727
741
748
756
763
768
771
781
782
783
779
783
790
788
783
785
786
792
788
785
788
784
783
787
805
823
829
825
825
821
811
799
790
789
792
783
753
746
923
1562
802
535
593
649
683
698
708
724
731
738
752
768
781
796
807
829
847
867
890
919
945
968
995
1020
995
973
960
931
867
793
729
679
640
628
627
633
642
649
661
665
681
691
699
700
710
714
722
728
736
738
745
752
752
754
753
757
758
763
772
767
766
794
826
845
851
863
873
869
859
859
864
864
870
849
823
918
1212
1595
1594
922
642
694
759
788
812
833
849
862
867
877
891
907
926
937
943
955
973
984
1002
1030
1050
1058
1070
1079
1067
1060
1031
981
905
834
765
723
692
682
682
686
693
701
714
724
727
742
739
741
714
684
676
671
678
679
679
683
693
695
695
696
706
709
713
712
712
727
745
770
778
783
785
790
769
764
761
761
761
766
740
736
889
1230
1591
1400
626
545
619
687
719
748
768
778
791
813
831
836
854
866
882
901
921
937
960
980
1006
1027
1052
1054
1046
1036
998
931
860
806
762
738
730
737
744
745
751
765
776
782
783
787
795
801
799
803
803
799
801
805
805
799
807
804
806
803
801
800
797
788
797
810
830
841
849
824
800
784
785
777
778
787
794
773
764
907
1234
1597
1493
695
549
637
699
778
788
799
802
802
805
813
816
823
835
846
863
883
911
935
959
977
988
994
998
984
952
895
828
748
685
637
615
609
607
605
608
620
633
643
651
660
661
671
681
686
691
696
692
697
702
709
710
723
723
722
730
734
731
734
750
778
793
794
795
800
789
785
796
810
820
804
797
921
1238
1603
1576
833
620
697
760
800
822
841
859
877
885
912
907
899
907
923
940
963
983
1006
1029
1056
1077
1100
1102
1103
1095
1081
1041
968
889
821
766
724
705
699
701
704
706
713
721
726
735
736
745
749
748
744
751
758
759
762
756
750
742
732
723
716
707
699
706
732
744
752
739
741
737
730
720
718
714
720
721
683
708
904
1265
1587
1180
523
541
613
675
700
725
737
757
768
793
803
820
831
844
864
885
900
916
935
969
988
1005
1020
1027
1026
1021
1006
964
900
827
762
694
653
639
658
675
706
726
742
762
779
799
806
812
818
827
827
835
835
837
836
843
844
845
842
844
841
845
835
847
864
876
877
871
867
859
844
835
826
828
829
817
796
792
943
1278
1605
1417
665
592
663
718
744
765
779
792
814
827
837
851
861
874
889
904
960
970
980
985
994
1003
994
987
977
940
882
813
744
678
635
605
603
596
602
603
615
621
630
639
654
656
660
668
678
682
689
684
689
694
695
701
702
706
726
713
688
688
713
745
760
770
779
788
774
780
774
776
779
784
771
748
849
1149
1542
1577
854
663
738
773
802
826
852
874
894
913
931
943
963
969
982
1002
1020
1039
1064
1081
1100
1113
1112
1108
1102
1074
1023
950
863
804
754
727
707
708
712
717
723
730
743
748
748
756
768
775
773
775
775
775
782
784
779
777
778
778
780
771
770
780
808
819
827
822
805
795
773
763
753
748
712
697
827
1152
1535
1393
587
458
547
641
654
661
673
696
712
740
759
778
797
815
837
855
883
911
932
957
993
1011
1025
1037
1035
1025
1005
961
889
805
735
683
654
638
637
640
646
654
667
672
679
682
692
701
706
713
715
726
730
742
747
752
770
786
792
798
810
837
861
875
875
874
872
864
861
847
847
841
840
813
825
982
1317
1608
1455
681
614
683
745
781
803
819
835
849
861
877
884
899
909
921
935
955
967
987
1006
1030
1049
1071
1077
1071
1061
1042
989
893
792
727
686
669
658
659
694
695
697
691
692
689
689
688
693
691
687
685
693
693
695
692
702
698
701
707
704
701
698
707
727
753
760
757
756
755
753
751
730
739
746
744
720
726
883
1218
1575
1327
581
542
622
684
713
738
760
781
797
803
824
838
851
868
890
900
918
942
970
1021
1040
1061
1075
1082
1077
1050
1001
936
859
807
771
755
748
747
748
767
771
778
784
795
797
803
808
809
812
812
814
816
810
804
815
800
777
773
779
786
793
800
805
804
812
832
851
857
864
861
856
839
833
818
819
826
824
800
772
870
1163
1555
1551
836
679
730
736
740
743
753
759
767
773
788
795
803
817
833
848
867
887
907
943
956
962
973
981
969
949
910
848
779
716
673
645
626
620
619
626
634
643
652
660
671
681
690
693
700
705
713
713
716
719
727
725
731
734
741
742
748
752
744
746
757
780
804
812
823
825
827
833
837
846
847
840
819
994
1312
1607
1472
701
599
684
755
796
824
843
865
882
896
909
922
932
944
954
969
987
998
1010
1034
1054
1076
1088
1095
1091
1078
1056
1018
951
876
808
751
708
684
682
680
685
683
697
707
719
722
732
735
740
743
745
749
740
723
715
712
707
701
690
692
687
689
701
720
733
743
741
742
736
729
725
719
718
730
723
693
729
946
1305
1589
1162
486
528
608
675
704
732
755
775
780
800
814
827
835
850
871
892
917
939
974
977
976
995
1015
1021
1023
1017
994
940
874
803
676
665
682
699
714
725
738
752
769
780
788
797
807
818
826
829
827
826
819
819
817
821
815
825
823
823
815
825
841
858
862
852
847
844
834
826
818
819
819
809
769
803
1023
1389
1606
1199
575
604
668
726
752
769
785
800
817
830
842
853
867
883
896
947
953
968
982
995
1001
1004
996
987
958
913
849
773
697
647
609
599
598
600
607
606
621
631
636
637
650
657
678
665
656
654
661
671
683
690
701
705
712
721
731
734
741
742
744
762
782
801
809
808
807
807
796
796
784
790
786
779
742
773
983
1366
678
571
653
724
766
798
828
847
867
882
898
916
927
932
955
975
991
1008
1028
1045
1068
1079
1094
1102
1106
1097
1074
1036
964
896
833
773
723
707
711
716
711
721
723
733
736
748
753
762
773
776
772
771
777
784
778
778
783
784
783
780
785
783
787
786
785
792
788
780
771
755
781
771
754
742
739
737
740
739
729
720
721
731
721
696
747
989
1372
1579
1019
524
568
638
694
719
738
760
770
787
801
813
821
835
850
865
885
907
928
946
967
993
1016
1027
1036
1032
1025
1007
965
899
829
758
715
681
670
671
670
670
693
711
720
737
755
779
788
794
804
819
817
817
819
823
820
824
831
830
828
828
833
832
833
830
832
829
839
834
834
834
839
835
846
864
876
872
869
866
864
858
842
832
832
828
819
815
761
821
1092
1490
1595
979
560
628
693
746
766
790
807
820
839
877
880
882
889
895
906
915
931
946
963
981
994
992
990
983
972
931
876
792
726
669
629
606
601
606
606
611
628
634
637
649
658
670
673
680
686
697
698
700
697
705
710
718
715
723
727
723
727
735
744
744
751
755
757
761
761
766
781
792
813
815
821
836
835
831
837
845
852
859
836
816
924
1239
1597
1604
953
607
681
744
796
827
841
857
874
889
910
903
896
901
916
946
965
980
1004
1036
1059
1079
1097
1113
1117
1111
1084
1046
980
901
827
762
716
696
697
686
695
696
708
714
724
722
728
735
740
754
755
762
755
740
726
725
717
716
702
696
695
697
696
700
696
694
697
698
700
706
721
742
752
757
757
758
764
754
756
738
750
755
748
721
726
893
1245
1593
1358
591
532
605
674
716
743
761
776
790
801
825
832
844
859
879
891
920
936
956
977
1008
1029
1052
1066
1068
1023
949
872
803
755
727
709
711
727
737
750
756
769
778
789
792
801
802
814
821
820
821
826
823
826
823
816
817
814
815
810
814
812
814
808
816
812
818
806
802
808
809
809
832
850
858
853
845
845
836
824
819
814
806
811
803
775
758
892
1595
978
552
590
643
685
700
707
718
726
739
747
764
772
790
797
819
838
858
873
900
932
962
983
1002
1011
1015
999
973
932
862
790
723
677
641
625
624
627
628
638
646
666
655
649
654
667
675
690
702
712
714
723
730
738
741
748
756
755
760
761
761
774
788
802
815
824
832
849
879
899
903
905
903
902
898
888
878
872
872
875
861
824
848
1060
1433
1607
1298
668
658
729
776
799
819
832
846
864
873
878
885
901
912
928
942
955
978
999
1017
1032
1058
1067
1080
1073
1064
1040
1001
936
856
783
732
699
687
672
687
690
684
679
680
680
676
677
677
681
684
683
685
687
684
690
685
685
690
704
685
667
668
676
684
695
707
711
736
764
782
782
785
784
784
773
775
775
777
774
761
737
834
1127
1516
1570
869
544
614
674
723
747
770
790
799
815
829
845
853
874
888
934
958
991
1024
1055
1088
1123
1128
1119
1124
1098
1052
970
889
819
772
741
727
717
717
725
735
733
741
754
760
762
771
780
785
787
787
788
788
801
795
791
790
798
793
792
790
792
789
790
785
802
824
835
831
825
827
823
813
798
790
789
796
774
738
856
1585
926
511
571
620
668
695
715
723
733
751
762
766
786
797
816
832
854
872
891
915
958
976
1003
1012
1029
1027
1014
972
912
831
756
689
648
615
606
609
615
622
632
639
648
665
684
676
680
698
701
707
707
717
719
726
728
738
740
743
746
750
748
744
785
807
827
836
847
849
853
851
851
855
855
848
819
837
1031
1392
1611
1416
689
644
693
770
812
837
834
847
861
882
892
906
916
932
942
957
972
996
1011
1056
1055
1054
1063
1075
1073
1069
1039
985
916
841
772
725
699
683
681
685
699
708
715
716
730
734
738
753
745
742
731
724
719
714
705
707
705
713
715
727
729
731
737
758
770
784
790
805
812
810
808
808
815
825
817
793
799
969
1303
1599
1421
627
546
604
665
682
692
691
700
697
705
708
706
705
714
714
724
736
742
757
788
833
901
964
1017
1060
1079
1074
908
841
781
751
737
736
745
749
769
785
799
817
840
855
898
888
876
870
875
884
888
886
893
893
902
898
898
890
878
859
841
838
853
851
836
814
786
757
726
702
689
683
669
649
607
665
916
1314
1535
909
355
434
495
556
582
609
626
640
661
688
704
753
771
790
841
892
957
992
1041
1080
1100
1104
1122
1137
1166
1175
1152
1117
1102
1110
1117
1133
1155
1179
1197
1212
1206
1197
1183
1172
1155
1105
994
908
848
804
754
719
694
690
680
678
687
711
714
706
706
717
742
755
759
764
744
717
707
695
702
717
735
718
683
750
1604
1312
557
544
632
719
776
824
860
887
890
902
892
885
876
896
952
1045
1119
1180
1221
1252
1270
1280
1276
1256
1232
1217
1176
1085
978
880
790
723
689
667
666
669
669
657
670
666
663
659
655
638
626
615
612
612
614
620
618
603
590
575
553
539
525
514
492
467
455
433
396
371
350
337
314
301
297
287
247
244
431
803
1212
947
128
86
186
259
316
351
385
405
434
464
519
530
546
582
637
686
739
786
846
911
970
1024
1066
1090
1105
1113
1087
1035
951
884
854
860
873
907
947
963
930
931
955
981
987
978
946
891
750
743
759
775
806
828
857
877
897
914
947
959
974
995
1029
1059
1076
1075
1075
1088
1086
1091
1075
1077
1075
1079
1052
1019
1112
1440
1613
1613
1293
803
828
892
936
969
988
1002
1009
1018
1018
1023
1036
1038
1050
1068
1083
1078
1087
1093
1119
1140
1173
1196
1217
1209
1204
1154
1064
782
727
692
669
654
626
607
585
565
548
544
528
522
502
505
486
477
458
449
433
433
424
425
413
412
401
397
392
408
426
434
433
423
423
417
416
407
412
410
419
410
382
470
777
1191
1378
667
229
330
413
475
507
530
548
564
577
593
611
615
606
604
696
810
921
1045
1169
1283
1372
1427
1449
1474
1480
1449
1394
1318
1257
1208
1188
1171
1174
1184
1201
1197
1202
1191
1200
1190
1183
1177
1181
1174
1162
1144
1139
1136
1110
1067
1061
1059
1060
1076
1081
1082
1082
1067
1035
1026
1008
995
983
987
965
923
927
1137
1513
1614
1550
798
700
737
792
845
853
853
860
854
854
866
888
900
921
917
908
893
880
872
877
864
837
804
769
710
612
465
276
120
2
0
0
0
0
0
0
0
1
0
0
0
0
112
266
348
385
412
436
451
470
490
518
546
579
606
633
641
659
673
680
671
675
684
685
682
739
1057
1527
1611
1238
726
767
861
932
964
997
1058
1101
1138
1181
1198
1185
1205
1234
1270
1306
1346
1378
1420
1457
1496
1518
1533
1537
1526
1492
1432
1346
1242
1158
1097
1064
1051
1058
1063
1069
1073
1085
1087
1098
1101
1111
1113
1124
1128
1133
1136
1136
1134
1131
1131
1130
1132
1129
1130
1129
1191
1189
1175
1160
1146
1122
1110
1092
1084
1082
1072
1035
981
1054
1324
1608
1603
1101
638
650
698
720
681
604
518
446
395
374
516
464
409
354
300
313
414
514
587
678
788
889
935
967
1025
1017
984
924
871
823
800
779
771
753
713
651
620
598
588
576
569
555
547
500
492
504
516
533
531
549
561
579
578
580
574
586
601
617
619
619
622
624
602
580
574
570
579
581
559
558
741
1104
1521
1282
527
479
556
623
662
680
710
729
747
761
784
799
816
839
857
878
897
925
951
984
1010
1040
1053
1069
1072
1068
1033
982
899
825
692
671
660
651
651
649
668
674
689
690
701
701
711
710
719
721
729
734
738
737
750
730
714
706
710
724
754
778
790
796
796
795
790
793
781
790
791
792
751
773
982
1365
1603
1388
587
567
637
693
727
756
776
796
811
824
842
856
867
877
895
913
932
987
1018
1050
1077
1091
1102
1097
1078
1038
971
896
806
758
724
704
696
704
707
720
725
739
746
757
758
769
770
782
784
785
786
787
786
784
781
775
793
800
814
813
820
810
813
806
806
798
798
787
785
763
734
811
1093
1476
1603
1010
468
556
623
680
741
741
784
800
801
813
812
826
836
855
869
892
911
945
966
988
996
1002
997
980
944
875
803
727
676
636
625
617
619
617
627
630
641
645
660
664
681
688
698
699
705
708
716
718
722
724
721
718
718
732
750
776
780
781
774
780
773
774
765
773
770
772
750
1220
1587
1489
676
527
635
715
780
816
853
868
888
897
918
929
945
953
968
981
996
1012
1032
1050
1065
1086
1096
1105
1101
1091
1063
1018
942
870
798
755
723
729
697
683
685
703
712
732
741
756
760
774
779
786
788
792
799
801
801
798
797
790
788
800
829
837
833
821
805
783
766
753
746
734
697
731
947
1308
1594
1120
459
500
570
637
667
697
709
729
742
761
774
791
804
826
842
860
880
904
926
952
977
990
1002
1004
1005
990
963
904
839
764
710
662
648
634
638
639
649
656
668
677
686
694
702
711
719
724
726
734
740
753
760
779
783
790
794
818
849
869
879
873
871
864
868

FIM:
29/11/2024 10:25:06
