Tempo(ms),Leitura(ECG)
8,709
16,680
24,674
31,681
39,691
46,699
67,727
75,738
83,751
90,762
98,770
106,781
113,796
125,819
133,811
141,788
148,762
156,738
163,715
171,689
179,667
186,649
194,626
202,611
209,601
217,593
224,583
232,581
240,580
247,589
255,616
263,631
270,691
400,980
408,988
416,995
423,1002
431,1007
439,1007
446,1010
454,1019
462,1026
469,1028
477,1033
484,1040
492,1042
500,1040
507,1030
515,1019
523,1003
530,988
538,970
545,951
553,933
574,899
582,891
590,885
597,879
605,873
613,871
620,869
628,867
635,864
643,861
651,857
658,852
666,849
674,843
681,839
691,836
699,825
707,817
714,814
722,811
729,809
737,803
745,802
752,806
760,815
768,825
775,826
783,828
790,826
798,826
806,823
813,820
821,816
829,809
836,799
844,799
852,801
859,804
867,800
874,799
882,800
890,802
897,806
905,792
913,869
920,1043
928,1216
936,1168
943,896
1087,840
1094,848
1102,858
1110,869
1117,881
1125,889
1132,893
1140,890
1148,887
1156,880
1163,868
1171,857
1178,844
1186,829
1194,817
1201,808
1209,799
1217,793
1224,790
1232,789
1242,792
1249,788
1257,786
1265,789
1272,794
1280,798
1288,801
1295,803
1303,805
1310,807
1318,811
1326,811
1333,814
1341,811
1349,809
1356,810
1364,808
1372,802
1379,800
1387,808
1394,815
1402,823
1410,825
1417,824
1425,824
1433,825
1440,822
1570,1096
1591,732
1599,758
1606,770
1614,766
1622,771
1629,775
1637,775
1644,774
1652,775
1660,773
1668,772
1675,770
1683,772
1690,773
1698,775
1706,780
1713,785
1721,794
1729,802
1736,811
1744,819
1751,829
1759,835
1769,830
1777,818
1784,806
1792,799
1800,792
1807,783
1815,770
1822,755
1830,744
1838,739
1845,733
1853,732
1861,732
1868,735
1876,737
1884,741
1891,746
1899,752
1906,760
1914,763
1922,763
1929,766
1937,769
1945,772
2074,809
2095,813
2103,817
2111,821
2118,826
2126,835
2134,833
2141,839
2149,947
2156,1128
2164,1196
2172,1101
2179,761
2187,697
2195,745
2202,778
2210,805
2218,818
2225,830
2233,843
2240,849
2248,851
2256,854
2263,857
2271,860
2279,865
2286,872
2296,876
2304,872
2311,870
2319,878
2327,887
2334,894
2342,903
2350,913
2357,922
2365,927
2372,927
2380,917
2388,906
2395,897
2403,880
2411,865
2418,849
2426,834
2434,822
2441,814
2571,828
2579,829
2600,832
2608,831
2615,827
2623,822
2631,815
2638,802
2646,789
2654,782
2661,772
2669,766
2677,762
2684,761
2692,758
2699,758
2707,756
2715,758
2722,759
2730,760
2738,749
2745,827
2753,997
2761,1107
2768,1065
2776,757
2783,629
2791,661
2799,692
2806,717
2814,726
2824,742
2832,744
2839,744
2847,750
2854,755
2862,761
2870,766
2877,772
2885,778
2893,787
2900,796
2908,801
2915,809
2923,820
2931,829
2938,843
2946,856
3076,787
3083,790
3104,800
3112,806
3120,811
3127,816
3135,820
3143,823
3150,828
3158,829
3166,827
3173,826
3181,831
3189,836
3196,840
3204,847
3211,853
3219,856
3227,856
3234,852
3242,849
3250,848
3257,845
3265,840
3273,839
3280,842
3288,845
3295,841
3303,839
3311,841
3318,846
3326,852
3334,830
3341,878
3351,1085
3359,1219
3366,1175
3374,872
3382,728
3389,746
3397,770
3405,785
3412,791
3420,804
3427,815
3435,820
3443,823
3450,826
3580,897
3588,885
3609,844
3617,826
3624,807
3632,789
3640,775
3647,767
3655,760
3663,755
3670,753
3678,753
3686,754
3693,755
3701,755
3709,756
3716,756
3724,756
3731,754
3739,754
3747,755
3754,754
3762,747
3770,746
3777,747
3785,750
3793,758
3800,763
3808,769
3815,772
3823,775
3831,775
3838,772
3846,770
3854,767
3861,760
3869,759
3879,759
3886,756
3894,755
3902,754
3909,759
3917,764
3925,773
3932,755
3940,813
3947,985
3955,1188
3963,1194
4092,835
4113,851
4121,860
4129,872
4136,884
4144,896
4152,903
4159,907
4167,908
4174,899
4182,890
4190,882
4197,873
4205,861
4213,845
4220,832
4228,824
4236,817
4243,812
4251,810
4259,810
4266,810
4274,814
4281,817
4289,822
4297,823
4304,822
4312,824
4320,827
4327,830
4335,831
4343,830
4350,831
4358,826
4365,823
4373,822
4381,824
4388,828
4396,833
4406,840
4414,833
4421,830
4429,827
4436,823
4444,818
4452,815
4459,810
4467,811
4597,792
4618,806
4625,806
4633,805
4641,802
4649,799
4656,797
4664,794
4671,791
4679,788
4687,787
4694,789
4702,791
4710,794
4717,799
4725,799
4732,807
4740,818
4748,824
4755,828
4763,826
4771,821
4778,811
4786,802
4794,790
4801,776
4809,763
4816,751
4824,741
4832,732
4839,728
4847,727
4855,725
4862,728
4870,731
4878,737
4885,742
4893,748
4900,755
4908,758
4916,760
4923,763
4933,767
4941,761
4949,758
4956,761
4964,764
4971,767
5102,828
5123,831
5130,833
5138,840
5146,848
5153,843
5161,855
5169,980
5177,1178
5184,1270
5192,1131
5199,806
5207,752
5215,779
5222,804
5230,809
5238,817
5245,824
5253,830
5260,835
5268,837
5276,840
5283,842
5291,847
5299,849
5306,852
5314,854
5322,860
5329,865
5337,871
5344,878
5352,885
5360,894
5367,901
5375,907
5383,907
5390,904
5398,897
5406,889
5413,875
5421,864
5428,851
5436,840
5444,827
5451,815
5461,805
5469,791
5599,836
5606,840
5628,846
5635,845
5643,835
5650,824
5658,814
5666,805
5673,791
5681,783
5689,780
5697,777
5704,776
5712,771
5719,771
5727,771
5735,775
5742,755
5750,785
5758,930
5765,1109
5773,1142
5780,972
5788,689
5796,676
5803,704
5811,722
5819,726
5826,733
5834,739
5842,744
5849,752
5857,755
5864,760
5872,766
5880,770
5887,775
5895,776
5903,781
5910,789
5918,796
5926,802
5933,810
5941,820
5948,831
5956,844
5964,849
5971,850
6101,799
6111,801
6132,798
6140,798
6148,800
6155,807
6163,805
6171,806
6178,815
6186,823
6193,834
6201,843
6209,850
6216,855
6224,859
6232,853
6239,850
6247,848
6255,839
6262,840
6270,845
6278,840
6285,847
6293,850
6300,848
6308,849
6316,852
6323,857
6331,833
6339,872
6346,1028
6354,1208
6362,1238
6369,1030
6377,755
6384,752
6392,779
6400,796
6407,799
6415,807
6423,814
6430,817
6438,822
6446,827
6453,831
6461,834
6468,836
6599,870
6607,860
6614,846
6635,809
6643,797
6653,787
6661,771
6668,761
6676,759
6684,758
6691,759
6699,759
6706,758
6714,759
6722,760
6729,759
6737,757
6745,754
6752,754
6760,755
6768,759
6775,764
6783,768
6790,771
6798,774
6806,775
6813,771
6821,765
6829,764
6836,760
6844,755
6852,759
6859,761
6867,765
6874,768
6882,770
6890,773
6897,776
6905,779
6913,756
6920,813
6928,975
6935,1104
6943,1096
6951,839
6958,633
6966,677
6974,713
6981,741
7111,889
7119,897
7140,904
7148,901
7155,896
7163,885
7170,876
7181,864
7188,848
7196,833
7203,821
7211,814
7219,811
7226,810
7234,807
7242,809
7249,812
7257,819
7264,824
7272,832
7280,838
7287,839
7295,840
7303,840
7310,840
7318,838
7326,840
7333,843
7341,841
7348,844
7356,848
7364,850
7371,855
7379,852
7387,845
7394,842
7402,839
7410,834
7417,827
7425,825
7432,822
7440,822
7448,823
7455,821
7463,820
7471,823
7478,828
7486,808
7494,841
7624,845
7645,849
7653,848
7661,846
7668,848
7676,850
7684,851
7691,856
7699,857
7709,859
7717,844
7724,829
7732,815
7739,803
7747,792
7755,782
7762,770
7770,759
7778,748
7785,737
7793,728
7800,727
7808,725
7816,726
7823,730
7831,731
7839,737
7846,742
7854,745
7862,750
7869,754
7877,759
7884,759
7892,761
7900,757
7907,757
7915,762
7923,767
7930,775
7938,780
7946,782
7953,786
7961,790
7968,787
7976,784
7984,783
7991,775
7999,770
8129,760
8150,794
8157,805
8165,813
8172,822
8180,829
8188,836
8195,840
8203,845
8211,850
8218,854
8226,860
8236,866
8244,866
8251,869
8259,878
8266,891
8274,901
8282,909
8289,915
8297,916
8305,909
8312,901
8320,891
8327,879
8335,871
8343,859
8350,846
8358,833
8366,823
8373,815
8381,809
8389,808
8396,808
8404,810
8412,815
8419,819
8427,819
8435,823
8442,822
8450,821
8457,827
8465,826
8473,824
8480,825
8488,821
8496,822
8503,824
8634,840
8655,822
8663,877
8670,1046
8678,1210
8686,1187
8693,914
8701,712
8709,711
8716,726
8724,733
8731,735
8739,742
8747,747
8754,751
8764,752
8772,742
8780,739
8787,740
8795,743
8802,748
8810,754
8818,762
8825,769
8833,776
8841,788
8848,801
8856,812
8864,821
8871,830
8879,835
8886,834
8894,830
8902,821
8909,814
8917,804
8925,793
8932,779
8940,769
8947,759
8955,752
8963,748
8970,747
8978,747
8986,750
8993,755
9001,760
9131,816
9138,827
9159,829
9167,830
9175,830
9182,829
9190,831
9198,828
9205,825
9213,828
9221,832
9228,832
9236,833
9244,837
9251,842
9259,849
9266,832
9274,858
9282,993
9289,1196
9299,1244
9307,981
9315,743
9322,744
9330,770
9337,787
9345,791
9353,801
9360,812
9368,819
9376,825
9383,827
9391,829
9399,834
9406,841
9414,842
9421,844
9429,846
9437,853
9444,859
9452,866
9460,876
9467,883
9475,891
9482,897
9490,901
9498,901
9505,900
9635,816
9643,820
9664,817
9672,813
9679,807
9687,800
9695,797
9702,791
9710,782
9717,773
9725,770
9733,768
9740,775
9748,781
9756,784
9763,780
9771,777
9779,773
9786,769
9794,768
9802,765
9809,757
9817,751
9827,754
9834,749
9842,742
9850,741
9857,745
9865,749
9873,758
9880,741
9888,802
9895,976
9903,1160
9911,1155
9918,882
9926,671
9934,689
9941,720
9949,734
9957,741
9964,752
9972,761
9979,764
9987,770
9995,778
10002,784
10010,788
10140,864
10148,852
10169,818
10176,810
10184,805
10191,804
10199,803
10207,805
10214,809
10222,815
10230,820
10237,825
10245,829
10253,832
10260,835
10268,838
10276,842
10283,843
10291,846
10298,847
10306,847
10314,842
10321,838
10331,839
10339,833
10347,833
10354,838
10362,845
10369,849
10377,854
10385,852
10392,851
10400,847
10408,846
10415,843
10423,842
10553,800
10561,811
10569,818
10576,829
10584,838
10592,837
10599,835
10607,835
10614,838
10622,841
10630,842
10637,840
10645,842
10653,845
10674,857
10682,866
10689,871
10697,872
10704,873
10712,868
10720,863
10727,852
10735,838
10743,823
10750,810
10758,795
10766,781
10773,768
10781,754
10789,745
10796,739
10804,731
10811,728
10819,728
10829,731
10837,725
10967,814
10975,815
10982,808
10990,804
10997,802
11005,797
11013,792
11020,795
11028,793
11036,791
11043,789
11051,791
11059,793
11066,797
11074,800
11082,795
11089,891
11097,1069
11104,1132
11112,1056
11120,713
11127,630
11135,686
11143,717
11150,748
11158,765
11179,798
11186,808
11194,816
11202,821
11209,825
11217,833
11225,840
11232,846
11240,857
11370,861
11378,848
11385,837
11393,830
11401,825
11408,821
11416,821
11424,821
11431,821
11441,822
11449,816
11456,815
11464,814
11472,814
11479,814
11487,814
11495,815
11502,812
11510,810
11517,813
11525,819
11533,824
11540,829
11548,825
11556,824
11563,824
11571,819
11579,813
11586,811
11594,806
11601,802
11609,799
11617,798
11761,803
11768,805
11776,802
11784,797
11791,797
11799,798
11807,792
11814,792
11822,790
11829,790
11837,793
11845,797
11853,801
11860,809
11868,819
11875,829
11883,837
11891,842
11898,840
11906,834
11914,825
11921,818
11931,801
11939,776
11946,758
11954,744
11962,732
11969,724
11977,720
11985,718
11992,719
12000,723
12007,730
12015,734
12145,814
12153,821
12160,822
12168,822
12176,820
12183,817
12191,811
12198,805
12206,800
12214,796
12221,797
12229,799
12237,799
12244,797
12265,814
12273,797
12281,848
12288,997
12296,1165
12303,1195
12311,987
12319,735
12326,740
12334,769
12342,795
12349,806
12357,816
12365,827
12372,834
12380,837
12388,840
12395,846
12403,852
12410,853
12418,858
12428,862
12559,858
12566,844
12574,830
12581,820
12589,814
12597,810
12604,810
12612,810
12620,811
12627,812
12635,813
12643,817
12650,818
12658,817
12665,817
12673,818
12681,816
12688,816
12696,812
12704,807
12711,804
12719,802
12727,797
12734,797
12742,798
12749,803
12771,815
12778,812
12786,805
12793,800
12801,793
12809,789
12816,782
12824,775
12832,771
12839,770
12970,749
12978,760
12985,766
12993,769
13001,772
13008,772
13016,774
13023,777
13031,779
13041,783
13049,779
13056,780
13064,785
13072,791
13079,802
13087,813
13094,826
13102,838
13110,845
13117,849
13125,851
13133,847
13140,841
13148,832
13156,822
13163,811
13171,797
13178,782
13186,770
13194,764
13201,760
13209,761
13352,824
13360,826
13368,826
13375,824
13383,827
13390,836
13398,845
13406,853
13413,859
13421,863
13429,864
13436,864
13444,862
13452,859
13459,857
13467,849
13474,848
13482,850
13490,849
13497,849
13505,849
13513,853
13520,854
13528,861
13538,840
13545,909
13553,1081
13561,1249
13568,1192
13576,915
13584,738
13591,750
13599,777
13606,790
13736,898
13744,909
13752,916
13759,918
13767,916
13775,910
13782,901
13790,888
13798,874
13805,856
13813,839
13820,820
13828,803
13836,792
13857,773
13865,770
13872,764
13880,761
13888,762
13895,764
13903,762
13910,759
13918,759
13926,757
13933,757
13941,755
13949,755
13956,754
13964,753
13972,752
13979,749
13987,749
13995,750
14002,751
14010,750
14140,790
14150,789
14157,780
14165,776
14172,775
14180,779
14188,769
14195,844
14203,1011
14211,1161
14218,1117
14226,832
14233,664
14241,696
14249,734
14256,759
14264,763
14272,772
14279,782
14287,787
14295,791
14302,792
14310,797
14318,802
14325,807
14333,812
14341,816
14361,833
14369,844
14377,859
14384,872
14392,891
14400,907
14407,916
14415,923
14545,851
14553,853
14560,855
14568,856
14576,855
14583,854
14591,854
14598,851
14606,848
14614,845
14621,842
14629,838
14639,828
14647,818
14654,813
14662,816
14669,820
14677,828
14685,832
14692,835
14700,835
14708,831
14715,830
14723,826
14731,820
14738,817
14746,817
14753,819
14761,819
14769,818
14776,817
14784,817
14792,819
14935,838
14943,836
14951,832
14959,830
14966,824
14974,823
14981,824
14989,826
14997,829
15004,834
15012,842
15020,849
15027,857
15035,856
15042,853
15050,844
15058,832
15065,816
15073,803
15081,787
15088,768
15096,752
15104,742
15111,732
15119,721
15126,716
15136,712
15144,705
15152,703
15159,709
15167,717
15175,725
15182,732
15190,737
15320,826
15327,824
15335,821
15343,819
15350,812
15358,809
15366,806
15373,805
15381,804
15388,803
15396,801
15404,801
15411,803
15419,808
15440,950
15448,1141
15455,1211
15463,1048
15471,736
15478,716
15486,748
15494,780
15501,792
15509,804
15516,816
15524,824
15532,831
15539,838
15547,841
15555,845
15562,850
15570,852
15578,857
15585,862
15593,866
15723,834
15730,824
15738,819
15748,809
15756,799
15763,794
15771,792
15779,795
15786,798
15794,804
15801,806
15809,808
15817,812
15824,815
15832,817
15840,818
15847,818
15855,817
15863,815
15870,813
15878,812
15885,807
15893,801
15901,798
15908,798
15916,805
15924,811
15945,821
15952,817
15960,810
15968,802
15975,796
15983,786
15991,781
15998,778
16006,776
16136,752
16144,764
16152,769
16159,773
16167,773
16175,774
16182,777
16190,780
16198,782
16205,786
16213,788
16220,792
16228,800
16236,807
16246,819
16253,818
16261,824
16269,833
16276,843
16284,845
16292,844
16299,836
16307,829
16314,820
16322,813
16330,800
16337,787
16345,775
16353,765
16360,760
16368,755
16376,755
16383,754
16527,821
16534,827
16542,836
16550,846
16557,853
16565,859
16573,860
16580,858
16588,855
16596,854
16603,849
16611,845
16619,844
16626,844
16634,846
16641,846
16649,848
16657,850
16664,852
16672,848
16680,855
16687,949
16695,1140
16703,1265
16710,1158
16718,833
16725,741
16735,775
16743,790
16751,790
16758,798
16766,808
16774,814
16781,820
16911,931
16919,925
16926,912
16934,899
16941,883
16949,864
16957,846
16964,829
16972,815
16980,803
16987,793
16995,787
17003,783
17010,783
17031,786
17039,784
17047,783
17055,780
17062,778
17070,777
17077,774
17085,771
17093,769
17100,766
17108,761
17116,755
17123,748
17131,750
17138,750
17146,757
17154,764
17161,769
17169,771
17177,774
17184,771
17314,1174
17322,1028
17329,690
17337,662
17347,719
17354,743
17362,746
17370,752
17377,763
17385,770
17393,778
17400,781
17408,784
17416,790
17423,797
17431,801
17439,808
17446,815
17454,818
17461,827
17469,836
17477,847
17484,857
17492,866
17500,879
17507,892
17515,891
17536,875
17544,869
17551,861
17559,853
17567,845
17574,835
17582,827
17589,821
17597,815
17727,859
17734,859
17742,866
17750,869
17757,869
17765,868
17772,864
17780,862
17788,855
17795,845
17803,841
17811,834
17818,833
17826,830
17833,829
17843,825
17851,816
17859,813
17866,813
17874,817
17882,801
17889,830
17897,965
17904,1134
17912,1159
17920,983
17927,666
17935,674
17943,720
17950,753
17958,773
17966,783
18109,912
18117,904
18124,890
18132,871
18139,852
18147,834
18155,815
18163,794
18170,772
18178,751
18185,740
18193,730
18201,722
18208,719
18216,717
18224,719
18231,722
18239,722
18247,726
18254,732
18262,734
18269,736
18277,739
18285,744
18292,748
18300,745
18308,742
18315,742
18323,742
18333,748
18340,746
18348,746
18356,750
18363,757
18493,1078
18501,1204
18508,1133
18516,810
18524,695
18531,718
18539,744
18547,759
18554,768
18562,777
18569,785
18577,790
18585,794
18592,797
18613,806
18621,812
18629,822
18636,830
18644,843
18652,849
18659,860
18667,874
18675,889
18682,900
18690,911
18697,917
18705,916
18713,914
18720,906
18728,895
18736,883
18743,871
18751,856
18759,841
18766,829
18896,854
18904,849
18911,848
18919,848
18927,847
18934,849
18942,852
18952,851
18960,843
18967,834
18975,826
18982,822
18990,818
18998,815
19005,812
19013,814
19021,817
19028,816
19036,817
19044,819
19051,821
19059,827
19066,812
19074,818
19082,936
19089,1145
19097,1265
19118,727
19126,735
19133,749
19141,750
19149,751
19156,756
19164,760
19172,761
19179,763
19310,854
19317,844
19325,835
19333,826
19340,809
19348,789
19356,775
19363,763
19371,753
19379,746
19386,743
19394,744
19401,747
19409,750
19417,752
19424,755
19432,758
19442,763
19450,757
19457,756
19465,760
19472,761
19480,763
19488,769
19495,771
19503,770
19510,769
19518,771
19526,774
19534,782
19541,791
19549,798
19692,1089
19699,1262
19707,1200
19715,892
19722,736
19730,756
19738,786
19745,797
19753,800
19761,812
19768,818
19776,824
19784,828
19791,833
19799,838
19807,845
19814,850
19822,852
19829,858
19837,863
19845,867
19852,872
19860,880
19868,889
19875,900
19883,910
19891,916
19898,920
19906,919
19913,915
19921,905
19931,888
19939,869
19946,849
20076,849
20084,851
20091,850
20099,849
20107,844
20114,837
20122,834
20129,830
20137,825
20145,825
20152,828
20160,834
20168,835
20175,833
20197,823
20204,815
20212,809
20219,800
20227,790
20235,782
20242,779
20250,779
20258,775
20265,772
20273,772
20281,772
20288,772
20296,747
20304,805
20311,969
20319,1144
20326,1145
20334,857
20342,628
20349,656
20479,836
20487,844
20494,854
20502,864
20510,872
20517,879
20525,880
20533,875
20540,866
20550,850
20558,831
20565,815
20573,800
20581,786
20588,775
20596,764
20604,756
20611,753
20619,749
20626,749
20634,753
20642,759
20649,766
20657,770
20665,774
20672,779
20680,783
20701,789
20709,792
20716,796
20724,800
20731,805
20739,807
20747,817
20755,825
20762,835
20892,855
20899,927
20907,1095
20914,1212
20922,1184
20930,879
20937,688
20945,735
20953,774
20960,806
20968,819
20976,824
20983,833
20991,840
20999,843
21006,843
21014,844
21021,849
21029,853
21039,855
21047,848
21054,848
21062,852
21070,858
21077,867
21085,872
21092,882
21100,894
21108,905
21115,908
21123,907
21267,809
21274,807
21282,802
21290,796
21297,792
21305,788
21313,782
21320,776
21328,765
21335,761
21343,758
21351,757
21358,761
21366,763
21374,768
21381,767
21389,766
21397,763
21404,757
21412,754
21420,750
21427,747
21435,746
21443,748
21450,750
21458,749
21465,751
21473,754
21481,759
21488,754
21496,753
21504,846
21511,1028
21519,1146
21651,827
21659,833
21666,840
21674,843
21682,852
21689,862
21697,871
21704,880
21712,887
21720,890
21727,884
21735,874
21743,861
21750,849
21771,812
21779,800
21787,788
21794,785
21802,784
21809,783
21817,786
21825,791
21832,798
21840,806
21848,812
21855,816
21863,820
21871,826
21878,830
21886,835
21894,839
21901,840
21909,840
21916,842
21924,845
22054,862
22062,853
22069,848
22077,845
22085,843
22092,839
22100,838
22107,836
22115,838
22123,839
22130,821
22138,893
22148,1144
22156,1260
22163,1132
22171,795
22178,709
22186,730
22194,753
22201,759
22209,766
22217,776
22224,784
22232,791
22240,796
22247,799
22255,804
22276,813
22284,812
22291,811
22299,809
22307,810
22314,816
22322,824
22329,828
22337,834
22468,748
22475,751
22483,760
22490,762
22498,758
22506,764
22513,766
22521,767
22529,770
22536,772
22544,772
22552,774
22559,772
22567,771
22574,770
22582,771
22590,772
22597,773
22605,775
22613,770
22620,769
22628,771
22638,772
22645,776
22653,785
22661,791
22668,798
22676,799
22684,801
22691,804
22699,803
22706,795
22850,791
22857,799
22865,810
22873,820
22880,829
22888,836
22896,843
22903,846
22911,850
22919,855
22926,860
22934,862
22941,865
22949,873
22957,881
22964,888
22972,897
22980,910
22987,921
22995,931
23003,937
23010,937
23018,933
23025,925
23033,915
23041,903
23048,887
23056,872
23064,854
23071,839
23079,828
23087,821
23094,817
23102,815
23232,846
23239,846
23247,841
23257,836
23265,827
23272,819
23280,814
23288,811
23295,811
23303,809
23311,809
23318,811
23326,818
23333,825
23355,831
23362,828
23370,821
23378,812
23385,803
23393,793
23401,786
23408,782
23416,780
23423,776
23431,775
23439,773
23446,776
23454,755
23462,780
23469,898
23477,1068
23485,1125
23492,944
23500,623
23508,629
23515,679
23645,846
23653,854
23661,865
23668,877
23676,885
23684,888
23691,884
23699,882
23707,873
23714,861
23722,848
23729,837
23737,822
23747,798
23755,778
23762,765
23770,755
23778,749
23785,748
23793,751
23800,755
23808,759
23816,762
23823,769
23831,773
23839,780
23860,792
23867,799
23875,804
23883,806
23890,809
23898,816
23905,820
23913,823
23921,823
23928,820
24059,866
24067,866
24074,866
24082,867
24089,847
24097,910
24105,1063
24112,1161
24120,1140
24128,841
24135,668
24143,722
24151,763
24158,794
24166,813
24173,820
24181,831
24189,841
24196,841
24204,838
24212,841
24219,845
24227,847
24237,845
24244,842
24252,843
24260,848
24267,855
24275,863
24283,871
24290,882
24298,893
24441,799
24449,799
24456,797
24464,797
24472,792
24480,786
24487,783
24495,779
24502,779
24510,778
24518,773
24525,766
24533,761
24541,758
24548,754
24556,749
24564,743
24571,740
24579,740
24586,742
24594,747
24602,755
24609,759
24617,762
24625,766
24632,767
24640,763
24648,762
24655,758
24663,753
24670,751
24678,754
24686,755
24693,758
24823,803
24831,805
24839,811
24846,814
24856,817
24864,812
24871,809
24879,811
24887,818
24894,826
24902,832
24910,841
24917,848
24925,861
24946,893
24954,896
24961,894
24969,892
24977,885
24984,875
24992,862
24999,847
25007,832
25015,820
25022,812
25030,808
25038,803
25045,801
25053,802
25061,804
25068,808
25076,811
25083,816
25091,821
25099,826
25106,825
25236,850
25243,848
25251,840
25259,836
25266,837
25274,842
25282,849
25289,851
25297,852
25305,850
25312,847
25320,845
25327,840
25335,832
25345,824
25353,813
25360,804
25368,803
25376,804
25383,807
25391,809
25398,813
25406,802
25414,866
25421,1017
25429,1176
25450,730
25458,724
25466,741
25473,754
25481,753
25488,758
25496,764
25504,767
25511,769
25641,859
25649,848
25656,840
25664,831
25672,816
25679,798
25687,781
25695,766
25702,754
25710,746
25718,742
25725,740
25733,740
25740,740
25748,741
25756,746
25763,753
25771,757
25779,763
25786,765
25794,767
25802,770
25809,771
25817,773
25824,777
25832,780
25842,780
25850,773
25857,769
25865,767
25872,765
25880,770
25888,772
26031,854
26039,854
26047,852
26054,849
26062,848
26070,847
26077,847
26085,849
26093,851
26100,853
26108,858
26116,858
26123,859
26131,932
26138,1105
26146,1256
26154,1186
26161,915
26169,770
26177,776
26184,799
26192,806
26200,811
26207,817
26215,822
26222,827
26230,831
26238,832
26245,834
26253,838
26261,839
26268,839
26276,841
26406,844
26414,829
26421,813
26429,802
26437,800
26444,791
26454,786
26462,779
26470,777
26477,778
26485,782
26492,782
26500,785
26508,786
26515,785
26537,789
26544,788
26552,787
26560,785
26567,784
26575,779
26583,777
26590,774
26598,771
26606,767
26613,766
26621,765
26628,763
26636,762
26644,765
26651,768
26659,761
26667,757
26674,757
26682,758
26690,761
26820,812
26827,807
26835,806
26843,802
26850,800
26858,799
26866,804
26873,800
26881,805
26889,889
26896,1078
26904,1197
26911,1105
26919,814
26927,711
26934,726
26944,748
26952,744
26960,746
26967,754
26975,762
26983,768
26990,774
26998,781
27005,787
27013,796
27021,803
27042,821
27050,832
27057,843
27065,856
27072,869
27080,887
27088,904
27095,920
27103,933
27233,857
27241,859
27249,856
27256,856
27264,857
27272,855
27279,852
27287,850
27294,850
27302,850
27310,848
27317,846
27325,844
27333,841
27340,839
27348,841
27356,838
27363,836
27371,838
27378,836
27386,834
27394,833
27401,832
27409,831
27417,831
27424,829
27432,828
27442,825
27449,816
27457,807
27465,804
27472,809
27616,878
27623,967
27631,1079
27638,1088
27646,908
27654,627
27662,664
27669,726
27677,759
27684,774
27692,774
27700,778
27707,781
27715,783
27723,785
27730,787
27738,786
27745,785
27753,790
27761,790
27768,792
27776,794
27784,802
27791,804
27799,809
27807,817
27814,832
27822,844
27829,852
27837,862
27845,867
27852,863
27860,855
27990,787
27998,793
28006,794
28013,798
28021,799
28029,800
28036,800
28044,804
28054,809
28061,802
28069,790
28077,786
28084,794
28092,798
28100,800
28120,811
28128,819
28136,821
28143,825
28151,827
28159,830
28167,832
28174,835
28182,841
28189,851
28197,861
28205,864
28212,862
28220,865
28228,866
28235,860
28243,850
28251,843
28258,836
28266,832
28273,828
28403,831
28411,839
28418,843
28426,841
28433,841
28441,841
28449,842
28456,843
28464,844
28472,847
28479,851
28487,855
28495,861
28502,867
28510,875
28517,886
28525,893
28533,902
28540,902
28550,894
28558,877
28566,857
28573,841
28581,830
28588,816
28596,801
28604,788
28625,767
28632,762
28640,756
28648,754
28656,754
28663,754
28671,753
28679,754
28686,756
28694,755
28824,784
28831,783
28839,783
28847,784
28854,781
28862,781
28870,782
28877,780
28885,779
28893,778
28900,780
28908,781
28915,783
28923,784
28931,786
28938,785
28946,786
28954,789
28961,791
28969,791
28976,789
28984,787
28992,783
28999,784
29007,793
29015,804
29022,808
29030,811
29040,813
29048,808
29055,803
29063,800
29206,801
29213,809
29221,817
29229,825
29236,832
29244,838
29252,843
29259,846
29267,854
29275,857
29282,861
29290,862
29298,868
29305,873
29313,879
29321,887
29328,895
29336,902
29343,910
29351,917
29359,922
29366,922
29374,918
29382,913
29389,899
29397,888
29405,874
29412,858
29420,844
29427,832
29435,822
29443,815
29450,811
29458,808
29588,843
29596,844
29603,838
29611,833
29618,831
29626,829
29634,828
29641,823
29649,821
29659,818
29667,808
29674,801
29682,797
29689,793
29711,795
29718,798
29726,797
29733,803
29741,802
29749,801
29757,800
29764,797
29772,793
29779,786
29787,773
29795,766
29802,767
29810,763
29818,761
29825,764
29833,769
29840,762
29848,778
29856,858
29863,1009
29871,1088
30001,817
30009,824
30017,828
30024,833
30032,840
30040,848
30047,857
30055,864
30063,877
30070,886
30078,886
30086,886
30093,876
30101,863
30108,852
30116,839
30124,820
30131,803
30139,789
30149,772
30157,756
30164,746
30172,745
30179,746
30187,749
30195,751
30216,768
30223,777
30231,789
30238,798
30246,807
30254,814
30262,821
30269,827
30277,830
30284,835
30414,887
30422,885
30429,884
30437,879
30445,871
30452,865
30460,857
30468,852
30475,850
30483,847
30490,843
30498,844
30506,844
30513,848
30521,841
30529,901
30536,1049
30544,1195
30552,1131
30559,838
30567,701
30574,733
30582,772
30590,790
30597,793
30605,802
30613,811
30620,817
30628,820
30638,823
30645,813
30789,872
30797,852
30804,828
30812,807
30819,791
30827,778
30835,766
30842,757
30850,752
30858,743
30866,742
30873,742
30881,743
30888,747
30896,749
30904,751
30911,749
30919,749
30927,752
30934,755
30942,754
30949,754
30957,753
30965,754
30972,753
30980,754
30988,754
30995,755
31003,752
31011,750
31018,751
31026,748
31033,748
31041,752
31171,808
31179,825
31186,912
31194,1078
31202,1178
31209,1044
31217,724
31225,679
31232,721
31240,756
31247,768
31257,774
31265,774
31273,772
31294,794
31301,804
31309,806
31317,818
31324,830
31332,835
31339,846
31347,858
31355,868
31363,886
31370,899
31378,911
31385,923
31393,926
31401,930
31408,932
31416,934
31424,928
31431,919
31439,907
31446,894
31576,858
31584,834
31592,828
31599,817
31607,854
31614,895
31622,888
31630,861
31637,843
31645,838
31653,842
31660,844
31668,837
31676,837
31683,840
31691,843
31698,837
31706,837
31714,828
31721,816
31729,809
31737,805
31747,801
31754,790
31762,783
31769,780
31777,788
31798,880
31806,1022
31814,1086
31821,1004
31829,687
31836,616
31844,684
31852,725
31982,849
31989,858
31997,867
32004,876
32012,882
32020,879
32027,873
32035,865
32043,850
32050,836
32058,823
32066,809
32073,790
32081,778
32089,765
32096,753
32104,746
32111,745
32119,737
32127,736
32134,745
32142,754
32150,760
32157,766
32165,771
32172,774
32180,778
32188,783
32195,787
32203,790
32211,789
32218,790
32362,818
32369,824
32379,831
32387,822
32395,894
32402,1039
32410,1102
32417,1044
32425,749
32433,680
32440,739
32448,776
32456,803
32463,818
32471,831
32479,845
32486,853
32494,856
32501,862
32509,863
32517,869
32524,870
32532,874
32540,877
32547,881
32555,886
32563,891
32570,899
32578,908
32585,920
32593,930
32601,940
32608,945
32616,943
32746,822
32753,823
32761,825
32769,829
32776,827
32784,827
32792,826
32799,824
32807,821
32815,818
32822,813
32830,813
32837,812
32845,811
32869,798
32876,799
32884,796
32891,785
32899,776
32907,767
32914,765
32922,762
32930,758
32937,757
32945,756
32953,760
32960,763
32968,772
32976,747
32983,772
32991,875
32998,1020
33006,1064
33014,933
33021,644
33151,823
33159,828
33166,836
33174,845
33182,854
33189,869
33197,871
33204,874
33212,872
33220,867
33227,855
33235,845
33243,831
33250,817
33258,801
33266,786
33273,771
33281,764
33288,754
33296,746
33304,747
33311,747
33319,748
33326,749
33334,755
33344,760
33352,759
33373,761
33380,771
33388,779
33396,789
33403,798
33411,804
33419,809
33426,813
33434,818
33563,874
33571,880
33579,862
33587,887
33594,991
33602,1148
33609,1219
33617,1081
33625,771
33632,745
33640,766
33648,788
33655,798
33663,806
33671,816
33678,820
33686,824
33693,826
33701,828
33709,829
33716,832
33724,832
33732,833
33739,835
33747,839
33755,844
33762,847
33770,857
33777,864
33785,875
33793,887
33936,800
33944,796
33952,793
33959,788
33969,779
33977,769
33985,763
33992,758
34000,759
34008,756
34015,752
34023,752
34030,752
34038,752
34046,751
34053,749
34061,748
34069,748
34076,750
34084,757
34092,763
34099,770
34107,773
34114,771
34122,772
34130,772
34137,770
34145,768
34153,762
34160,759
34168,763
34176,765
34183,766
34191,767
34321,801
34328,807
34336,814
34343,814
34351,815
34359,816
34366,820
34374,824
34382,828
34389,831
34397,837
34405,845
34412,853
34420,862
34441,893
34448,899
34456,903
34466,898
34474,882
34481,869
34489,857
34497,845
34504,833
34512,821
34520,815
34527,811
34535,809
34543,811
34550,814
34558,817
34566,822
34573,827
34581,831
34588,835
34596,838
34604,840
34611,845
34741,851
34749,854
34757,860
34764,865
34772,864
34780,859
34787,854
34795,849
34803,847
34810,844
34818,837
34825,826
34833,825
34841,826
34848,825
34856,824
34864,830
34871,831
34879,830
34886,803
34894,839
34902,969
34909,1139
34917,1188
34925,1025
34946,736
34956,761
34964,759
34971,753
34979,755
34986,764
34994,764
35002,766
35009,769
35017,773
35147,859
35154,843
35162,826
35170,806
35177,787
35185,773
35193,762
35200,751
35208,746
35215,745
35223,747
35231,749
35238,749
35246,752
35254,755
35261,756
35269,759
35277,761
35284,764
35292,766
35299,770
35307,771
35315,772
35322,774
35330,775
35338,776
35345,777
35353,778
35361,775
35368,777
35376,778
35383,780
35527,845
35534,842
35542,846
35549,848
35557,846
35565,847
35575,843
35583,835
35590,833
35598,833
35605,835
35613,838
35621,845
35628,852
35636,843
35644,843
35651,956
35659,1160
35667,1262
35674,1179
35682,882
35689,767
35697,770
35705,786
35712,797
35720,804
35728,811
35735,819
35743,824
35751,827
35758,831
35766,834
35773,836
35781,840
35911,882
35918,865
35926,845
35934,827
35941,813
35949,797
35957,786
35964,778
35972,777
35980,779
35987,779
35995,779
36002,778
36010,781
36031,782
36039,781
36046,778
36054,775
36064,770
36072,759
36079,751
36087,750
36095,749
36102,751
36110,749
36118,750
36125,749
36133,749
36141,749
36148,753
36156,755
36164,757
36171,758
36179,757
36186,759
36194,760
36324,820
36332,823
36340,820
36347,817
36355,813
36363,807
36370,801
36378,797
36385,796
36393,795
36401,799
36408,802
36416,806
36424,788
36431,840
36439,988
36446,1169
36454,1153
36462,946
36469,722
36477,718
36485,742
36492,757
36500,757
36508,763
36515,772
36536,790
36544,795
36554,804
36562,806
36569,811
36577,818
36584,826
36592,836
36600,847
36730,843
36737,835
36745,827
36752,823
36760,819
36768,820
36775,817
36783,818
36791,818
36798,820
36806,822
36814,822
36821,822
36829,822
36836,824
36844,823
36852,824
36859,824
36867,825
36875,825
36882,825
36890,822
36898,820
36905,821
36913,819
36920,820
36928,818
36936,818
36943,816
36951,815
36959,815
36966,817
37110,840
37117,827
37125,817
37133,811
37140,807
37148,803
37156,799
37163,796
37173,792
37181,769
37188,828
37196,983
37204,1124
37211,1069
37219,790
37227,635
37234,671
37242,703
37250,727
37257,728
37265,737
37273,746
37280,755
37288,758
37295,761
37303,768
37311,771
37318,773
37326,778
37334,784
37341,785
37349,789
37357,797
37364,806
37494,785
37502,779
37509,775
37517,773
37524,773
37532,773
37540,774
37547,774
37555,778
37563,779
37570,779
37578,779
37586,783
37593,789
37614,792
37622,800
37629,806
37637,810
37645,816
37652,819
37662,821
37670,815
37678,810
37685,807
37693,809
37701,815
37708,824
37716,835
37723,840
37731,847
37739,854
37746,857
37754,852
37762,848
37769,845
37777,838
37907,794
37915,824
37923,841
37930,841
37938,847
37946,846
37953,846
37961,844
37969,846
37976,855
37984,859
37992,858
37999,864
38007,864
38014,860
38022,866
38030,878
38037,887
38045,894
38053,912
38060,918
38068,925
38075,924
38083,929
38091,923
38098,910
38120,859
38127,834
38135,809
38142,793
38150,778
38160,766
38168,747
38176,737
38183,736
38191,733
38321,783
38329,781
38336,783
38344,788
38352,794
38359,799
38367,800
38375,801
38382,798
38390,797
38397,794
38405,788
38413,782
38420,779
38428,784
38436,785
38443,784
38451,785
38459,786
38466,789
38474,765
38481,815
38489,962
38497,1105
38504,1113
38512,903
38519,657
38527,675
38535,700
38542,727
38550,749
38558,759
38701,918
38709,921
38716,918
38724,911
38732,905
38739,894
38747,878
38754,864
38762,846
38772,828
38780,810
38787,800
38795,797
38803,798
38810,801
38818,805
38826,809
38833,810
38841,812
38848,817
38856,826
38864,832
38871,836
38879,836
38887,839
38894,841
38902,841
38910,837
38917,842
38925,839
38932,821
38940,822
38948,837
38955,844
39085,851
39093,842
39101,834
39108,921
39116,1086
39123,1180
39131,1114
39139,805
39146,706
39154,730
39162,746
39169,769
39177,777
39185,788
39206,806
39213,803
39221,801
39229,797
39236,795
39244,795
39252,795
39259,797
39269,799
39277,788
39284,789
39292,798
39300,809
39307,821
39315,831
39323,840
39330,843
39338,843
39346,837
39353,830
39361,817
39369,801
39499,783
39506,783
39514,785
39522,787
39529,783
39537,783
39545,777
39552,774
39560,774
39568,779
39575,783
39583,788
39590,791
39598,794
39606,796
39613,794
39621,793
39629,790
39636,785
39644,780
39651,782
39659,782
39667,783
39674,784
39682,787
39690,790
39711,785
39718,881
39726,1067
39734,1187
39741,1130
39749,809
39759,714
39767,729
39774,751
39904,917
39912,925
39919,936
39927,944
39934,946
39942,946
39950,940
39957,928
39965,915
39973,898
39980,878
39988,864
39996,843
40003,828
40011,814
40019,805
40026,798
40034,793
40041,788
40049,788
40057,788
40064,788
40072,794
40080,794
40087,795
40095,795
40103,798
40110,800
40118,805
40125,805
40133,807
40141,807
40284,825
40292,823
40300,817
40307,818
40315,784
40322,823
40330,958
40338,1124
40345,1159
40353,964
40360,677
40371,674
40378,682
40386,697
40394,701
40401,713
40409,724
40416,733
40424,736
40432,741
40439,746
40447,752
40455,756
40462,761
40470,767
40478,774
40485,782
40493,791
40500,799
40508,809
40516,821
40523,834
40531,847
40539,858
40669,783
40676,788
40684,790
40691,792
40699,794
40707,798
40714,799
40722,800
40730,801
40737,804
40745,804
40752,804
40760,802
40768,801
40789,811
40796,820
40804,830
40812,835
40819,841
40827,841
40835,844
40842,844
40850,840
40857,836
40867,839
40875,832
40883,832
40890,834
40898,832
40906,836
40913,843
40921,851
40929,828
40936,859
40944,989
40952,1171
41082,873
41090,877
41097,879
41105,882
41113,886
41120,890
41128,895
41135,904
41143,913
41151,920
41158,924
41166,920
41174,912
41181,900
41189,890
41197,875
41204,857
41212,837
41219,818
41227,800
41235,790
41242,782
41250,779
41258,776
41265,777
41273,780
41294,785
41302,780
41309,779
41317,778
41325,776
41332,774
41340,772
41348,767
41358,759
41365,753
41496,788
41503,787
41511,786
41518,787
41526,788
41534,785
41541,786
41549,786
41557,791
41564,789
41572,770
41580,832
41587,993
41595,1142
41602,1130
41610,875
41618,682
41625,692
41633,715
41641,737
41648,743
41656,753
41664,766
41671,772
41679,773
41686,778
41694,782
41702,786
41709,789
41717,797
41725,798
41732,802
41876,797
41883,792
41891,792
41899,791
41906,793
41914,796
41922,802
41929,807
41937,815
41944,821
41952,825
41960,828
41967,832
41977,834
41985,828
41993,825
42000,827
42008,828
42015,828
42023,833
42031,833
42038,830
42046,830
42054,831
42061,830
42069,830
42077,827
42084,831
42092,837
42099,847
42107,851
42115,856
42122,857
42130,855
42260,1204
42268,1212
42275,990
42283,755
42291,750
42298,768
42306,788
42313,792
42321,798
42329,805
42336,809
42344,813
42352,816
42359,817
42380,816
42388,816
42396,815
42403,816
42411,815
42419,819
42426,824
42434,828
42441,836
42449,843
42457,852
42467,857
42474,843
42482,829
42490,819
42497,809
42505,798
42513,783
42520,767
42528,752
42536,741
42543,733
42673,792
42681,795
42689,791
42696,790
42704,791
42712,791
42719,787
42727,785
42735,786
42742,782
42750,785
42758,790
42765,795
42773,802
42781,804
42788,805
42796,806
42803,806
42811,802
42819,804
42826,799
42834,792
42842,791
42849,790
42857,790
42865,793
42885,800
42893,802
42901,810
42908,790
42916,852
42924,1022
42931,1197
42939,1196
42947,966
43079,892
43086,899
43094,904
43102,908
43109,914
43117,924
43125,931
43132,934
43140,934
43147,929
43155,920
43163,907
43170,897
43178,880
43186,861
43193,839
43201,821
43209,808
43216,796
43224,790
43232,786
43239,787
43247,786
43255,786
43262,788
43270,792
43277,793
43285,795
43293,797
43300,797
43308,800
43316,800
43459,834
43466,827
43474,825
43482,817
43490,811
43497,802
43505,794
43513,780
43520,775
43528,771
43535,766
43543,762
43551,761
43558,762
43566,757
43576,753
43584,725
43591,796
43599,983
43606,1151
43614,1114
43622,845
43629,659
43637,660
43645,683
43652,697
43660,705
43668,718
43675,729
43683,732
43690,740
43698,746
43706,754
43713,755
43843,863
43851,850
43858,831
43866,810
43874,794
43881,781
43889,772
43897,767
43904,766
43912,762
43920,765
43927,767
43935,771
43942,772
43963,782
43971,787
43979,794
43986,802
43994,806
44002,814
44009,816
44017,821
44025,823
44032,830
44040,834
44047,837
44055,840
44065,837
44073,827
44080,822
44088,817
44096,822
44103,832
44111,843
44118,853
44126,858
44256,872
44263,998
44271,1204
44279,1286
44286,1153
44294,837
44301,767
44309,784
44317,798
44324,799
44332,803
44340,811
44347,811
44355,818
44363,819
44370,823
44378,823
44385,825
44393,825
44401,828
44408,829
44416,834
44424,837
44431,841
44439,851
44446,857
44468,884
44475,887
44483,885
44491,879
44498,866
44506,855
44514,839
44521,824
44529,802
44659,774
44666,779
44676,780
44684,769
44692,762
44699,760
44707,762
44715,763
44722,766
44730,761
44738,760
44745,764
44753,769
44760,775
44768,783
44776,792
44783,797
44791,802
44799,801
44806,799
44814,797
44822,795
44829,788
44837,790
44844,790
44852,794
44860,795
44867,797
44875,798
44883,801
44890,808
44898,812
45041,845
45048,851
45056,860
45064,865
45071,873
45079,879
45087,888
45094,897
45102,905
45110,915
45117,928
45125,937
45133,944
45140,947
45148,941
45155,932
45163,918
45173,899
45181,876
45188,855
45196,837
45204,824
45211,814
45219,809
45226,806
45234,803
45242,805
45249,807
45257,814
45265,817
45272,821
45280,820
45288,825
45295,828
45425,853
45433,846
45440,842
45448,833
45455,828
45463,825
45471,823
45478,818
45486,818
45494,814
45501,812
45509,813
45517,812
45524,810
45545,1003
45553,1127
45561,1112
45568,846
45576,633
45584,670
45591,699
45599,725
45607,737
45614,740
45622,750
45630,755
45637,759
45645,761
45652,765
45662,764
45670,757
45678,757
45685,763
45693,770
45701,778
45708,788
45839,772
45846,769
45854,765
45861,761
45869,761
45877,764
45884,766
45892,768
45900,768
45907,772
45915,775
45923,779
45930,784
45938,782
45945,780
45953,782
45961,780
45968,778
45976,775
45984,775
45991,779
45999,781
46007,788
46014,795
46022,798
46029,800
46050,796
46058,799
46066,800
46073,800
46081,803
46089,807
46096,811
46104,817
46112,823
46242,853
46249,856
46257,861
46264,861
46272,863
46282,861
46290,852
46297,847
46305,849
46313,855
46320,861
46328,867
46336,875
46343,884
46351,894
46358,904
46366,910
46374,915
46381,912
46389,906
46397,892
46404,880
46412,867
46420,852
46427,833
46435,818
46442,802
46450,793
46458,788
46465,785
46473,786
46481,782
46488,786
46632,835
46640,833
46648,828
46655,816
46663,805
46670,795
46678,782
46686,775
46693,771
46701,766
46709,764
46716,761
46724,759
46732,757
46739,759
46747,760
46755,755
46762,737
46772,864
46780,1048
46787,1158
46795,1056
46803,729
46810,660
46818,676
46825,697
46833,707
46841,714
46848,728
46856,739
46864,746
46871,752
46879,757
46887,764
47016,857
47024,847
47032,830
47039,812
47047,797
47055,786
47062,775
47070,772
47078,764
47085,763
47093,764
47101,766
47108,772
47116,776
47137,786
47144,790
47152,798
47160,804
47167,809
47175,815
47183,819
47190,823
47198,819
47206,824
47213,828
47221,837
47229,843
47236,851
47244,858
47251,860
47259,861
47269,857
47277,845
47284,837
47292,831
47300,828
47430,790
47438,806
47445,809
47453,819
47461,829
47468,829
47476,829
47484,834
47491,835
47499,833
47506,834
47514,832
47522,831
47529,834
47537,838
47545,842
47552,847
47560,854
47567,861
47575,869
47583,877
47590,884
47598,883
47606,881
47613,875
47621,865
47642,829
47650,805
47657,788
47665,770
47673,756
47680,743
47688,737
47696,735
47703,733
47833,779
47841,787
47848,791
47856,794
47864,793
47871,789
47881,782
47889,772
47897,761
47904,755
47912,755
47919,757
47927,764
47935,766
47942,767
47950,770
47958,777
47965,786
47973,770
47981,788
47988,922
47996,1124
48003,1209
48011,1083
48019,765
48026,707
48034,723
48042,742
48049,745
48057,754
48065,764
48072,773
48215,894
48223,890
48230,881
48238,872
48246,859
48253,848
48261,836
48269,826
48276,817
48284,811
48292,809
48299,808
48307,810
48315,815
48322,820
48330,823
48337,827
48345,832
48353,835
48360,835
48370,834
48378,828
48386,826
48393,824
48401,825
48408,823
48416,821
48424,824
48431,828
48439,837
48447,844
48454,851
48462,854
48470,854
48599,1154
48607,1267
48615,1159
48622,837
48630,750
48638,766
48645,784
48653,787
48660,794
48668,801
48676,806
48683,809
48691,813
48699,813
48720,818
48727,815
48735,812
48743,813
48750,812
48758,816
48766,818
48773,823
48781,827
48789,836
48796,841
48804,844
48812,843
48819,836
48827,827
48835,816
48842,805
48850,791
48857,778
48867,757
48875,740
48883,726
49013,793
49021,797
49028,800
49036,803
49043,811
49051,812
49059,813
49066,813
49074,808
49082,804
49089,799
49097,790
49105,787
49112,786
49120,785
49128,787
49135,788
49143,790
49150,789
49158,791
49166,796
49173,781
49181,812
49189,934
49196,1095
49204,1138
49225,679
49232,724
49240,760
49248,784
49255,796
49263,812
49271,823
49278,832
49286,839
49416,948
49424,939
49431,924
49439,911
49447,894
49454,877
49462,859
49470,844
49480,828
49487,809
49495,799
49502,797
49510,795
49518,796
49525,802
49533,804
49541,809
49548,813
49556,815
49563,817
49571,819
49579,812
49586,809
49594,810
49602,811
49609,814
49617,817
49625,825
49632,823
49640,826
49647,825
49655,821
49798,724
49806,685
49814,722
49821,749
49829,766
49837,772
49844,779
49852,781
49859,782
49867,782
49875,782
49882,782
49890,783
49898,783
49905,786
49913,788
49921,792
49928,798
49936,803
49944,811
49951,821
49959,832
49966,842
49976,850
49984,843
49992,834
49999,824
50007,816
50015,805
50022,796
50030,785
50038,773
50045,761
50053,754
50183,804
50190,811
50198,815
50205,818
50213,819
50221,816
50228,813
50236,808
50244,808
50251,803
50259,798
50267,792
50274,790
50282,794
50303,794
50310,796
50318,804
50326,812
50333,810
50341,816
50349,909
50356,1075
50364,1147
50372,1078
50379,770
50387,732
50395,780
50402,784
50410,796
50418,796
50425,812
50433,824
50440,841
50448,850
50456,858
50466,868
50596,914
50604,900
50611,881
50619,863
50627,850
50634,831
50642,820
50650,814
50657,811
50665,803
50673,802
50680,804
50688,806
50695,804
50703,809
50711,815
50718,806
50726,807
50734,807
50741,808
50749,805
50756,803
50764,806
50772,809
50779,810
50787,815
50808,821
50816,806
50823,799
50831,788
50839,780
50846,772
50854,768
50862,768
50869,765
50999,716
51007,731
51014,744
51022,748
51030,749
51037,753
51045,759
51053,760
51060,760
51068,766
51078,771
51086,762
51093,759
51101,768
51108,783
51116,792
51124,805
51131,813
51139,825
51147,833
51154,834
51162,827
51170,820
51177,812
51185,803
51192,792
51200,777
51208,767
51215,758
51223,757
51231,750
51238,745
51246,744
51389,829
51396,836
51404,841
51412,842
51419,843
51427,849
51435,840
51442,834
51450,832
51458,835
51465,837
51473,843
51481,847
51488,849
51496,855
51503,858
51511,848
51519,849
51526,956
51534,1161
51542,1283
51549,1187
51557,881
51564,765
51574,779
51582,785
51590,787
51597,798
51605,808
51613,814
51620,819
51628,826
51635,832
51643,841
51773,914
51781,900
51788,884
51796,867
51804,848
51811,835
51819,825
51827,818
51834,814
51842,815
51850,812
51857,812
51865,815
51873,817
51894,817
51901,812
51909,810
51917,805
51924,799
51932,794
51940,787
51947,781
51955,782
51962,779
51970,784
51978,787
51985,789
51993,789
52001,790
52008,788
52016,782
52024,778
52031,774
52039,768
52047,764
52176,712
52186,750
52194,752
52202,758
52209,775
52217,782
52224,785
52232,792
52240,797
52247,798
52255,798
52263,807
52270,815
52278,823
52286,827
52293,833
52301,840
52308,848
52316,859
52324,871
52331,876
52339,881
52347,883
52354,875
52362,867
52370,851
52377,841
52398,805
52406,798
52413,791
52421,786
52429,784
52436,786
52444,791
52452,795
52459,800
52590,881
52597,874
52605,870
52613,861
52620,852
52628,847
52636,837
52643,839
52651,838
52658,836
52666,834
52674,831
52684,834
52691,828
52699,801
52707,825
52714,957
52722,1125
52729,1157
52737,1020
52745,713
52752,693
52760,718
52768,742
52775,767
52783,772
52791,788
52798,801
52806,805
52813,804
52821,813
52829,816
52972,834
52980,810
52987,793
52995,776
53003,762
53010,753
53018,742
53026,738
53033,733
53041,733
53049,731
53056,736
53064,735
53071,735
53079,740
53087,741
53094,744
53102,749
53110,750
53117,756
53125,755
53133,748
53140,749
53148,752
53155,752
53163,756
53173,765
53181,756
53188,751
53196,756
53204,753
53211,754
53219,754
53227,753
53356,715
53364,730
53371,756
53379,767
53387,776
53394,788
53402,793
53410,797
53417,802
53425,805
53433,804
53440,808
53448,810
53456,814
53476,827
53484,840
53492,856
53500,867
53507,884
53515,894
53523,905
53530,912
53538,910
53545,903
53553,896
53561,891
53568,873
53576,861
53584,844
53591,834
53599,823
53607,815
53614,810
53622,810
53629,810
53637,809
53767,852
53774,856
53782,854
53792,856
53800,845
53807,842
53815,836
53822,827
53830,826
53838,825
53845,823
53853,818
53861,815
53868,816
53876,817
53884,818
53891,820
53899,818
53906,825
53914,798
53922,828
53929,969
53937,1163
53945,1217
53952,1052
53960,754
53981,748
53989,760
53996,768
54004,774
54012,775
54019,776
54027,775
54035,774
54042,778
54172,845
54179,835
54187,816
54195,799
54202,780
54210,764
54218,755
54225,750
54233,748
54241,749
54248,749
54256,750
54264,752
54271,755
54281,753
54289,755
54296,749
54304,752
54312,758
54319,757
54327,768
54335,773
54342,776
54350,777
54357,779
54365,779
54373,778
54380,780
54388,780
54396,783
54403,787
54411,791
54419,796
54562,1028
54570,1194
54577,1206
54585,976
54593,752
54601,753
54608,775
54616,803
54624,813
54631,824
54639,836
54646,844
54654,848
54662,853
54669,854
54677,859
54685,862
54692,864
54700,869
54708,874
54715,879
54723,884
54730,889
54738,898
54746,904
54753,917
54761,924
54771,931
54779,923
54786,913
54794,907
54801,893
54809,880
54817,865
54946,841
54954,842
54962,840
54969,839
54977,839
54985,836
54992,831
55000,828
55008,821
55015,816
55023,815
55031,810
55038,813
55046,819
55067,821
55075,818
55083,811
55090,802
55098,793
55105,782
55113,772
55121,767
55128,765
55136,760
55144,758
55151,757
55159,756
55166,760
55174,764
55182,738
55189,781
55197,931
55205,1092
55212,1118
55220,921
55350,806
55357,818
55365,823
55372,827
55382,837
55390,838
55398,845
55405,852
55413,854
55421,851
55428,847
55436,839
55444,828
55451,814
55459,800
55466,789
55474,776
55482,765
55489,759
55497,756
55505,752
55512,750
55520,753
55528,760
55535,763
55543,765
55550,775
55571,781
55579,790
55587,797
55595,804
55602,808
55610,814
55617,819
55625,824
55633,825
55763,869
55771,866
55778,864
55786,862
55794,863
55801,863
55809,862
55817,861
55824,836
55832,871
55840,1009
55847,1194
55855,1242
55862,1079
55870,782
55880,754
55888,764
55895,774
55903,780
55911,791
55918,798
55926,805
55934,810
55941,812
55949,813
55956,818
55964,820
55972,824
55979,825
55987,829
55995,839
56138,800
56146,791
56153,782
56161,781
56169,776
56176,773
56184,769
56192,767
56199,765
56207,765
56215,762
56222,761
56230,758
56238,756
56245,755
56253,755
56261,754
56268,752
56276,750
56283,745
56291,749
56299,746
56306,743
56314,740
56322,737
56329,737
56337,743
56345,751
56352,759
56360,765
56370,767
56377,758
56385,755
56393,756
56522,1014
56530,756
56538,726
56545,742
56553,756
56560,762
56568,772
56576,780
56583,785
56591,789
56599,790
56606,795
56614,800
56622,802
56642,811
56650,817
56658,826
56665,841
56673,851
56681,864
56689,879
56696,890
56704,899
56711,904
56719,908
56727,905
56734,896
56742,890
56750,880
56757,866
56765,851
56773,837
56780,828
56788,818
56795,812
56803,812
56933,860
56940,856
56948,849
56956,840
56963,840
56971,839
56979,843
56989,847
56996,843
57004,835
57011,837
57019,838
57027,832
57034,829
57042,826
57050,822
57057,822
57065,822
57073,822
57080,826
57088,824
57095,825
57103,826
57111,829
57118,825
57126,820
57147,1183
57155,1151
57162,877
57170,690
57178,705
57185,730
57193,746
57201,747
57208,759
57338,868
57346,875
57353,876
57361,874
57368,865
57376,854
57384,842
57391,826
57399,810
57407,795
57414,780
57422,765
57430,762
57437,757
57445,752
57452,752
57460,753
57468,755
57478,755
57485,750
57493,750
57501,758
57508,763
57516,769
57523,772
57531,775
57539,777
57546,780
57554,775
57562,780
57569,779
57577,780
57585,786
57728,831
57736,826
57744,845
57751,951
57759,1112
57767,1145
57774,1044
57782,735
57790,716
57797,760
57805,789
57813,816
57820,829
57828,841
57835,854
57843,861
57851,863
57858,867
57866,870
57874,874
57881,875
57889,876
57897,878
57904,885
57912,890
57919,894
57927,897
57935,905
57942,914
57950,923
57958,930
57968,932
57975,920
57983,907
58113,836
58120,837
58128,838
58135,838
58143,837
58151,838
58158,835
58166,830
58174,828
58181,823
58189,815
58197,809
58204,809
58212,809
58233,810
58241,810
58248,806
58256,797
58264,790
58271,780
58279,771
58287,763
58294,759
58302,757
58310,754
58317,752
58325,753
58333,752
58340,751
58348,758
58355,734
58363,788
58371,942
58378,1070
58386,1070
58516,811
58523,815
58531,824
58539,832
58546,841
58554,848
58562,859
58569,866
58577,871
58587,871
58594,858
58602,842
58610,834
58617,823
58625,808
58633,796
58640,783
58648,771
58655,760
58663,762
58671,762
58678,758
58686,757
58694,758
58701,760
58709,768
58717,770
58738,785
58745,795
58753,803
58760,811
58768,812
58776,818
58784,825
58791,829
58799,825
58929,862
58937,864
58945,863
58952,860
58960,860
58967,851
58975,845
58983,926
58990,1097
58998,1195
59006,1136
59013,823
59021,727
59029,748
59036,769
59044,791
59052,801
59059,807
59067,814
59077,824
59084,817
59092,810
59100,812
59107,817
59115,820
59123,823
59130,828
59138,835
59145,843
59153,846
59161,855
59168,866
59312,798
59319,794
59327,789
59335,788
59342,786
59350,783
59357,780
59365,777
59373,773
59380,773
59388,768
59396,765
59403,763
59411,758
59419,749
59426,754
59434,752
59442,757
59449,760
59457,763
59464,768
59472,769
59480,768
59487,766
59495,766
59503,763
59510,757
59518,757
59526,760
59533,759
59541,759
59548,763
59556,766
59566,766
59696,809
59703,814
59711,818
59719,817
59726,813
59734,821
59742,824
59749,829
59757,832
59764,836
59772,846
59780,849
59787,862
59795,871
59816,886
59824,882
59831,878
59839,867
59847,860
59854,851
59862,838
59869,824
59877,815
59885,809
59893,807
59900,803
59908,806
59915,810
59923,809
59931,812
59938,819
59946,825
59954,830
59961,837
59969,839
59977,840
