Tempo(ms),Leitura(ECG)
8,884
16,843
23,823
31,812
39,801
46,790
54,778
61,766
69,759
77,755
84,755
92,756
100,761
111,767
119,749
127,724
134,701
142,674
150,650
157,623
165,602
173,582
180,568
188,548
209,516
217,508
224,502
232,497
240,490
248,495
255,516
263,541
270,570
278,599
286,628
293,652
301,676
309,702
316,730
324,753
331,775
339,797
347,819
354,837
362,857
370,859
377,908
385,1050
393,1197
400,1229
408,1075
415,816
423,829
431,861
438,885
446,904
454,914
461,929
469,940
477,943
484,949
492,950
500,955
507,958
515,962
522,961
530,965
538,969
668,933
676,914
686,892
693,875
714,855
722,860
730,863
737,866
745,872
752,874
760,877
768,886
775,888
783,888
791,889
798,892
806,889
814,884
821,885
829,884
837,884
844,888
852,892
859,891
867,890
875,890
882,887
890,880
898,877
905,872
913,863
921,858
928,856
936,855
943,854
951,852
959,851
966,850
974,848
982,850
989,841
997,837
1004,920
1012,1089
1020,1189
1027,1133
1035,826
1043,733
1050,752
1058,766
1066,777
1073,778
1081,786
1088,795
1096,796
1104,800
1111,802
1121,801
1129,793
1137,790
1144,789
1152,792
1159,794
1167,801
1311,772
1319,765
1326,759
1334,749
1342,744
1349,742
1357,738
1365,737
1372,734
1380,731
1388,727
1395,726
1403,728
1410,725
1418,720
1426,718
1433,719
1441,715
1449,715
1456,715
1464,715
1472,716
1479,714
1487,714
1494,716
1502,716
1510,714
1517,715
1525,720
1533,724
1540,730
1548,736
1556,740
1563,747
1571,748
1578,752
1586,754
1594,750
1601,749
1609,745
1617,748
1624,748
1632,750
1639,751
1649,759
1657,750
1665,747
1795,810
1816,816
1824,822
1831,828
1839,833
1847,840
1854,848
1862,858
1870,867
1877,877
1885,889
1893,900
1900,912
1908,920
1916,931
1923,935
1931,936
1938,931
1946,924
1954,912
1961,899
1969,883
1977,865
1984,848
1992,831
2000,822
2007,818
2015,815
2022,810
2030,812
2038,813
2045,815
2053,817
2061,819
2068,819
2076,818
2084,820
2091,823
2099,826
2106,823
2114,823
2122,827
2129,823
2137,824
2145,822
2152,824
2160,825
2290,844
2300,845
2321,818
2329,814
2336,805
2344,798
2352,800
2359,797
2367,804
2375,799
2382,799
2390,797
2397,793
2405,793
2413,790
2421,788
2428,781
2436,773
2443,769
2451,766
2459,767
2466,771
2474,771
2482,769
2489,770
2497,774
2504,774
2512,766
2520,824
2527,965
2535,1069
2543,1057
2550,819
2558,687
2566,709
2573,726
2581,742
2588,750
2596,754
2604,762
2611,766
2619,772
2627,776
2634,778
2642,780
2650,785
2657,790
2665,796
2795,861
2803,843
2824,804
2831,796
2841,793
2849,787
2857,785
2864,789
2872,797
2879,802
2887,806
2895,812
2902,821
2910,818
2918,824
2925,829
2933,834
2941,836
2948,839
2956,843
2963,846
2971,846
2979,846
2986,848
2994,846
3002,846
3009,845
3017,847
3024,844
3032,842
3040,843
3047,845
3055,848
3063,846
3070,848
3078,846
3086,848
3093,846
3101,847
3108,844
3116,846
3124,846
3131,847
3139,844
3147,844
3154,843
3162,842
3170,842
3177,839
3307,863
3328,846
3336,838
3343,831
3351,821
3358,816
3369,812
3376,795
3384,787
3391,786
3399,764
3407,807
3414,938
3422,1046
3430,1057
3437,856
3445,672
3452,691
3460,707
3468,724
3475,734
3483,738
3491,747
3498,752
3506,755
3514,759
3521,761
3529,764
3536,768
3544,767
3552,774
3559,774
3567,781
3575,787
3582,791
3590,797
3598,808
3605,818
3613,829
3620,841
3628,853
3636,864
3643,871
3651,871
3659,865
3666,858
3674,849
3804,804
3811,806
3832,810
3840,812
3848,816
3855,824
3863,825
3871,827
3878,831
3886,836
3896,837
3904,833
3911,830
3919,832
3926,831
3934,834
3942,840
3949,840
3957,841
3965,846
3972,848
3980,851
3987,855
3995,856
4003,856
4010,855
4018,856
4026,857
4033,857
4041,857
4049,857
4056,854
4064,854
4072,855
4079,856
4087,853
4095,852
4102,852
4110,850
4117,850
4125,850
4133,849
4140,849
4148,849
4156,847
4163,843
4171,842
4178,844
4186,850
4317,859
4338,962
4345,1072
4353,1101
4361,984
4368,735
4376,728
4384,742
4391,756
4399,764
4406,764
4414,764
4424,767
4432,758
4439,752
4447,751
4455,752
4462,752
4470,755
4478,758
4485,760
4493,766
4501,774
4508,779
4516,786
4524,795
4531,803
4539,813
4546,824
4554,840
4562,850
4569,855
4577,855
4585,853
4592,844
4600,836
4607,822
4615,802
4623,784
4630,769
4638,754
4646,745
4653,740
4661,736
4669,733
4676,737
4684,740
4814,802
4821,805
4842,806
4850,806
4858,809
4865,812
4873,820
4881,822
4888,827
4896,830
4903,834
4911,836
4919,839
4926,840
4934,843
4942,846
4949,846
4959,849
4967,840
4974,838
4982,838
4990,840
4997,842
5005,844
5013,846
5020,847
5028,850
5035,854
5043,852
5051,852
5058,852
5066,851
5074,852
5081,853
5089,852
5097,849
5104,849
5112,845
5119,843
5127,845
5135,846
5142,852
5150,856
5158,859
5165,858
5173,856
5181,856
5188,854
5196,850
5325,774
5347,807
5354,806
5362,806
5369,806
5377,801
5385,796
5393,793
5400,790
5408,788
5415,783
5423,783
5431,782
5438,782
5446,784
5454,786
5461,789
5469,793
5476,798
5486,808
5494,813
5502,819
5509,827
5517,833
5525,837
5532,836
5540,832
5547,823
5555,811
5563,792
5570,773
5578,754
5586,743
5593,735
5601,731
5609,729
5616,729
5624,728
5631,732
5639,737
5647,741
5654,743
5662,745
5670,748
5677,752
5685,756
5692,759
5700,762
5830,816
5851,818
5858,819
5866,824
5874,831
5881,835
5889,838
5896,841
5904,844
5912,847
5920,848
5927,849
5935,851
5942,853
5950,854
5958,857
5965,857
5973,857
5981,858
5988,862
5996,862
6003,861
6013,859
6021,851
6029,845
6036,842
6044,837
6052,842
6059,847
6067,857
6074,861
6082,861
6090,864
6097,862
6105,865
6113,863
6120,860
6128,858
6136,853
6143,849
6151,847
6158,848
6166,849
6174,851
6181,855
6189,847
6197,853
6204,919
6334,840
6355,841
6363,837
6370,834
6378,831
6386,829
6393,828
6401,829
6409,834
6416,842
6424,849
6431,855
6439,858
6447,854
6454,847
6462,838
6470,827
6477,810
6485,789
6493,767
6500,747
6508,732
6515,720
6523,715
6531,712
6541,713
6548,705
6556,702
6564,703
6571,706
6579,709
6586,717
6594,723
6602,729
6609,732
6617,734
6625,739
6632,743
6640,749
6648,753
6655,756
6663,760
6670,764
6678,765
6686,765
6693,768
6701,769
6709,773
6838,828
6859,836
6867,836
6875,838
6882,842
6890,846
6898,850
6905,852
6913,857
6920,858
6928,860
6936,861
6943,863
6951,858
6959,859
6966,863
6974,871
6982,878
6989,880
6997,884
7004,882
7012,880
7020,880
7027,875
7035,871
7043,867
7050,860
7058,858
7068,858
7075,851
7083,848
7091,854
7098,845
7106,857
7114,932
7121,1119
7129,1216
7136,1152
7144,891
7152,798
7159,798
7167,805
7175,803
7182,806
7190,811
7198,812
7205,816
7335,916
7343,927
7364,916
7372,903
7379,885
7387,862
7394,837
7402,811
7410,791
7417,772
7425,756
7433,745
7440,739
7448,734
7456,734
7463,733
7471,732
7479,732
7486,733
7494,734
7501,736
7509,736
7517,736
7524,737
7532,736
7540,739
7547,739
7555,741
7563,742
7570,743
7578,746
7585,750
7595,752
7603,746
7611,742
7618,742
7626,743
7634,746
7641,751
7649,754
7656,758
7664,762
7672,764
7679,770
7687,773
7695,774
7702,778
7710,781
7718,784
7847,848
7868,849
7876,848
7883,847
7891,848
7899,844
7906,843
7914,846
7921,851
7929,855
7937,858
7945,864
7952,857
7960,885
7967,976
7975,1149
7983,1183
7990,1062
7998,827
8006,799
8013,814
8021,827
8029,825
8036,826
8044,830
8051,835
8059,840
8067,841
8074,844
8082,847
8090,849
8097,850
8105,851
8112,852
8122,856
8130,850
8138,849
8145,852
8153,859
8161,868
8168,879
8176,892
8183,907
8191,918
8199,924
8206,925
8214,921
8344,817
8352,817
8373,813
8380,811
8388,805
8396,801
8403,796
8411,790
8419,785
8426,782
8434,779
8441,776
8449,770
8457,768
8464,764
8472,761
8480,758
8487,759
8495,758
8503,755
8510,754
8518,755
8525,754
8533,754
8541,757
8548,759
8556,758
8564,757
8571,752
8579,751
8587,756
8594,765
8602,774
8609,778
8617,781
8625,782
8632,784
8640,785
8650,781
8658,772
8665,762
8673,760
8680,762
8688,766
8696,770
8703,772
8711,776
8719,783
8726,781
8856,830
8877,840
8885,843
8892,848
8900,855
8908,860
8915,867
8923,874
8931,883
8938,893
8946,907
8953,920
8961,933
8969,940
8976,941
8984,940
8992,933
8999,921
9007,908
9015,891
9022,871
9030,852
9037,837
9045,824
9053,812
9060,807
9068,802
9076,802
9083,803
9091,804
9099,804
9106,808
9114,809
9121,811
9129,814
9137,816
9144,819
9152,819
9160,820
9167,821
9175,822
9185,819
9192,811
9200,804
9208,804
9215,804
9223,806
9231,808
9360,859
9381,847
9389,836
9397,827
9404,819
9412,813
9420,806
9428,800
9435,795
9443,792
9450,794
9458,781
9466,829
9473,960
9481,1103
9489,1066
9496,842
9504,661
9512,680
9519,712
9527,727
9534,727
9542,733
9550,739
9557,741
9565,745
9573,748
9580,751
9588,756
9595,762
9603,765
9611,770
9618,773
9626,778
9634,782
9641,788
9649,794
9657,803
9664,815
9672,826
9679,840
9687,851
9695,859
9702,864
9712,863
9720,849
9728,835
9857,811
9865,814
9886,817
9894,819
9901,823
9909,828
9916,831
9924,834
9932,837
9940,841
9947,843
9955,843
9962,844
9970,842
9978,838
9985,840
9993,844
10001,847
10008,854
10016,862
10023,865
10031,869
10039,869
10046,869
10054,864
10062,861
10069,857
10077,855
10085,854
10092,853
10100,853
10107,852
10115,851
10123,853
10130,856
10138,858
10146,852
10153,933
10161,1101
10169,1195
10298,866
10306,871
10313,874
10321,874
10329,878
10339,880
10346,879
10354,882
10362,891
10369,901
10390,913
10398,904
10406,891
10413,877
10421,861
10429,843
10436,820
10444,802
10452,785
10459,771
10467,757
10475,748
10482,744
10490,738
10497,736
10505,734
10513,735
10520,738
10528,742
10536,744
10543,746
10551,749
10559,752
10566,754
10574,755
10703,790
10711,794
10719,795
10726,796
10734,795
10742,797
10749,796
10757,794
10765,795
10772,800
10780,798
10787,889
10795,1060
10803,1095
10810,1020
10818,717
10828,642
10836,692
10843,716
10851,744
10858,760
10866,768
10874,780
10895,800
10902,806
10910,817
10917,828
10925,838
10933,847
10941,855
10948,862
10956,871
10963,883
10971,890
10979,900
10986,912
11116,837
11124,837
11131,834
11139,832
11147,835
11154,837
11162,837
11169,834
11177,834
11185,836
11192,838
11200,835
11208,831
11215,831
11223,829
11230,826
11238,831
11246,834
11253,833
11261,833
11269,834
11276,831
11284,826
11292,820
11299,814
11307,810
11314,804
11324,803
11332,795
11340,788
11347,789
11355,791
11498,830
11506,826
11513,824
11521,821
11529,815
11536,812
11544,810
11552,811
11560,812
11567,809
11575,811
11582,815
11590,821
11598,827
11605,835
11613,845
11621,849
11628,850
11636,846
11644,839
11651,826
11659,814
11666,799
11674,779
11682,763
11689,743
11697,730
11705,723
11712,718
11720,717
11728,716
11735,716
11743,717
11750,722
11880,807
11888,802
11896,798
11903,795
11911,789
11918,786
11926,787
11936,785
11944,778
11951,773
11959,775
11967,775
11974,779
11982,784
12003,970
12010,1092
12018,1104
12026,908
12033,683
12041,716
12049,743
12057,768
12064,790
12072,801
12079,816
12087,826
12095,834
12102,840
12110,845
12118,848
12125,853
12133,854
12141,858
12148,863
12156,869
12286,853
12293,838
12301,824
12308,815
12316,810
12324,806
12331,802
12339,801
12347,803
12354,803
12362,803
12370,803
12377,805
12385,804
12392,806
12400,805
12408,804
12415,799
12423,798
12433,798
12441,792
12448,791
12456,794
12463,798
12471,803
12479,804
12486,800
12507,791
12515,781
12523,772
12531,765
12538,761
12546,758
12553,754
12561,751
12569,749
12576,749
12706,745
12714,751
12722,755
12729,757
12737,761
12745,763
12752,768
12760,771
12768,774
12775,778
12783,787
12790,794
12798,803
12806,814
12813,826
12821,837
12829,842
12836,845
12844,843
12852,837
12859,830
12867,819
12874,803
12882,788
12890,775
12897,764
12905,756
12913,753
12923,752
12930,746
12938,743
12945,749
13088,829
13096,839
13104,855
13111,863
13119,867
13127,868
13134,870
13142,874
13150,873
13157,872
13165,871
13173,868
13180,867
13188,867
13195,867
13203,867
13211,865
13218,866
13226,868
13234,871
13241,875
13249,858
13256,909
13264,1066
13272,1269
13279,1244
13287,1036
13295,817
13302,796
13310,806
13318,807
13325,808
13333,815
13463,902
13471,912
13479,918
13486,919
13494,916
13501,909
13509,899
13517,885
13524,869
13534,845
13542,819
13550,797
13557,782
13565,773
13572,769
13594,769
13601,770
13609,767
13617,765
13624,763
13632,763
13640,759
13647,758
13655,757
13663,755
13670,751
13678,747
13685,746
13693,745
13701,744
13708,744
13716,746
13724,746
13731,746
13739,747
13747,749
13877,810
13884,807
13892,803
13900,798
13907,795
13915,795
13923,794
13930,795
13938,794
13946,795
13953,797
13961,801
13968,807
13976,795
13984,834
13991,967
13999,1163
14007,1140
14014,965
14022,743
14032,737
14039,749
14047,748
14055,750
14062,757
14070,764
14078,772
14099,789
14106,796
14114,803
14121,812
14129,822
14137,832
14144,840
14152,848
14160,857
14289,855
14297,845
14305,839
14312,838
14320,837
14327,834
14335,835
14343,835
14350,838
14358,836
14366,836
14373,834
14381,835
14389,836
14396,835
14404,831
14411,831
14419,830
14427,829
14434,828
14442,828
14450,828
14457,828
14465,826
14473,825
14480,826
14488,825
14495,822
14503,820
14511,820
14521,819
14528,812
14672,850
14679,842
14687,830
14695,822
14702,813
14710,807
14717,803
14725,798
14733,795
14740,791
14748,790
14756,776
14763,818
14771,948
14779,1107
14786,1067
14794,860
14802,685
14809,693
14817,717
14824,729
14832,727
14840,733
14847,736
14855,738
14863,742
14870,745
14878,747
14886,750
14893,754
14901,758
14908,761
14916,766
15046,826
15054,810
15062,793
15069,781
15077,773
15085,768
15092,764
15100,763
15108,762
15115,762
15123,766
15130,771
15140,773
15148,767
15156,764
15177,769
15184,775
15192,781
15200,787
15207,796
15215,804
15222,810
15230,816
15238,820
15246,825
15253,827
15261,830
15268,833
15276,837
15284,837
15291,840
15299,841
15307,842
15314,843
15322,846
15330,848
15337,847
15467,875
15475,869
15483,866
15490,863
15498,861
15505,860
15513,858
15521,857
15528,859
15536,847
15544,870
15551,963
15559,1122
15567,1157
15574,1017
15582,760
15589,750
15597,780
15605,802
15612,804
15620,807
15630,809
15638,805
15645,803
15653,803
15661,806
15682,813
15689,815
15697,815
15705,814
15712,814
15720,816
15728,819
15735,826
15743,832
15874,749
15881,747
15889,748
15896,747
15904,748
15912,749
15919,752
15927,751
15935,752
15942,755
15950,755
15958,756
15965,758
15973,760
15980,761
15988,762
15996,762
16003,765
16011,764
16018,762
16026,762
16034,764
16042,766
16049,768
16057,768
16064,768
16072,770
16080,772
16087,775
16095,778
16103,781
16110,783
16120,783
16264,838
16272,842
16279,844
16287,854
16295,846
16302,881
16310,992
16317,1144
16325,1157
16333,987
16340,752
16348,769
16356,806
16363,830
16371,836
16379,839
16386,846
16394,849
16402,852
16409,855
16417,856
16424,859
16432,860
16440,861
16447,864
16455,864
16463,865
16470,870
16478,872
16486,878
16493,883
16501,891
16508,899
16639,812
16647,812
16654,812
16662,814
16669,814
16677,813
16685,813
16692,812
16700,812
16708,812
16715,813
16723,811
16730,810
16740,807
16748,801
16769,789
16777,786
16785,782
16792,776
16800,772
16807,770
16815,768
16823,765
16830,761
16838,760
16846,759
16853,757
16861,753
16869,748
16876,741
16884,744
16892,748
16899,757
16907,764
16914,770
16922,772
16930,772
17060,1121
17067,1055
17075,792
17083,682
17090,720
17098,752
17105,769
17113,771
17121,777
17128,782
17136,782
17144,787
17151,792
17159,796
17167,799
17174,801
17182,804
17189,807
17197,810
17205,815
17212,820
17220,827
17230,836
17237,837
17245,842
17253,850
17274,880
17281,884
17289,884
17297,883
17304,878
17312,870
17320,861
17327,848
17335,835
17465,870
17473,874
17480,873
17488,870
17495,865
17503,861
17511,857
17518,853
17526,851
17534,849
17541,847
17549,845
17557,842
17564,841
17572,840
17579,833
17587,827
17595,825
17602,827
17610,832
17618,838
17625,842
17633,846
17641,850
17648,847
17656,841
17663,836
17671,831
17679,829
17686,829
17694,828
17702,826
17845,826
17853,827
17863,823
17871,812
17878,803
17886,798
17893,796
17901,796
17909,797
17916,799
17924,800
17932,805
17939,813
17947,820
17955,830
17962,838
17970,848
17977,855
17985,857
17993,856
18000,850
18008,841
18016,829
18023,817
18031,803
18039,785
18046,770
18054,759
18061,749
18069,741
18077,738
18084,737
18092,734
18100,736
18229,791
18237,792
18245,791
18252,793
18260,797
18268,802
18275,807
18283,809
18290,808
18298,806
18306,804
18313,797
18321,795
18329,793
18352,783
18360,784
18367,791
18375,797
18382,805
18390,814
18398,821
18405,844
18413,962
18421,1122
18428,1104
18436,989
18444,684
18451,681
18459,751
18467,787
18474,816
18482,836
18489,843
18497,853
18505,860
18512,861
18642,969
18650,966
18657,954
18665,941
18672,928
18680,912
18688,892
18695,869
18703,851
18711,833
18718,816
18726,807
18733,802
18741,795
18749,792
18756,794
18764,794
18772,795
18779,795
18787,800
18795,801
18802,801
18810,801
18817,804
18825,804
18835,799
18856,779
18864,775
18872,771
18879,770
18887,772
18894,773
18902,776
18910,777
18917,780
18925,777
19055,1077
19063,1059
19071,890
19078,628
19086,659
19093,703
19101,729
19109,751
19116,764
19124,772
19132,780
19139,784
19147,787
19155,790
19162,793
19170,795
19178,797
19185,799
19193,801
19200,805
19208,813
19216,821
19223,830
19231,839
19239,846
19246,857
19254,869
19262,877
19269,885
19277,885
19284,881
19292,875
19435,807
19443,812
19451,820
19461,822
19468,817
19476,813
19484,811
19491,810
19499,816
19507,821
19514,826
19522,833
19529,842
19537,848
19545,851
19552,854
19560,854
19568,851
19575,846
19583,841
19591,840
19598,839
19606,837
19613,839
19621,842
19629,842
19636,843
19644,844
19652,849
19659,832
19667,876
19675,1016
19682,1144
19690,1154
19820,862
19827,866
19835,870
19842,870
19850,873
19858,878
19865,886
19873,895
19881,902
19888,908
19896,909
19904,907
19911,900
19919,892
19940,849
19950,819
19958,787
19965,760
19973,744
19981,734
19988,728
19996,729
20004,728
20011,726
20019,728
20026,728
20034,730
20042,733
20049,733
20057,735
20065,736
20072,738
20080,739
20088,740
20095,741
20103,743
20233,791
20241,789
20248,789
20256,788
20264,787
20271,788
20279,789
20287,790
20294,795
20302,783
20310,785
20317,886
20325,1074
20332,1193
20340,1097
20348,797
20355,717
20363,725
20371,739
20378,743
20386,748
20394,757
20401,764
20409,771
20416,775
20424,780
20447,779
20455,783
20463,792
20470,801
20478,812
20485,824
20493,837
20501,852
20508,866
20638,838
20646,841
20654,843
20661,843
20669,844
20677,842
20684,842
20692,841
20700,841
20707,839
20715,836
20723,835
20730,832
20738,829
20745,828
20753,829
20761,826
20768,825
20776,822
20784,821
20791,822
20799,821
20807,820
20814,818
20822,820
20830,817
20837,816
20845,812
20852,805
20860,806
20868,811
20875,818
21019,829
21026,831
21034,910
21041,1102
21049,1196
21059,1034
21067,762
21074,711
21082,720
21090,725
21097,721
21105,725
21113,728
21120,734
21128,737
21135,741
21143,741
21151,745
21158,749
21166,749
21174,752
21181,756
21189,761
21197,765
21204,769
21212,777
21219,784
21227,794
21235,807
21242,820
21250,830
21258,838
21265,843
21273,843
21403,788
21410,790
21418,790
21426,791
21433,789
21441,791
21449,791
21456,790
21464,790
21472,789
21479,791
21487,794
21494,793
21502,792
21523,797
21531,801
21538,806
21548,813
21556,809
21564,809
21571,813
21579,818
21586,823
21594,827
21602,832
21609,837
21617,841
21625,848
21632,852
21640,853
21648,852
21655,848
21663,854
21671,862
21678,869
21686,873
21816,870
21824,886
21832,970
21839,1155
21847,1215
21855,1110
21862,847
21870,790
21877,804
21885,815
21893,813
21900,814
21908,817
21916,819
21923,822
21931,824
21938,823
21946,824
21954,826
21961,826
21969,827
21977,830
21984,832
21992,833
22000,836
22007,840
22028,862
22036,870
22046,875
22054,872
22061,865
22069,858
22077,851
22084,839
22092,827
22221,772
22229,775
22237,773
22244,773
22252,772
22260,772
22267,769
22275,768
22283,769
22290,768
22298,767
22306,766
22313,765
22321,767
22328,767
22336,768
22344,769
22351,771
22359,773
22367,774
22374,775
22382,775
22390,777
22397,779
22405,781
22412,783
22420,783
22428,785
22435,785
22443,785
22451,787
22458,788
22601,829
22609,833
22617,838
22624,843
22632,843
22640,851
22647,923
22657,1140
22665,1171
22673,1038
22680,789
22688,769
22696,794
22703,815
22711,817
22718,820
22726,829
22734,835
22741,841
22749,844
22757,847
22764,850
22772,852
22780,855
22787,858
22795,859
22802,862
22810,864
22818,867
22825,873
22833,880
22841,888
22848,898
22856,905
22986,808
22993,810
23001,811
23009,811
23016,811
23024,809
23031,808
23039,808
23047,808
23054,809
23062,809
23070,807
23077,805
23085,805
23106,802
23114,797
23121,795
23129,790
23137,784
23147,776
23154,765
23162,757
23170,752
23177,749
23185,749
23193,750
23200,748
23208,749
23215,752
23223,754
23231,755
23238,756
23246,757
23254,757
23261,754
23269,752
23399,806
23407,811
23414,816
23422,814
23430,820
23437,897
23445,1050
23453,1128
23460,1037
23468,741
23476,688
23483,728
23491,759
23498,775
23506,776
23514,779
23521,784
23529,788
23537,794
23544,798
23552,801
23559,806
23567,810
23575,813
23582,817
23590,823
23611,837
23619,849
23626,862
23634,875
23644,892
23652,903
23659,912
23667,921
23675,926
23804,860
23812,862
23820,863
23827,864
23835,865
23843,864
23850,863
23858,863
23866,860
23873,856
23881,854
23888,852
23896,845
23904,840
23911,839
23919,839
23927,835
23934,830
23942,826
23950,825
23957,819
23965,816
23972,815
23980,813
23988,819
23995,823
24003,828
24011,828
24018,830
24026,829
24034,827
24041,826
24185,654
24192,720
24200,753
24208,775
24215,782
24223,780
24230,780
24238,781
24246,780
24256,781
24263,773
24271,767
24279,766
24286,768
24294,770
24302,772
24309,776
24317,781
24324,791
24332,798
24340,808
24347,819
24355,832
24363,843
24370,854
24378,857
24386,857
24393,854
24401,845
24408,832
24416,815
24424,799
24431,780
24439,763
24569,786
24576,789
24584,789
24592,790
24599,791
24607,791
24615,791
24622,790
24630,788
24638,788
24645,788
24653,789
24661,789
24668,788
24689,787
24697,787
24704,792
24712,801
24720,813
24727,823
24735,833
24743,841
24753,849
24760,842
24768,836
24775,834
24783,832
24791,832
24798,833
24806,835
24814,837
24821,840
24829,843
24837,848
24844,853
24852,855
24981,865
24989,866
24997,866
25004,866
25012,862
25020,862
25027,863
25035,865
25042,869
25050,874
25058,878
25065,883
25073,892
25081,901
25088,908
25096,913
25104,912
25111,906
25119,896
25126,885
25134,872
25142,858
25149,837
25157,817
25165,800
25172,787
25193,772
25201,768
25209,764
25216,762
25224,759
25232,759
25242,758
25249,748
25257,744
25265,744
25272,744
25402,788
25410,790
25417,790
25425,790
25433,784
25440,778
25448,781
25456,788
25463,799
25471,801
25479,802
25486,803
25494,802
25502,803
25509,802
25517,798
25524,794
25532,788
25540,787
25547,788
25555,789
25563,789
25570,790
25578,793
25586,795
25593,798
25601,783
25608,835
25616,982
25624,1161
25631,1123
25775,834
25783,840
25790,849
25798,861
25805,872
25813,885
25821,898
25828,911
25836,923
25844,927
25851,929
25861,921
25869,905
25876,889
25884,872
25892,853
25899,837
25907,825
25915,818
25922,812
25930,812
25938,814
25945,817
25953,817
25961,819
25968,824
25976,828
25983,829
25991,831
25999,832
26006,833
26014,833
26022,834
26029,836
26159,839
26167,843
26174,847
26182,853
26190,854
26197,854
26205,855
26213,853
26220,850
26228,845
26235,839
26243,830
26251,823
26258,821
26280,817
26287,812
26295,808
26303,803
26310,803
26318,790
26325,795
26333,883
26341,1057
26351,1111
26358,919
26366,685
26374,680
26381,705
26389,719
26397,718
26404,723
26412,730
26419,736
26427,740
26435,745
26442,751
26573,880
26580,876
26588,866
26596,854
26603,837
26611,818
26618,798
26626,781
26634,769
26641,763
26649,757
26657,753
26664,750
26672,753
26680,756
26687,758
26695,759
26702,762
26710,764
26718,766
26725,770
26733,774
26741,777
26748,777
26756,778
26764,781
26785,787
26792,793
26800,795
26807,801
26815,807
26823,813
26830,817
26838,821
26848,827
26856,824
26986,882
26994,882
27001,879
27009,877
27017,876
27024,876
27032,879
27040,871
27047,875
27055,963
27063,1129
27070,1206
27078,1082
27085,801
27093,757
27101,786
27108,811
27116,814
27124,813
27131,818
27139,823
27147,824
27154,825
27162,827
27169,829
27177,832
27185,833
27192,833
27200,833
27208,837
27215,840
27223,845
27366,796
27374,786
27382,779
27389,771
27397,765
27405,761
27412,761
27420,759
27428,755
27435,754
27443,755
27450,749
27460,745
27468,738
27476,732
27483,730
27491,731
27499,732
27506,732
27514,734
27522,735
27529,737
27537,739
27544,739
27552,737
27560,736
27567,738
27575,740
27583,748
27590,753
27598,759
27606,767
27613,773
27621,775
27751,1178
27758,1145
27766,862
27774,647
27781,699
27789,739
27797,767
27804,785
27812,790
27819,798
27827,806
27835,811
27842,816
27850,820
27871,827
27879,833
27886,842
27894,847
27901,854
27909,861
27917,871
27924,882
27932,896
27940,911
27950,927
27957,931
27965,933
27973,930
27980,929
27988,921
27996,914
28003,907
28011,896
28018,878
28026,863
28034,849
28164,856
28172,855
28180,851
28187,844
28195,836
28202,834
28210,835
28218,830
28225,832
28233,838
28241,842
28248,842
28256,841
28264,838
28271,834
28279,827
28286,819
28294,817
28302,812
28309,811
28317,812
28325,811
28332,812
28340,811
28348,809
28355,811
28376,818
28384,921
28392,1084
28399,1090
28407,992
28415,677
28422,627
28430,686
28437,714
28448,742
28578,853
28585,864
28593,874
28601,883
28608,891
28616,887
28624,882
28631,875
28639,862
28646,848
28654,832
28662,812
28669,793
28677,776
28685,765
28692,758
28700,751
28708,749
28715,748
28723,746
28730,750
28738,755
28746,754
28753,757
28761,764
28769,765
28776,767
28784,770
28792,772
28799,773
28807,776
28814,777
28958,816
28965,819
28973,822
28981,827
28989,834
28996,840
29004,827
29011,871
29019,1011
29027,1150
29034,1155
29042,971
29050,708
29060,749
29067,770
29075,789
29082,801
29090,809
29098,818
29105,826
29113,832
29121,838
29128,842
29136,847
29143,851
29151,855
29159,857
29166,861
29174,864
29182,871
29189,875
29197,882
29205,890
29212,899
29342,801
29350,801
29357,802
29365,800
29373,801
29380,804
29388,804
29396,804
29403,803
29411,802
29418,801
29426,803
29434,803
29441,802
29463,789
29470,785
29478,780
29486,776
29493,777
29501,778
29508,776
29516,776
29524,775
29531,769
29539,763
29549,757
29557,745
29564,735
29572,734
29579,732
29587,733
29595,735
29602,736
29610,737
29618,740
29625,743
29756,782
29763,786
29771,788
29779,789
29786,791
29794,794
29802,795
29809,800
29817,803
29824,809
29832,816
29840,824
29847,833
29855,844
29863,852
29870,858
29878,862
29886,861
29893,856
29901,849
29908,838
29916,826
29924,812
29931,793
29939,776
29947,766
29968,756
29975,760
29983,768
29991,774
29998,781
30006,788
30013,797
30021,803
30029,808
30159,874
30169,884
30176,876
30184,868
30192,865
30199,863
30207,860
30215,855
30222,850
30230,846
30237,843
30245,844
30253,844
30260,842
30268,842
30276,843
30283,843
30291,842
30299,846
30306,828
30314,871
30322,1021
30329,1236
30337,1213
30345,1008
30352,786
30360,766
30367,777
30375,782
30383,783
30390,791
30398,797
30541,904
30549,900
30556,889
30564,878
30572,862
30579,844
30587,823
30595,799
30602,778
30610,761
30618,746
30625,736
30633,731
30640,729
30648,727
30658,727
30666,721
30673,719
30681,722
30689,723
30696,726
30704,731
30712,737
30719,738
30727,740
30734,743
30742,746
30750,750
30757,752
30765,754
30773,755
30780,758
30788,761
30796,762
30925,814
30933,816
30940,816
30948,814
30956,812
30963,813
30971,817
30979,815
30986,810
30994,883
31002,1061
31009,1205
31017,1123
31024,851
31045,766
31053,778
31061,784
31069,794
31076,801
31084,808
31091,814
31099,819
31107,825
31114,831
31122,837
31130,843
31137,846
31147,854
31155,853
31162,853
31170,859
31178,869
31185,881
31193,893
31201,904
31208,915
31338,841
31345,843
31353,846
31361,845
31368,843
31376,841
31384,837
31391,836
31399,834
31407,832
31414,830
31422,827
31429,827
31437,823
31445,822
31452,820
31460,820
31468,821
31475,820
31483,819
31491,817
31498,814
31506,807
31513,802
31521,804
31529,809
31550,821
31558,819
31565,813
31573,809
31581,803
31588,794
31596,785
31603,777
31611,773
31741,744
31748,754
31756,753
31766,759
31774,755
31781,752
31789,754
31797,757
31804,760
31812,764
31820,768
31827,772
31835,778
31842,785
31850,790
31858,797
31865,806
31873,813
31881,821
31888,831
31896,844
31904,855
31911,862
31919,864
31926,864
31934,861
31942,853
31949,843
31957,829
31965,814
31972,797
31980,784
31988,777
32131,825
32139,826
32147,830
32154,834
32162,840
32170,842
32177,842
32185,840
32193,839
32200,841
32208,849
32215,855
32223,867
32231,873
32238,873
32246,874
32254,873
32264,870
32271,861
32279,853
32286,848
32294,847
32302,847
32309,850
32317,852
32325,850
32332,850
32340,855
32348,863
32355,860
32363,871
32370,968
32378,1139
32386,1198
32516,876
32523,879
32531,882
32538,884
32546,886
32554,889
32561,893
32569,902
32577,910
32584,914
32592,917
32600,916
32607,911
32615,903
32636,871
32644,849
32651,825
32659,802
32667,786
32674,771
32682,757
32690,746
32697,741
32705,738
32713,736
32720,735
32728,733
32735,733
32743,736
32753,738
32761,732
32768,725
32776,726
32784,726
32791,728
32799,730
32929,783
32937,786
32944,789
32952,789
32960,787
32967,789
32975,793
32983,798
32990,779
32998,838
33005,998
33013,1098
33021,1057
33028,815
33036,620
33044,676
33051,715
33059,743
33067,759
33074,765
33082,774
33089,784
33097,788
33105,793
33112,797
33120,801
33141,812
33148,820
33156,829
33164,840
33172,851
33179,862
33187,872
33194,886
33202,900
33332,826
33340,827
33347,828
33355,827
33365,829
33373,822
33380,817
33388,815
33396,814
33403,816
33411,818
33419,818
33426,821
33434,822
33441,823
33449,824
33457,823
33464,821
33472,818
33480,814
33487,808
33495,804
33503,805
33510,808
33518,813
33525,820
33533,821
33541,824
33548,825
33556,825
33564,825
33571,822
33579,816
33723,777
33731,785
33738,783
33746,785
33753,785
33761,786
33769,783
33777,780
33784,778
33792,776
33799,775
33807,776
33815,776
33822,776
33830,777
33838,779
33845,783
33853,790
33863,799
33870,801
33878,806
33886,811
33893,819
33901,822
33909,821
33916,817
33924,810
33931,799
33939,787
33947,773
33954,760
33962,749
33970,739
33977,733
34107,792
34115,793
34122,792
34130,787
34138,786
34145,786
34153,792
34161,798
34168,804
34176,807
34183,807
34191,808
34199,807
34206,804
34227,796
34235,797
34242,802
34250,808
34258,811
34266,816
34273,822
34281,827
34288,836
34296,839
34304,827
34311,898
34319,1081
34327,1260
34334,1200
34342,919
34352,778
34360,784
34367,792
34375,792
34382,799
34390,807
34520,929
34527,937
34535,939
34542,936
34550,931
34558,918
34565,906
34573,892
34581,875
34588,856
34596,837
34604,823
34611,810
34619,801
34626,797
34634,795
34642,794
34649,796
34657,795
34665,796
34672,796
34680,798
34688,802
34695,801
34703,802
34710,802
34732,795
34739,793
34747,791
34755,786
34762,782
34770,776
34778,768
34785,762
34793,759
34923,779
34930,781
34938,781
34946,787
34953,770
34961,800
34971,990
34978,1165
34986,1112
34994,847
35001,690
35009,703
35017,722
35024,728
35032,731
35040,740
35047,747
35055,753
35063,757
35070,763
35078,768
35085,773
35093,776
35101,780
35108,785
35116,790
35124,794
35131,800
35139,807
35147,817
35154,826
35162,838
35305,798
35312,804
35320,810
35328,817
35335,822
35343,828
35351,832
35358,835
35366,838
35374,840
35381,843
35389,845
35397,846
35404,845
35412,845
35419,847
35427,847
35435,844
35442,841
35450,841
35460,847
35468,848
35475,850
35483,851
35490,850
35498,850
35506,850
35513,849
35521,851
35529,849
35536,844
35544,844
35552,844
35559,844
35689,819
35697,825
35704,829
35712,832
35719,833
35727,833
35735,832
35742,832
35750,833
35758,831
35765,829
35773,832
35781,836
35788,837
35809,851
35817,856
35825,859
35832,862
35840,866
35848,866
35855,862
35863,853
35871,841
35878,825
35886,811
35894,795
35901,778
35909,761
35916,746
35924,734
35932,726
35939,722
35947,720
35957,720
35965,717
35972,716
35980,719
36110,792
36117,790
36125,789
36133,795
36140,804
36148,811
36156,815
36163,815
36171,816
36179,813
36186,812
36194,809
36201,804
36209,798
36217,795
36224,795
36232,796
36240,797
36247,799
36255,801
36263,804
36270,807
36278,804
36285,808
36293,900
36314,1111
36322,813
36329,687
36337,733
36344,773
36352,798
36360,806
36368,816
36375,827
36383,835
36513,961
36521,963
36528,956
36536,946
36543,935
36551,922
36559,907
36569,886
36576,863
36584,844
36592,831
36599,820
36607,813
36614,808
36622,806
36630,807
36637,809
36645,813
36653,815
36660,816
36668,818
36676,823
36683,823
36691,822
36698,822
36706,822
36714,820
36721,815
36729,812
36737,807
36744,807
36752,812
36895,826
36903,824
36911,804
36918,879
36926,1048
36933,1101
36941,1040
36949,748
36956,609
36964,666
36972,698
36979,722
36987,739
36995,746
37002,751
37010,756
37018,759
37025,762
37033,764
37040,766
37048,770
37058,774
37066,770
37073,769
37081,771
37089,779
37096,789
37104,797
37111,810
37119,820
37127,834
37134,845
37142,849
37150,853
37279,780
37287,781
37295,782
37302,786
37310,789
37318,788
37325,790
37333,790
37340,788
37348,785
37356,781
37363,784
37371,782
37379,786
37400,801
37407,808
37415,812
37422,812
37430,816
37438,816
37445,816
37453,817
37461,819
37468,822
37476,827
37484,829
37491,830
37499,832
37507,835
37514,839
37522,841
37530,834
37537,920
37545,1095
37555,1158
37685,883
37692,889
37700,892
37708,895
37715,899
37723,902
37730,910
37738,917
37746,924
37753,928
37761,930
37769,926
37776,919
37784,906
37792,893
37799,880
37807,864
37815,845
37822,827
37830,811
37837,799
37845,790
37853,786
37860,782
37868,780
37876,781
37883,781
37904,786
37912,785
37920,782
37927,780
37935,775
37943,773
37950,771
37958,768
37966,764
38096,771
38104,774
38111,774
38119,771
38127,771
38134,773
38142,773
38150,774
38157,758
38167,864
38175,1041
38182,1143
38190,1038
38198,732
38205,674
38213,694
38221,714
38228,723
38236,729
38244,738
38251,749
38259,755
38267,762
38274,765
38282,769
38289,772
38297,774
38305,778
38312,783
38320,787
38328,792
38335,799
38478,788
38486,789
38494,794
38501,798
38509,804
38516,811
38524,818
38532,823
38539,828
38547,831
38555,832
38562,836
38570,837
38578,839
38585,841
38593,841
38601,843
38608,844
38616,844
38623,842
38631,840
38639,836
38646,834
38656,838
38664,839
38672,844
38679,847
38687,849
38694,850
38702,850
38710,849
38717,848
38725,845
38733,840
38862,799
38870,813
38878,816
38885,813
38893,816
38901,818
38908,820
38916,820
38924,823
38931,823
38939,824
38946,823
38954,824
38962,824
38983,828
38991,827
38998,828
39006,831
39014,833
39021,840
39029,843
39036,845
39044,844
39052,842
39059,835
39067,825
39075,812
39082,798
39090,783
39098,764
39105,748
39113,737
39121,728
39128,722
39136,722
39143,724
39153,725
39283,786
39291,785
39299,784
39306,786
39314,792
39321,802
39329,809
39337,813
39344,811
39352,810
39360,810
39367,808
39375,804
39383,799
39390,793
39398,793
39405,794
39413,795
39421,795
39428,794
39436,795
39444,796
39451,799
39459,805
39467,786
39487,1132
39495,1193
39503,1046
39510,774
39518,747
39526,773
39533,789
39541,790
39549,799
39679,927
39687,938
39694,945
39702,946
39710,943
39717,936
39725,925
39733,913
39740,897
39748,879
39755,860
39765,836
39773,814
39781,801
39788,794
39796,791
39804,793
39811,795
39819,798
39826,800
39834,805
39842,807
39849,809
39857,812
39865,814
39872,815
39880,816
39888,816
39895,816
39903,817
39910,817
39918,818
39926,819
40070,833
40077,828
40085,821
40093,814
40101,808
40108,800
40116,794
40123,789
40131,792
40139,772
40146,800
40154,927
40162,1111
40169,1134
40177,940
40185,692
40192,689
40200,713
40207,727
40215,724
40223,728
40230,732
40238,736
40246,740
40253,743
40263,748
40271,743
40278,740
40286,743
40294,746
40301,753
40309,759
40317,769
40324,776
40454,783
40462,780
40469,776
40477,775
40485,775
40492,776
40500,777
40508,778
40515,783
40523,784
40530,788
40538,790
40546,792
40553,792
40574,794
40582,799
40590,801
40597,805
40605,809
40613,812
40620,817
40628,820
40635,823
40643,825
40651,823
40658,825
40666,831
40674,840
40681,855
40689,861
40697,864
40704,865
40712,868
40720,868
40727,864
40857,947
40865,752
40875,788
40882,808
40890,815
40898,817
40905,821
40913,825
40921,829
40928,835
40936,836
40943,838
40951,841
40959,842
40966,846
40974,848
40982,852
40989,856
40997,858
41005,865
41012,871
41020,879
41027,886
41035,896
41043,908
41050,911
41058,910
41079,885
41087,873
41095,856
41102,835
41110,814
41117,796
41125,781
41133,769
41140,756
41148,747
41278,771
41286,771
41293,772
41301,777
41308,780
41316,784
41324,785
41331,787
41339,788
41347,786
41354,780
41362,777
41372,769
41380,758
41387,753
41395,755
41402,759
41410,762
41418,765
41425,769
41433,773
41441,777
41448,776
41456,793
41464,910
41471,1075
41479,1083
41486,967
41494,655
41502,642
41509,701
41517,731
41660,902
41668,914
41675,926
41683,935
41691,938
41698,936
41706,928
41714,921
41721,909
41729,895
41737,877
41744,860
41752,845
41759,835
41767,830
41775,825
41782,821
41790,820
41798,821
41805,822
41813,823
41821,826
41828,829
41836,833
41843,832
41851,835
41861,836
41869,827
41876,823
41884,824
41892,824
41899,821
41907,817
41914,820
42044,850
42052,852
42059,851
42067,850
42075,831
42083,895
42090,1059
42098,1153
42105,1126
42113,856
42121,678
42128,722
42136,746
42144,766
42165,792
42173,794
42180,792
42188,792
42195,789
42203,786
42211,784
42218,784
42226,781
42234,779
42241,781
42249,785
42256,788
42264,794
42272,801
42279,811
42287,822
42295,829
42302,835
42310,836
42318,835
42447,755
42455,759
42463,761
42473,767
42480,760
42488,755
42496,755
42503,758
42511,757
42518,758
42526,754
42534,757
42541,759
42549,762
42557,767
42564,773
42572,782
42580,785
42587,787
42595,787
42602,785
42610,784
42618,783
42625,780
42633,781
42641,783
42648,782
42669,793
42677,798
42684,809
42692,814
42700,807
42707,885
42715,1060
42723,1183
42730,1151
42860,891
42867,897
42875,898
42883,902
42891,905
42898,912
42906,920
42913,927
42921,933
42929,935
42936,934
42944,928
42952,919
42959,909
42969,890
42977,865
42985,838
42992,818
43000,805
43007,794
43015,787
43023,783
43030,783
43038,783
43046,784
43053,785
43061,788
43069,792
43076,795
43084,797
43091,797
43099,799
43242,832
43250,824
43257,815
43265,804
43273,798
43281,791
43288,786
43296,781
43303,776
43311,772
43319,769
43326,771
43334,754
43342,768
43349,879
43357,1067
43365,1147
43372,1007
43380,718
43387,683
43395,696
43403,710
43410,714
43418,720
43426,729
43433,735
43441,739
43448,743
43458,747
43466,741
43474,740
43481,742
43489,746
43497,752
43626,813
43634,800
43642,788
43649,781
43657,777
43665,775
43672,774
43680,774
43688,777
43695,779
43703,780
43710,781
43718,783
43726,784
43747,790
43754,795
43762,798
43770,803
43777,807
43785,812
43793,817
43800,822
43808,826
43816,829
43823,831
43831,833
43838,835
43846,837
43854,838
43861,837
43869,834
43877,835
43884,845
43892,855
43900,862
44030,868
44037,869
44045,953
44052,1142
44060,1253
44070,1092
44078,820
44085,773
44093,784
44101,792
44108,789
44116,792
44123,797
44131,803
44139,808
44146,811
44154,813
44162,815
44169,818
44177,819
44185,819
44192,821
44200,824
44208,827
44215,833
44223,838
44230,846
44252,871
44259,877
44267,881
44275,877
44282,869
44290,858
44298,845
44305,831
44313,811
44443,770
44451,771
44458,771
44466,771
44474,773
44481,771
44489,771
44497,770
44504,768
44512,769
44520,774
44527,771
44535,772
44542,774
44550,772
44558,772
44568,771
44575,765
44583,760
44591,761
44598,762
44606,760
44614,761
44621,767
44629,776
44636,787
44644,794
44652,799
44659,803
44667,804
44675,806
44682,805
44826,763
44834,780
44841,803
44849,808
44857,812
44864,822
44872,830
44880,836
44887,841
44895,844
44903,848
44910,853
44918,856
44926,859
44933,864
44941,867
44949,869
44956,874
44964,880
44971,889
44979,897
44987,905
44994,915
45002,924
45010,930
45017,932
45025,930
45033,925
45040,915
45048,902
45058,880
45065,852
45073,828
45081,812
45210,842
45218,842
45226,841
45233,840
45241,837
45248,834
45256,831
45264,831
45271,830
45279,826
45287,822
45294,822
45302,821
45310,820
45331,815
45338,810
45346,800
45354,792
45361,782
45369,779
45377,781
45384,784
45392,789
45400,787
45407,784
45415,781
45423,778
45430,775
45438,772
45445,766
45453,758
45461,754
45468,754
45476,754
45484,754
45491,756
45621,779
45628,784
45636,787
45644,790
45651,791
45659,792
45667,794
45677,795
45684,789
45692,789
45699,792
45707,798
45715,808
45722,815
45730,824
45738,836
45745,848
45753,863
45761,870
45768,872
45776,872
45783,867
45791,858
45799,847
45806,833
45814,816
45835,781
45842,775
45850,774
45858,776
45866,781
45873,788
45881,795
45888,801
45896,809
45904,814
46033,871
46041,869
46049,867
46056,865
46064,861
46071,857
46079,855
46087,851
46094,847
46102,844
46110,838
46117,834
46125,839
46133,845
46140,850
46148,851
46155,852
46165,851
46173,840
46181,832
46188,829
46196,824
46204,819
46211,817
46219,819
46226,820
46234,820
46242,820
46249,822
46257,825
46265,831
46272,817
46416,841
46423,838
46431,834
46438,829
46446,825
46454,824
46461,827
46469,831
46477,834
46484,839
46492,848
46500,856
46507,859
46515,858
46523,854
46530,848
46538,839
46545,826
46553,812
46561,794
46568,775
46576,760
46584,751
46591,742
46599,732
46607,729
46614,729
46622,733
46629,736
46637,738
46645,742
46652,746
46662,749
46670,747
46800,804
46807,805
46815,807
46823,811
46830,818
46838,822
46846,827
46853,831
46861,833
46868,831
46876,827
46884,826
46891,820
46899,816
46920,816
46928,818
46935,823
46943,826
46951,831
46958,838
46966,837
46974,855
46981,971
46989,1142
46997,1160
47004,1009
47012,702
47019,709
47027,771
47035,808
47042,834
47050,841
47058,847
47065,855
47073,860
47203,964
47211,962
47218,955
47226,943
47233,930
47241,915
47249,899
47256,879
47264,856
47274,831
47282,809
47289,794
47297,786
47304,778
47312,775
47320,775
47327,777
47335,780
47343,785
47350,790
47358,793
47366,795
47373,800
47381,801
47388,799
47396,801
47404,802
47425,801
47432,795
47440,788
47448,778
47455,773
47463,767
47471,767
47478,768
47486,773
47616,775
47624,795
47632,914
47639,1072
47647,1065
47655,927
47662,628
47670,631
47678,687
47685,719
47693,743
47700,753
47708,760
47716,771
47723,775
47731,778
47739,782
47746,786
47754,789
47761,790
47771,794
47779,790
47787,792
47794,798
47802,804
47810,812
47817,822
47825,837
47833,850
47840,865
47848,875
47856,881
47999,798
48006,804
48014,808
48021,813
48029,819
48037,825
48044,828
48052,832
48060,835
48067,835
48075,833
48083,830
48090,829
48098,830
48105,833
48113,837
48121,843
48128,849
48136,854
48144,855
48151,852
48159,848
48167,847
48174,843
48182,837
48190,837
48197,836
48205,836
48212,835
48220,839
48228,841
48235,842
48243,845
48251,838
48383,849
48390,850
48398,850
48406,850
48413,851
48421,852
48429,853
48436,857
48444,861
48451,866
48459,873
48467,881
48474,891
48482,897
48503,889
48511,875
48519,858
48526,839
48534,819
48542,795
48549,774
48557,755
48564,742
48572,732
48580,727
48587,724
48595,723
48603,723
48610,725
48618,726
48626,728
48633,730
48641,734
48648,737
48656,739
48664,741
48794,797
48802,796
48809,795
48817,790
48825,786
48832,785
48840,786
48848,788
48855,787
48863,786
48870,786
48880,789
48888,786
48896,763
48903,804
48911,957
48919,1165
48926,1155
48934,926
48941,728
48949,726
48957,745
48964,753
48972,754
48980,761
48987,769
49008,784
49016,791
49023,798
49031,807
49039,816
49046,825
49054,832
49062,840
49069,847
49077,858
49207,848
49214,844
49222,839
49230,836
49237,836
49245,836
49252,836
49260,837
49268,837
49275,837
49283,836
49291,837
49298,835
49306,835
49314,833
49321,833
49329,832
49336,830
49344,828
49352,825
49359,821
49369,815
49377,808
49385,805
49392,809
49400,819
49407,826
49415,831
49423,835
49430,835
49438,832
49446,829
49589,774
49597,787
49605,790
49612,781
49620,780
49627,780
49635,778
49643,777
49650,772
49658,771
49666,771
49673,769
49681,769
49689,770
49696,769
49704,771
49711,775
49719,779
49727,785
49734,791
49742,798
49750,809
49757,818
49765,826
49773,830
49780,828
49788,825
49795,817
49803,807
49811,795
49818,780
49826,765
49834,753
49841,742
49971,794
49979,798
49989,797
49997,784
50004,773
50012,773
50020,774
50027,781
50035,789
50042,798
50050,801
50058,805
50065,806
50073,804
50094,800
50102,796
50109,802
50117,808
50125,815
50132,819
50140,823
50147,826
50155,834
50163,845
50170,848
50178,847
50186,929
50193,1110
50201,1244
50209,1150
50216,852
50224,776
50232,799
50239,818
50247,819
50377,905
50384,914
50392,919
50400,924
50407,926
50415,923
50422,915
50430,905
50438,893
50445,880
50453,863
50461,844
50468,826
50478,808
50486,791
50493,779
50501,773
50509,771
50516,772
50524,774
50532,777
50539,782
50547,785
50554,789
50562,792
50570,794
50577,795
50599,798
50606,796
50614,793
50622,789
50629,785
50637,781
50644,770
50652,763
50660,762
50790,786
50798,788
50805,790
50813,792
50821,785
50828,852
50836,1016
50843,1163
50851,1092
50859,798
50866,691
50874,720
50882,745
50889,750
50897,749
50905,756
50912,760
50920,765
50928,770
50935,772
50943,777
50950,780
50958,783
50968,787
50976,782
50983,780
50991,787
50999,792
51006,800
51014,812
51021,823
51029,836
51172,808
51180,813
51187,817
51195,824
51203,830
51211,832
51218,835
51226,840
51233,843
51241,845
51249,845
51256,846
51264,847
51272,847
51279,845
51287,841
51295,835
51302,835
51310,835
51317,838
51325,847
51333,857
51340,859
51348,860
51355,859
51363,856
51371,853
51379,850
51386,844
51394,840
51401,839
51409,840
51417,839
51424,838
51554,822
51562,824
51570,826
51577,827
51587,827
51595,822
51602,817
51610,817
51618,819
51625,822
51633,828
51641,833
51648,838
51656,844
51677,866
51685,871
51693,874
51700,872
51708,866
51715,856
51723,843
51731,830
51738,816
51746,800
51754,781
51761,763
51769,747
51777,736
51784,728
51792,724
51799,722
51807,721
51815,724
51822,727
51830,731
51838,732
51968,795
51975,802
51983,806
51991,809
51998,808
52006,805
52014,802
52021,797
52029,791
52037,790
52044,792
52052,794
52059,796
52067,797
52077,800
52085,793
52092,789
52100,792
52108,778
52115,843
52123,1014
52131,1173
52138,1131
52146,835
52153,692
52161,729
52182,778
52190,786
52197,797
52205,806
52213,815
52220,823
52228,831
52236,839
52243,847
52373,930
52381,918
52388,901
52396,882
52404,866
52411,852
52419,840
52427,831
52434,826
52442,824
52450,821
52457,820
52465,821
52472,822
52480,824
52488,824
52495,825
52503,825
52511,827
52518,827
52526,827
52534,824
52541,822
52549,820
52556,816
52566,810
52574,801
52582,796
52589,796
52597,802
52605,809
52612,816
52620,820
52764,1169
52771,1084
52779,754
52787,653
52794,717
52802,747
52810,767
52817,772
52825,773
52833,778
52840,781
52848,781
52856,781
52863,782
52871,784
52878,784
52886,785
52894,788
52901,793
52909,795
52917,797
52924,801
52932,809
52940,819
52947,829
52955,836
52962,843
52970,849
52978,847
52985,837
52993,831
53001,823
53008,813
53139,790
53146,792
53154,793
53161,794
53169,792
53177,790
53187,784
53194,771
53202,767
53210,770
53217,775
53225,783
53232,788
53240,794
53248,800
53269,799
53276,801
53284,801
53292,805
53299,809
53307,814
53315,820
53322,826
53330,832
53338,837
53345,841
53353,845
53360,853
53368,834
53376,888
53383,1053
53391,1182
53399,1165
53406,945
53414,704
53422,744
53551,901
53559,908
53566,914
53574,919
53582,923
53589,929
53597,931
53605,929
53612,922
53620,911
53627,901
53635,886
53643,870
53650,850
53658,834
53666,818
53676,800
53683,783
53691,770
53698,765
53706,763
53714,765
53721,767
53729,769
53737,774
53744,778
53752,781
53773,787
53781,786
53789,783
53796,780
53804,775
53811,772
53819,766
53827,756
53834,754
53965,778
53972,780
53980,783
53988,789
53995,766
54003,795
54010,931
54018,1094
54026,1128
54033,963
54041,672
54049,673
54056,699
54064,722
54071,739
54079,744
54087,753
54094,761
54102,766
54110,771
54117,776
54125,779
54133,782
54140,786
54148,789
54155,790
54165,797
54173,797
54181,799
54188,805
54196,817
54204,829
54347,799
54354,805
54362,810
54370,813
54377,818
54385,824
54393,831
54400,834
54408,836
54416,838
54423,840
54431,842
54439,846
54446,844
54454,843
54461,841
54469,835
54477,835
54484,836
54492,838
54500,842
54507,850
54515,855
54523,859
54530,862
54538,860
54545,856
54553,851
54561,846
54568,841
54576,840
54584,838
54591,838
54599,839
54729,819
54736,825
54744,826
54752,824
54759,825
54767,826
54775,827
54785,826
54792,817
54800,812
54807,811
54815,813
54823,818
54830,824
54851,847
54859,856
54867,862
54874,864
54882,861
54890,854
54898,845
54905,832
54913,817
54920,801
54928,782
54936,761
54943,745
54951,732
54959,726
54966,723
54974,721
54982,720
54989,721
54997,723
55004,724
55012,728
55142,787
55150,788
55158,787
55165,785
55173,782
55180,778
55188,778
55196,783
55203,793
55211,800
55219,800
55226,802
55234,803
55242,805
55249,806
55257,803
55264,797
55272,793
55282,793
55290,785
55297,781
55305,781
55313,781
55320,784
55328,788
55336,794
55356,849
55364,1014
55372,1198
55380,1144
55387,917
55395,767
55403,775
55410,797
55418,805
55548,912
55555,919
55563,927
55570,935
55578,941
55586,939
55593,935
55601,928
55609,917
55616,907
55624,889
55632,870
55639,850
55647,832
55654,818
55662,809
55670,803
55677,802
55685,802
55693,802
55700,804
55708,807
55716,810
55723,811
55731,810
55738,810
55746,809
55754,811
55761,811
55771,813
55779,805
55787,801
55794,801
55938,851
55946,848
55953,843
55961,837
55969,829
55976,818
55984,809
55992,799
55999,792
56007,788
56015,784
56022,782
56030,779
56038,774
56045,772
56053,770
56060,774
56068,761
56076,801
56083,936
56091,1117
56099,1082
56106,877
56114,690
56122,696
56129,722
56137,731
56144,732
56152,737
56160,742
56167,748
56175,751
56183,754
56313,880
56321,875
56328,866
56336,854
56343,841
56351,824
56359,806
56366,790
56374,778
56384,766
56392,753
56399,748
56407,746
56414,748
56422,754
56443,768
56451,775
56458,784
56466,794
56474,800
56481,808
56489,815
56497,822
56504,827
56512,832
56520,835
56527,836
56535,840
56542,841
56550,843
56558,844
56565,845
56573,845
56581,847
56588,848
56596,850
56604,851
56734,878
56741,871
56749,868
56757,864
56764,861
56772,858
56780,858
56787,855
56795,855
56803,856
56810,844
56818,896
56825,1036
56833,1180
56841,1122
56848,880
56856,743
56864,765
56874,796
56881,791
56889,786
56896,792
56904,794
56912,800
56919,805
56927,807
56948,815
56956,815
56963,815
56971,814
56979,815
56987,816
56994,818
57002,821
57009,828
57139,750
57147,751
57154,751
57162,752
57170,755
57177,756
57185,756
57193,755
57200,760
57208,762
57215,764
57223,763
57231,764
57238,766
57246,768
57254,770
57261,772
57269,773
57276,772
57284,772
57292,771
57299,771
57307,770
57315,772
57322,774
57330,772
57338,775
57345,775
57353,777
57360,776
57370,769
57378,764
57521,844
57529,832
57536,865
57544,983
57552,1149
57559,1175
57567,1005
57574,766
57582,775
57590,810
57598,834
57605,834
57613,837
57621,843
57628,848
57636,852
57643,855
57651,856
57659,857
57666,861
57674,863
57682,866
57689,868
57697,870
57704,873
57712,877
57720,883
57727,890
57735,896
57743,903
57750,912
57758,920
57766,922
57896,818
57904,821
57911,823
57919,824
57926,824
57934,823
57942,820
57949,818
57957,818
57965,819
57972,816
57982,813
57990,803
57997,796
58005,794
58026,789
58034,788
58041,783
58049,778
58057,771
58064,764
58072,757
58080,760
58087,765
58095,775
58103,776
58110,775
58118,775
58126,773
58133,769
58141,766
58149,763
58156,755
58164,750
58171,753
58179,755
58309,771
58317,780
58325,785
58332,789
58340,790
58348,792
58355,797
58363,800
58371,802
58378,803
58386,805
58394,810
58401,814
58409,821
58416,827
58424,834
58432,843
58439,851
58447,861
58455,870
58462,875
58470,874
58480,869
58487,851
58495,834
58503,821
58510,808
58531,778
58539,774
58547,775
58554,777
58562,782
58569,788
58577,795
58585,801
58593,808
58600,815
58730,868
58738,867
58746,862
58753,855
58761,851
58768,852
58776,859
58784,865
58791,866
58799,866
58807,862
58814,862
58822,858
58830,852
58837,849
58845,842
58853,838
58860,835
58868,833
58875,833
58883,832
58891,832
58898,832
58906,831
58914,834
58921,815
58929,865
58937,1016
58944,1173
58952,1152
58959,898
59105,864
59113,869
59121,870
59128,870
59136,874
59144,878
59151,880
59159,873
59166,865
59174,853
59182,841
59189,828
59197,814
59205,798
59212,781
59220,767
59228,754
59235,743
59243,737
59251,732
59258,727
59266,725
59273,726
59281,729
59289,734
59296,738
59304,742
59312,744
59319,747
59327,749
59335,750
59342,749
59350,749
59357,751
59488,801
59495,804
59503,804
59511,803
59518,804
59526,807
59533,809
59541,809
59549,813
59556,915
59564,1088
59572,1110
59582,909
59589,627
59610,739
59618,766
59625,781
59633,797
59641,812
59648,824
59656,832
59664,840
59671,850
59679,858
59687,865
59694,870
59702,875
59710,883
59717,889
59725,894
59732,903
59740,912
59748,920
59755,930
59763,939
59893,836
59900,838
59908,842
59916,842
59923,842
59931,843
59939,843
59946,843
59954,840
59962,838
59969,833
59977,825
59985,822
59992,822
60000,820
