Tempo(ms),Leitura(ECG)
7,741
15,713
23,717
30,722
38,730
46,728
53,732
61,743
69,755
76,762
84,773
91,782
99,785
107,790
119,807
126,797
134,764
141,727
149,697
157,669
164,646
172,626
180,598
201,549
208,542
216,538
224,542
231,537
239,537
247,553
254,591
262,605
270,690
277,887
285,1102
292,1119
300,904
308,675
315,731
323,788
453,1072
460,1082
468,1089
476,1098
483,1105
491,1102
499,1091
506,1080
514,1067
521,1053
529,1028
537,1008
544,990
552,969
560,949
567,929
575,918
582,912
590,907
598,902
605,897
613,891
621,885
628,889
636,888
644,889
651,889
659,884
666,884
676,882
684,866
705,853
713,841
721,833
728,834
736,827
743,825
751,828
759,830
766,830
774,832
782,822
789,807
797,808
805,802
812,783
820,777
828,773
835,777
843,778
850,781
858,780
866,774
873,771
881,773
889,751
896,786
904,917
912,1087
919,1099
927,914
934,616
942,632
950,671
957,704
965,733
973,737
980,745
988,754
995,755
1003,759
1133,879
1140,870
1148,861
1156,847
1163,827
1171,806
1179,781
1186,762
1207,740
1215,744
1222,745
1230,747
1238,753
1248,761
1255,761
1263,763
1271,770
1278,782
1286,789
1294,796
1301,799
1309,806
1317,806
1324,812
1332,809
1339,808
1347,804
1355,804
1362,804
1370,805
1378,814
1385,820
1393,827
1401,835
1408,829
1416,824
1423,824
1431,820
1439,819
1446,815
1454,805
1462,806
1469,808
1477,804
1484,800
1492,803
1500,804
1507,809
1515,801
1523,794
1653,827
1660,831
1668,833
1676,831
1683,834
1691,842
1712,856
1720,866
1727,873
1735,868
1743,874
1750,872
1758,865
1766,854
1776,836
1783,814
1791,790
1799,766
1806,745
1814,731
1821,718
1829,704
1837,705
1844,707
1852,710
1860,714
1867,719
1875,724
1883,728
1890,731
1898,727
1905,737
1913,737
1921,743
1928,746
1936,747
1944,750
1951,753
1959,758
1966,762
1974,762
1982,760
1989,758
1997,755
2005,760
2012,762
2020,769
2028,777
2035,791
2165,806
2173,857
2180,1003
2188,1178
2196,1170
2217,702
2224,739
2232,772
2240,790
2247,800
2255,816
2263,829
2270,838
2278,844
2285,846
2293,850
2303,855
2311,851
2318,853
2326,864
2334,866
2341,876
2349,889
2357,899
2364,905
2372,917
2379,928
2387,938
2395,944
2402,946
2410,942
2418,931
2425,920
2433,902
2441,886
2448,857
2456,844
2463,828
2471,815
2479,814
2486,813
2494,805
2502,803
2509,807
2517,806
2525,813
2532,817
2540,820
2547,825
2678,843
2685,846
2693,853
2700,851
2722,835
2729,831
2737,812
2745,800
2752,792
2760,788
2768,786
2775,783
2783,777
2790,771
2798,769
2806,773
2813,760
2821,756
2831,901
2839,1088
2846,1115
2854,934
2862,652
2869,641
2877,665
2884,698
2892,710
2900,718
2907,737
2915,746
2923,750
2930,756
2938,763
2946,767
2953,769
2961,775
2968,783
2976,791
2984,792
2991,801
2999,807
3007,820
3014,829
3022,840
3030,857
3037,869
3045,876
3052,879
3060,875
3190,808
3198,810
3205,804
3226,810
3234,813
3242,815
3249,816
3257,819
3265,827
3272,828
3280,829
3288,833
3295,834
3303,839
3310,840
3318,833
3326,830
3333,841
3341,847
3349,860
3359,859
3366,853
3374,848
3381,848
3389,845
3397,845
3404,843
3412,838
3420,836
3427,840
3435,838
3442,833
3450,837
3458,842
3465,841
3473,843
3481,845
3488,822
3496,875
3504,1027
3511,1208
3519,1180
3526,952
3534,721
3542,734
3549,763
3557,787
3565,788
3694,909
3702,917
3709,924
3731,907
3738,892
3746,875
3754,853
3761,830
3769,808
3776,788
3784,768
3792,752
3800,743
3807,734
3815,732
3822,728
3830,723
3838,721
3845,726
3853,729
3861,736
3868,735
3876,737
3886,743
3893,736
3901,734
3909,736
3916,729
3924,738
3932,743
3939,752
3947,753
3954,751
3962,755
3970,760
3977,764
3985,758
3993,763
4000,757
4008,760
4016,767
4023,780
4031,792
4038,800
4046,805
4054,805
4061,801
4069,791
4077,791
4084,787
4214,711
4235,779
4243,787
4250,802
4258,817
4266,820
4273,826
4281,835
4288,840
4296,847
4304,847
4311,848
4319,858
4327,869
4334,870
4342,880
4350,890
4357,899
4365,910
4373,923
4380,928
4388,940
4395,939
4403,936
4413,927
4421,908
4428,887
4436,868
4444,852
4451,841
4459,823
4466,811
4474,802
4482,795
4489,794
4497,798
4505,800
4512,803
4520,809
4528,816
4535,818
4543,820
4550,822
4558,819
4566,817
4573,818
4581,818
4589,822
4718,859
4739,832
4747,821
4755,815
4762,810
4770,799
4778,798
4785,789
4793,786
4801,786
4808,787
4816,757
4824,786
4831,919
4839,1120
4846,1145
4854,940
4862,649
4869,649
4877,683
4885,717
4892,723
4900,727
4908,738
4915,746
4923,750
4930,757
4940,766
4948,762
4956,755
4963,761
4971,771
4979,774
4986,783
4994,792
5001,801
5009,814
5017,832
5024,848
5032,857
5040,871
5047,880
5055,877
5063,869
5070,861
5078,851
5085,840
5215,817
5223,818
5244,821
5252,824
5259,826
5267,829
5275,834
5282,829
5290,827
5298,825
5305,829
5313,842
5320,854
5328,862
5336,862
5343,864
5351,862
5359,863
5366,855
5374,847
5382,843
5389,842
5397,845
5404,849
5412,849
5420,844
5427,847
5435,846
5443,845
5450,848
5458,827
5465,861
5475,1062
5483,1185
5491,1135
5498,850
5506,662
5514,707
5521,750
5529,788
5536,801
5544,807
5552,819
5559,829
5567,834
5575,836
5582,839
5590,844
5720,899
5727,881
5749,825
5756,807
5764,790
5772,771
5779,761
5787,756
5794,748
5802,745
5810,743
5818,742
5825,740
5833,740
5840,742
5848,745
5856,747
5863,744
5871,743
5879,749
5886,752
5894,752
5901,747
5909,744
5917,740
5924,735
5932,741
5940,741
5947,748
5955,758
5963,764
5970,770
5978,775
5985,772
5993,765
6003,759
6011,750
6018,745
6026,745
6034,750
6041,757
6049,760
6057,761
6064,758
6072,765
6079,773
6087,780
6095,763
6102,832
6233,833
6254,844
6261,850
6269,861
6277,871
6284,879
6292,897
6300,909
6307,924
6315,934
6322,940
6330,939
6338,927
6346,923
6353,912
6361,894
6368,875
6376,858
6384,844
6391,830
6399,818
6407,815
6414,812
6422,813
6430,815
6437,821
6445,812
6452,814
6460,813
6468,819
6475,825
6483,827
6491,830
6498,833
6506,835
6513,837
6521,838
6531,830
6539,822
6546,815
6554,812
6562,815
6569,818
6577,826
6584,834
6592,843
6600,845
6607,847
6737,996
6758,1082
6766,750
6774,703
6781,731
6789,757
6797,761
6804,758
6812,765
6819,769
6827,771
6835,771
6842,772
6850,772
6858,774
6865,778
6873,778
6881,780
6888,784
6896,788
6903,792
6911,802
6919,811
6926,823
6934,835
6942,846
6949,849
6957,849
6965,841
6972,831
6980,821
6987,808
6995,791
7003,775
7010,764
7018,751
7026,745
7033,738
7041,735
7048,736
7058,734
7066,729
7074,730
7081,737
7089,747
7097,751
7104,759
7112,763
7242,840
7262,837
7270,835
7278,833
7285,826
7293,829
7301,833
7309,837
7316,839
7324,843
7331,850
7339,851
7347,858
7354,849
7362,840
7370,927
7377,1112
7385,1247
7393,1162
7400,851
7408,744
7415,773
7423,804
7431,818
7438,818
7446,825
7454,834
7461,839
7469,839
7476,841
7484,844
7492,845
7499,850
7507,853
7515,854
7522,856
7530,861
7538,867
7545,872
7553,880
7560,892
7568,905
7576,915
7586,920
7593,913
7601,900
7609,890
7738,835
7746,839
7767,835
7775,830
7782,825
7790,814
7798,808
7805,800
7813,793
7821,788
7829,790
7836,791
7844,793
7851,793
7859,793
7867,786
7874,776
7882,773
7890,775
7897,764
7905,757
7913,759
7920,760
7928,760
7935,757
7943,761
7951,763
7958,766
7966,768
7974,768
7981,753
7989,833
7996,1004
8004,1112
8012,1071
8019,774
8027,630
8035,661
8042,697
8050,726
8058,731
8065,745
8073,755
8080,763
8088,765
8096,771
8103,772
8113,775
8243,870
8251,853
8272,811
8279,807
8287,806
8295,807
8302,808
8310,810
8317,812
8325,816
8333,822
8341,825
8348,832
8356,837
8363,841
8371,844
8379,845
8386,845
8394,848
8402,848
8409,846
8417,845
8424,844
8432,844
8440,841
8447,846
8455,849
8463,853
8470,853
8478,855
8486,852
8493,849
8501,844
8508,841
8516,834
8524,834
8531,833
8539,832
8547,832
8554,832
8562,831
8570,829
8577,831
8585,835
8592,814
8600,827
8608,959
8615,1151
8745,849
8753,849
8777,844
8784,845
8792,851
8800,858
8807,865
8815,870
8822,867
8830,857
8838,846
8845,833
8853,815
8861,804
8868,783
8876,768
8884,751
8891,741
8899,731
8906,724
8914,721
8922,718
8929,718
8937,719
8945,724
8952,726
8960,733
8968,735
8975,741
8983,747
8990,751
8998,754
9006,758
9013,761
9021,761
9029,760
9036,757
9044,759
9052,761
9059,765
9067,771
9075,781
9082,785
9090,789
9097,790
9105,786
9113,786
9120,782
9250,831
9258,712
9279,774
9287,783
9294,796
9304,810
9312,812
9320,812
9327,818
9335,823
9343,831
9350,841
9358,852
9365,858
9373,859
9381,869
9388,878
9396,891
9404,906
9411,920
9419,930
9427,937
9434,940
9442,940
9449,934
9457,924
9465,911
9472,898
9480,881
9488,863
9495,848
9503,828
9511,821
9518,816
9526,813
9533,808
9541,809
9549,810
9556,812
9564,817
9572,816
9579,819
9587,820
9595,825
9602,828
9610,831
9617,829
9625,829
9633,827
9762,831
9783,826
9791,817
9799,811
9806,807
9814,804
9822,771
9832,864
9839,1042
9847,1167
9855,1093
9862,771
9870,659
9877,678
9885,699
9893,711
9900,717
9908,727
9916,737
9923,744
9931,750
9939,751
9946,756
9954,759
9961,764
9969,765
9977,769
9984,775
9992,784
10000,795
10007,803
10015,814
10023,825
10030,838
10038,846
10045,853
10053,854
10061,850
10068,841
10076,832
10084,819
10091,804
10221,805
10228,808
10236,808
10244,807
10251,801
10259,795
10267,795
10288,805
10295,816
10303,824
10310,830
10318,830
10326,832
10336,829
10343,822
10351,815
10359,814
10366,813
10374,819
10382,828
10389,829
10397,834
10404,836
10412,842
10420,848
10427,829
10435,848
10443,971
10450,1175
10458,1262
10466,1127
10473,805
10481,754
10488,771
10496,797
10626,901
10634,911
10641,919
10649,926
10656,925
10664,919
10672,910
10679,901
10687,883
10695,866
10702,848
10710,829
10718,815
10725,801
10733,792
10740,786
10748,782
10756,783
10763,785
10771,786
10792,788
10800,787
10807,785
10815,782
10823,777
10833,771
10840,759
10848,754
10856,749
10863,747
10871,742
10879,742
10886,745
10894,750
10902,757
10909,763
10917,767
11047,805
11054,925
11062,1131
11070,1198
11077,1051
11085,745
11093,706
11100,733
11108,753
11115,752
11123,754
11131,764
11138,769
11146,775
11154,782
11161,786
11169,787
11177,792
11184,793
11192,796
11199,800
11207,804
11215,813
11222,821
11230,830
11238,839
11245,853
11253,865
11261,876
11268,879
11276,878
11419,819
11427,823
11435,830
11445,833
11453,827
11460,828
11468,829
11475,830
11483,834
11491,835
11498,834
11506,832
11514,836
11521,843
11529,856
11537,863
11544,867
11552,868
11559,868
11567,859
11575,857
11582,857
11590,852
11598,846
11605,846
11613,848
11621,846
11628,844
11636,842
11643,847
11651,851
11659,854
11666,848
11674,839
11804,847
11811,850
11819,847
11826,849
11834,847
11842,851
11849,854
11857,858
11865,866
11872,871
11880,880
11888,884
11895,886
11903,882
11924,855
11932,840
11942,813
11949,783
11957,759
11965,742
11972,729
11980,723
11988,719
11995,717
12003,717
12010,719
12018,722
12026,726
12033,729
12041,731
12049,734
12056,737
12064,739
12072,742
12079,744
12087,742
12094,741
12224,785
12232,788
12240,789
12248,791
12255,795
12263,789
12270,783
12278,873
12286,1064
12293,1186
12301,1077
12309,763
12316,686
12324,720
12332,750
12339,756
12347,760
12354,769
12362,776
12370,779
12377,784
12385,789
12393,793
12400,797
12408,802
12431,804
12439,811
12446,823
12454,838
12462,856
12469,874
12477,892
12485,906
12492,912
12500,913
12630,858
12638,860
12645,860
12653,857
12660,854
12668,851
12676,851
12683,848
12691,839
12699,839
12706,838
12714,840
12721,843
12729,845
12737,845
12744,845
12752,843
12760,839
12767,833
12775,829
12783,820
12790,811
12798,812
12805,811
12813,811
12821,810
12828,811
12836,811
12844,811
12851,815
12859,798
12867,810
13010,839
13018,837
13025,832
13033,832
13043,835
13051,829
13058,829
13066,838
13073,844
13081,850
13089,848
13096,840
13104,832
13112,821
13119,810
13127,798
13135,784
13142,769
13150,756
13157,745
13165,742
13173,734
13180,732
13188,734
13196,739
13203,743
13211,748
13218,751
13226,754
13234,759
13241,761
13249,764
13257,765
13264,764
13394,808
13402,807
13409,804
13417,803
13425,806
13432,806
13440,811
13448,797
13455,806
13463,910
13471,1095
13478,1156
13486,1006
13493,684
13514,750
13522,771
13530,779
13540,794
13547,797
13555,801
13563,811
13570,820
13578,830
13586,835
13593,845
13601,853
13608,860
13616,871
13624,877
13631,888
13639,898
13647,910
13654,918
13662,928
13670,934
13677,938
13808,841
13815,844
13823,843
13831,845
13838,842
13846,840
13854,834
13861,833
13869,831
13877,830
13884,832
13892,836
13899,839
13907,838
13915,842
13922,834
13930,825
13938,819
13945,813
13953,806
13961,801
13968,800
13976,799
13983,797
13991,799
13999,799
14020,805
14030,781
14038,852
14045,1019
14053,1098
14060,1015
14068,704
14076,631
14083,674
14214,842
14222,852
14229,860
14237,868
14245,872
14252,868
14260,863
14267,851
14275,839
14283,826
14290,815
14298,803
14306,794
14313,779
14321,758
14329,749
14336,744
14344,740
14351,742
14359,746
14367,744
14374,747
14382,756
14390,759
14397,766
14405,775
14412,774
14420,775
14428,772
14435,768
14443,775
14451,782
14594,827
14602,804
14609,836
14617,971
14624,1150
14632,1189
14642,895
14650,718
14657,742
14665,775
14673,794
14680,800
14688,810
14696,823
14703,830
14711,838
14718,845
14726,850
14734,855
14741,861
14749,862
14757,860
14764,864
14772,874
14780,882
14787,893
14795,902
14802,905
14810,912
14818,921
14825,922
14833,923
14841,915
14848,905
14978,834
14986,833
14993,832
15001,829
15009,821
15016,821
15024,816
15032,819
15039,824
15047,824
15055,826
15062,828
15070,823
15077,816
15099,801
15106,790
15114,782
15121,777
15129,772
15139,763
15147,751
15155,743
15162,744
15170,750
15177,718
15185,753
15193,897
15200,1089
15208,1124
15215,929
15223,667
15231,669
15239,693
15246,712
15254,715
15261,724
15392,867
15399,871
15407,869
15415,864
15422,853
15430,844
15438,830
15445,814
15453,800
15460,788
15468,778
15476,769
15483,761
15491,757
15499,755
15506,755
15514,760
15521,764
15529,768
15537,771
15544,776
15552,779
15560,783
15567,786
15575,784
15583,785
15603,787
15611,792
15619,803
15629,818
15637,820
15644,822
15652,828
15659,827
15667,830
15675,833
15804,860
15812,785
15819,811
15827,828
15835,828
15842,829
15850,837
15858,840
15865,843
15873,842
15881,847
15888,844
15896,842
15903,845
15911,845
15919,847
15926,851
15934,855
15942,862
15949,869
15957,876
15965,886
15972,895
15980,902
15987,897
15995,889
16003,879
16010,868
16018,857
16026,844
16033,829
16041,818
16184,806
16192,796
16200,794
16207,790
16215,788
16223,790
16230,792
16238,786
16248,783
16256,767
16263,755
16271,752
16278,746
16286,737
16294,735
16301,740
16309,739
16317,742
16324,746
16332,751
16340,751
16347,760
16355,741
16362,759
16370,872
16378,1073
16385,1149
16393,993
16401,692
16408,675
16416,710
16424,735
16431,737
16439,743
16569,889
16576,897
16584,898
16591,891
16599,882
16607,866
16614,856
16622,843
16630,829
16637,816
16645,801
16653,791
16660,784
16668,777
16689,776
16696,781
16704,790
16712,797
16719,807
16727,816
16737,820
16745,819
16752,819
16760,822
16768,826
16775,828
16783,834
16791,836
16798,836
16806,833
16813,837
16821,842
16829,856
16836,869
16844,870
16852,869
16982,1058
16990,1248
16997,1231
17005,959
17013,744
17020,765
17028,797
17036,809
17043,805
17051,811
17059,819
17066,824
17074,826
17081,827
17089,830
17097,831
17104,831
17112,834
17120,840
17127,842
17135,844
17143,852
17150,862
17158,865
17165,874
17173,886
17194,890
17202,878
17209,866
17217,852
17227,833
17235,810
17242,788
17250,774
17258,759
17387,791
17395,787
17403,782
17410,782
17418,781
17425,787
17433,796
17441,796
17448,797
17456,798
17464,800
17471,793
17479,788
17487,784
17494,778
17502,776
17509,775
17517,777
17525,775
17532,778
17540,779
17548,783
17555,782
17563,780
17571,766
17578,851
17586,1042
17593,1152
17601,1067
17609,733
17616,651
17624,704
17767,887
17775,898
17783,911
17790,918
17798,917
17805,908
17813,901
17821,892
17828,883
17836,871
17846,852
17854,835
17861,820
17869,812
17877,810
17884,809
17892,807
17900,808
17907,811
17915,815
17922,821
17930,825
17938,825
17945,831
17953,834
17961,838
17968,839
17976,836
17984,834
17991,829
17999,828
18006,826
18014,826
18022,831
18152,841
18159,808
18167,851
18174,1003
18182,1163
18190,1173
18197,938
18205,698
18213,720
18220,750
18228,772
18236,773
18243,778
18251,789
18272,795
18280,795
18287,791
18295,790
18302,787
18310,785
18318,786
18325,788
18335,794
18343,793
18351,797
18358,806
18366,815
18374,825
18381,830
18389,827
18397,822
18404,815
18412,806
18419,794
18427,781
18435,768
18565,795
18573,796
18580,797
18588,793
18596,790
18603,788
18611,786
18619,794
18626,801
18634,807
18642,806
18649,809
18657,808
18664,805
18672,800
18680,800
18687,793
18695,790
18703,789
18710,789
18718,792
18726,789
18733,793
18741,795
18748,804
18756,779
18777,1098
18785,1237
18792,1123
18800,796
18807,726
18815,756
18825,783
18833,780
18840,785
18970,946
18978,948
18986,944
18993,934
19001,926
19008,911
19016,896
19024,881
19031,866
19039,847
19047,834
19054,822
19062,812
19070,806
19077,806
19085,803
19092,802
19100,806
19108,807
19115,813
19123,812
19131,813
19138,813
19146,817
19154,818
19161,818
19169,821
19176,819
19184,817
19192,810
19199,807
19207,802
19351,823
19358,815
19366,777
19373,823
19381,991
19389,1185
19396,1163
19404,882
19412,669
19419,685
19427,710
19434,718
19444,716
19452,715
19460,715
19467,720
19475,721
19483,728
19490,732
19498,737
19506,742
19513,750
19521,756
19529,763
19536,769
19544,781
19551,791
19559,805
19567,817
19574,831
19582,842
19590,845
19597,844
19605,839
19735,800
19743,799
19750,802
19758,800
19765,798
19773,799
19781,803
19788,801
19796,798
19804,797
19811,792
19819,792
19826,792
19834,799
19855,820
19863,829
19870,831
19878,833
19886,834
19893,834
19901,831
19909,829
19916,834
19924,837
19934,839
19942,833
19949,834
19957,836
19964,843
19972,826
19980,845
19987,973
19995,1183
20003,1263
20010,1077
20140,895
20148,897
20155,899
20163,903
20171,910
20178,918
20186,924
20193,926
20201,924
20209,912
20216,903
20224,889
20232,879
20239,863
20247,849
20255,833
20262,818
20270,808
20277,803
20285,800
20293,796
20300,798
20308,801
20316,804
20323,806
20331,805
20339,808
20360,810
20367,807
20375,803
20383,798
20390,793
20398,793
20406,785
20413,777
20423,765
20554,802
20561,803
20569,798
20576,796
20584,776
20592,849
20599,1049
20607,1223
20614,1158
20622,814
20630,668
20638,713
20645,746
20653,758
20660,755
20668,765
20676,774
20683,778
20691,781
20699,789
20706,792
20714,796
20722,801
20729,802
20737,808
20744,812
20752,816
20760,824
20767,836
20775,844
20783,858
20790,866
20933,806
20941,810
20949,815
20957,821
20964,827
20972,835
20980,836
20987,839
20995,840
21002,836
21010,837
21018,841
21025,840
21033,847
21043,853
21051,849
21058,846
21066,851
21073,846
21081,842
21089,840
21096,839
21104,834
21112,835
21119,840
21127,841
21135,841
21142,839
21150,840
21157,840
21165,844
21173,815
21180,849
21188,1001
21318,853
21325,856
21333,858
21341,860
21348,864
21356,869
21364,876
21371,881
21379,886
21387,893
21394,898
21402,891
21409,883
21417,877
21438,832
21446,812
21454,794
21461,777
21469,761
21477,750
21484,743
21492,734
21499,730
21507,728
21515,728
21522,729
21532,730
21540,722
21548,724
21555,725
21563,729
21571,733
21578,734
21586,734
21593,732
21601,736
21731,790
21739,791
21747,797
21754,792
21762,773
21769,848
21777,1019
21785,1148
21792,1095
21800,793
21808,680
21815,711
21823,737
21831,750
21838,753
21846,764
21853,771
21861,776
21869,782
21876,783
21884,785
21892,788
21899,796
21907,799
21915,802
21922,805
21943,831
21951,847
21958,861
21966,876
21974,888
21981,896
21989,897
21997,893
22004,887
22134,857
22144,858
22152,850
22160,843
22167,841
22175,833
22183,831
22190,832
22198,834
22206,840
22213,844
22221,847
22228,847
22236,852
22244,848
22251,843
22259,835
22267,833
22274,829
22282,822
22290,818
22297,818
22305,819
22312,819
22320,819
22328,819
22335,825
22343,798
22351,822
22358,945
22366,1137
22374,1201
22517,847
22524,847
22532,846
22540,848
22547,852
22555,856
22563,855
22570,851
22578,841
22586,829
22593,813
22601,801
22608,784
22616,771
22624,755
22631,743
22641,726
22649,713
22657,705
22664,703
22672,704
22679,708
22687,715
22695,720
22702,725
22710,732
22718,739
22725,744
22733,751
22741,753
22748,752
22756,752
22763,750
22771,751
22901,813
22908,813
22916,814
22924,816
22931,783
22939,840
22947,1025
22954,1222
22962,1202
22970,934
22977,728
22985,736
22993,756
23000,762
23021,776
23029,786
23037,796
23044,803
23052,811
23059,819
23067,828
23075,836
23082,842
23090,846
23098,856
23105,864
23113,873
23120,885
23130,895
23138,900
23146,907
23153,907
23161,905
23169,901
23176,893
23184,886
23314,864
23322,864
23330,861
23337,859
23345,855
23353,847
23360,839
23368,839
23376,835
23383,839
23391,844
23398,849
23406,848
23414,844
23421,840
23429,834
23437,830
23444,824
23452,815
23460,806
23467,807
23475,807
23482,807
23490,804
23498,806
23505,807
23527,783
23534,883
23542,1087
23550,1216
23557,1098
23565,768
23573,689
23580,713
23588,731
23718,825
23725,832
23733,840
23743,844
23750,837
23758,827
23766,816
23773,806
23781,797
23789,785
23796,773
23804,759
23811,749
23819,744
23827,739
23834,739
23842,737
23850,737
23857,742
23865,749
23873,756
23880,761
23888,768
23895,774
23903,780
23911,780
23918,786
23926,789
23934,793
23941,791
23949,793
23957,789
24100,840
24107,846
24115,830
24122,839
24130,961
24138,1167
24146,1263
24153,1097
24161,777
24168,761
24176,798
24184,825
24191,826
24199,828
24207,836
24214,842
24222,851
24229,855
24239,859
24247,854
24255,855
24262,856
24270,860
24278,863
24285,870
24293,876
24300,887
24308,899
24316,908
24323,918
24331,926
24339,929
24346,926
24354,924
24484,837
24491,838
24499,840
24507,839
24514,839
24522,835
24530,829
24537,822
24545,820
24553,820
24560,820
24568,827
24575,832
24583,832
24604,824
24612,816
24619,809
24627,797
24635,786
24643,777
24650,773
24658,770
24666,769
24673,765
24681,765
24688,766
24696,769
24704,739
24711,777
24719,931
24729,1107
24737,1043
24744,730
24752,608
24759,659
24889,847
24897,859
24904,871
24912,878
24919,883
24927,884
24935,879
24943,869
24950,859
24958,843
24965,831
24973,819
24981,806
24988,793
24996,781
25004,770
25011,763
25019,762
25026,757
25034,756
25042,759
25049,762
25057,764
25065,767
25072,774
25080,779
25088,781
25108,788
25116,791
25124,793
25132,795
25139,803
25147,807
25155,817
25162,825
25170,834
25299,867
25307,985
25315,1173
25322,1238
25330,1076
25340,747
25348,757
25355,782
25363,795
25371,793
25378,801
25386,810
25394,815
25401,821
25409,822
25416,825
25424,829
25432,831
25439,831
25447,833
25455,840
25462,845
25470,851
25478,856
25485,864
25493,873
25500,878
25508,884
25516,889
25523,885
25531,877
25674,808
25682,805
25690,798
25697,796
25705,791
25713,782
25720,774
25728,765
25735,763
25743,761
25751,764
25759,768
25766,772
25774,766
25781,769
25789,769
25797,763
25804,761
25812,755
25820,750
25827,749
25837,748
25845,739
25852,735
25860,739
25868,744
25875,747
25883,754
25891,731
25898,789
25906,961
25913,1154
25921,1132
25929,862
26059,820
26066,827
26074,832
26082,839
26089,848
26097,856
26104,863
26112,865
26120,863
26127,856
26135,848
26143,836
26150,827
26158,814
26179,783
26186,780
26194,779
26202,783
26209,786
26217,790
26225,794
26232,803
26240,812
26248,818
26255,824
26263,829
26271,836
26278,837
26286,841
26294,843
26301,847
26309,845
26316,840
26326,838
26334,832
26342,833
26472,879
26480,852
26487,871
26495,1000
26503,1205
26510,1262
26518,1071
26525,771
26533,762
26541,790
26549,805
26556,799
26564,801
26571,808
26579,811
26587,817
26594,818
26602,819
26610,816
26617,818
26625,820
26633,824
26640,826
26648,830
26655,837
26663,843
26684,868
26692,874
26699,876
26707,871
26715,862
26722,848
26730,830
26738,816
26745,803
26875,780
26883,781
26891,784
26898,784
26906,783
26913,778
26921,769
26929,765
26939,775
26946,777
26954,779
26962,781
26969,783
26977,780
26984,780
26992,781
27000,780
27007,776
27015,776
27023,781
27030,785
27038,790
27046,791
27053,793
27061,795
27068,802
27076,772
27084,833
27091,1017
27099,1212
27107,1181
27250,862
27258,873
27265,888
27273,901
27281,910
27288,922
27296,929
27304,930
27311,922
27319,915
27326,905
27334,895
27342,885
27349,873
27357,859
27365,849
27372,840
27380,834
27388,827
27395,824
27403,824
27411,822
27418,827
27426,829
27436,833
27443,828
27451,825
27459,825
27466,827
27474,832
27482,831
27489,828
27497,827
27504,834
27634,852
27642,850
27650,852
27657,830
27665,838
27673,954
27680,1139
27688,1192
27696,1040
27703,716
27711,700
27718,741
27726,766
27734,776
27755,794
27763,793
27770,793
27778,790
27785,788
27793,787
27801,786
27808,785
27816,786
27824,786
27831,787
27839,796
27847,801
27854,811
27862,820
27870,831
27877,836
27885,834
27893,831
27900,825
27908,814
28037,778
28047,782
28055,775
28063,768
28070,766
28078,761
28086,763
28093,765
28101,769
28109,775
28116,779
28124,781
28132,785
28139,788
28147,786
28154,782
28162,780
28170,775
28177,770
28185,772
28193,771
28200,775
28208,775
28215,779
28223,785
28231,789
28238,774
28259,1025
28267,1162
28275,1113
28282,815
28290,702
28298,735
28305,770
28313,785
28443,921
28450,931
28458,935
28466,934
28473,928
28481,915
28488,903
28496,890
28504,880
28511,861
28519,844
28527,829
28537,815
28544,797
28552,789
28559,784
28567,781
28575,786
28582,792
28590,797
28598,804
28605,806
28613,808
28620,814
28628,813
28636,817
28643,816
28651,813
28659,808
28666,805
28674,808
28682,810
28689,816
28832,856
28840,1025
28848,1205
28855,1172
28863,899
28871,706
28878,712
28886,732
28894,734
28901,731
28909,737
28916,740
28924,742
28932,745
28939,751
28947,750
28955,754
28962,756
28970,761
28978,762
28985,768
28993,774
29000,779
29008,788
29016,799
29026,812
29033,817
29041,818
29049,821
29056,819
29064,814
29071,811
29079,802
29087,794
29217,812
29224,816
29232,817
29240,810
29247,805
29255,807
29262,805
29270,811
29278,817
29285,824
29293,825
29301,826
29308,819
29316,815
29337,805
29345,801
29352,806
29360,810
29367,814
29375,819
29383,824
29390,829
29398,838
29406,815
29413,839
29421,980
29429,1188
29436,1234
29444,1056
29451,777
29459,766
29467,794
29474,810
29482,810
29612,921
29620,929
29628,928
29635,923
29645,908
29653,889
29661,873
29668,860
29676,847
29683,834
29691,820
29699,806
29706,800
29714,795
29722,794
29729,789
29737,791
29745,796
29752,799
29760,800
29767,804
29775,806
29783,807
29790,811
29798,809
29806,810
29813,808
29821,807
29842,802
29850,799
29857,801
29865,804
29873,804
29880,801
29888,799
29896,791
29903,784
30033,783
30041,695
30049,727
30056,752
30064,753
30072,755
30079,759
30087,767
30094,767
30102,772
30110,772
30117,776
30125,783
30135,786
30143,781
30150,782
30158,789
30165,795
30173,804
30181,814
30188,831
30196,844
30204,856
30211,861
30219,864
30227,860
30234,857
30242,847
30249,836
30257,827
30265,813
30272,802
30415,826
30423,833
30430,838
30438,846
30446,854
30454,862
30461,866
30469,872
30476,871
30484,867
30492,863
30499,859
30507,854
30515,851
30522,853
30530,852
30537,851
30545,850
30553,854
30560,857
30568,849
30576,830
30583,915
30591,1107
30599,1217
30606,1142
30614,817
30624,742
30632,773
30639,795
30647,800
30654,804
30662,815
30670,825
30799,930
30807,923
30815,911
30822,897
30830,881
30838,865
30845,849
30853,834
30861,817
30868,807
30876,797
30883,788
30891,781
30899,777
30920,782
30927,781
30935,778
30943,775
30951,775
30958,771
30966,765
30973,763
30981,758
30989,752
30996,748
31004,749
31012,749
31019,753
31027,757
31035,761
31042,765
31050,763
31057,758
31065,754
31073,750
31203,683
31210,717
31218,742
31225,749
31233,753
31243,761
31251,760
31258,759
31266,764
31274,768
31281,770
31289,776
31297,780
31304,788
31312,794
31319,802
31327,811
31335,822
31342,832
31350,844
31358,854
31365,863
31373,867
31381,866
31388,861
31396,850
31403,842
31424,814
31432,804
31440,800
31447,795
31455,792
31463,793
31470,798
31478,798
31486,803
31616,878
31624,883
31631,883
31639,881
31647,876
31654,871
31662,865
31670,855
31677,847
31685,840
31693,838
31700,836
31708,832
31715,832
31723,835
31731,834
31741,819
31748,812
31756,920
31764,1132
31771,1246
31779,1105
31786,782
31794,730
31802,758
31809,776
31817,780
31825,781
31832,790
31840,798
31848,802
31855,805
31999,861
32007,841
32015,819
32022,800
32030,781
32038,765
32045,753
32053,746
32061,738
32068,734
32076,733
32084,734
32091,737
32099,741
32106,745
32114,744
32122,747
32129,749
32137,749
32145,750
32152,750
32160,751
32168,753
32175,754
32183,754
32190,751
32198,750
32206,748
32213,745
32221,752
32231,766
32239,768
32246,767
32254,770
32384,1207
32391,1218
32399,969
32406,717
32414,728
32422,761
32429,773
32437,766
32445,773
32452,783
32460,787
32468,789
32475,794
32483,797
32504,807
32512,812
32519,820
32527,831
32534,840
32542,854
32550,867
32557,877
32565,885
32573,898
32580,906
32588,909
32596,906
32603,898
32611,887
32619,880
32626,870
32634,856
32642,842
32649,832
32657,823
32787,856
32794,846
32802,840
32810,840
32817,839
32825,845
32833,849
32843,852
32850,842
32858,834
32865,828
32873,827
32881,824
32888,820
32896,816
32904,817
32911,815
32919,817
32926,819
32934,821
32942,820
32949,824
32957,816
32965,805
32972,902
32980,1103
32988,1240
33009,707
33016,738
33024,764
33032,771
33040,765
33047,765
33055,768
33062,771
33070,777
33200,866
33208,857
33216,842
33223,831
33231,819
33238,805
33246,787
33254,776
33261,763
33269,755
33277,751
33284,750
33292,747
33300,749
33307,756
33315,759
33322,764
33330,767
33340,769
33348,763
33355,761
33363,764
33371,767
33378,769
33386,767
33394,770
33401,772
33409,776
33416,783
33424,791
33432,799
33439,804
33447,806
33591,918
33598,679
33606,726
33614,769
33621,800
33629,813
33637,821
33644,830
33652,842
33660,847
33667,851
33675,855
33683,855
33690,857
33698,861
33705,868
33713,875
33721,883
33728,887
33736,893
33744,902
33751,912
33759,922
33767,931
33774,936
33782,933
33789,925
33797,912
33805,899
33812,887
33820,878
33830,856
33838,836
33845,819
33975,846
33983,841
33990,840
33998,836
34005,837
34013,840
34021,845
34028,842
34036,843
34044,840
34051,832
34059,824
34067,817
34074,810
34095,804
34103,797
34111,792
34118,787
34126,782
34134,782
34141,765
34149,771
34157,878
34164,1049
34172,1106
34180,971
34187,652
34195,632
34202,676
34210,705
34218,721
34225,724
34233,733
34241,743
34248,746
34378,869
34386,859
34393,847
34401,837
34409,826
34416,812
34424,796
34431,782
34441,766
34449,751
34457,743
34464,741
34472,739
34480,742
34487,750
34495,757
34503,764
34510,770
34518,777
34525,781
34533,785
34541,790
34548,790
34556,790
34564,789
34571,788
34579,790
34600,806
34608,815
34615,821
34623,832
34630,833
34638,830
34646,830
34653,832
34661,828
34669,830
34799,821
34807,830
34814,834
34822,843
34829,846
34837,848
34845,850
34852,853
34860,851
34868,851
34875,852
34883,852
34891,856
34898,858
34906,862
34913,866
34921,874
34929,881
34968,611
34975,544
34983,528
34990,540
34998,553
35006,572
35013,588
35021,607
35029,624
35036,645
35044,664
35051,687
35059,708
35067,728
35074,747
35082,767
35103,810
35111,822
35118,831
35126,837
35134,841
35141,844
35149,844
35157,844
35164,845
35295,868
35302,871
35310,870
35318,868
35325,846
35333,910
35340,1086
35348,1254
35356,1218
35363,939
35371,755
35379,772
35386,794
35394,802
35402,802
35409,810
35417,816
35424,820
35432,826
35440,828
35447,826
35457,829
35465,823
35473,823
35480,825
35488,832
35495,837
35503,846
35511,853
35518,863
35526,876
35534,887
35677,822
35685,827
35692,832
35700,836
35708,839
35715,839
35723,840
35730,844
35738,847
35746,846
35753,843
35761,837
35769,834
35776,837
35784,841
35792,845
35799,852
35807,858
35814,858
35822,856
35830,854
35837,850
35845,843
35853,841
35860,837
35868,833
35876,831
35883,831
35891,832
35898,827
35906,828
35914,831
35921,834
35929,802
36059,819
36067,819
36077,821
36084,815
36092,813
36100,815
36107,819
36115,827
36123,837
36130,846
36138,857
36145,864
36153,867
36161,866
36182,839
36190,826
36197,806
36205,787
36213,767
36220,750
36228,737
36235,729
36243,724
36251,720
36258,718
36266,717
36274,720
36281,725
36289,727
36297,728
36304,732
36312,733
36320,734
36327,735
36335,739
36342,740
36473,796
36480,792
36488,785
36496,781
36503,780
36511,781
36519,781
36526,782
36534,782
36541,790
36549,783
36557,770
36567,908
36574,1112
36582,1192
36590,1021
36597,710
36605,687
36612,720
36620,748
36628,749
36635,754
36643,766
36651,773
36658,779
36666,785
36687,802
36695,809
36702,817
36710,828
36717,837
36725,846
36733,859
36740,871
36748,885
36878,847
36886,849
36893,850
36901,851
36908,850
36916,849
36924,850
36931,850
36939,852
36947,849
36954,847
36962,847
36970,845
36977,841
36985,837
36992,833
37000,830
37008,829
37015,830
37023,837
37031,841
37038,845
37046,843
37053,841
37063,833
37071,821
37079,812
37086,803
37094,803
37102,805
37109,807
37117,808
37124,809
37267,828
37275,824
37283,818
37291,811
37298,807
37306,804
37314,803
37321,803
37329,806
37336,810
37344,816
37352,825
37359,833
37367,838
37375,843
37382,843
37390,837
37397,825
37405,812
37413,802
37420,792
37428,778
37436,764
37443,749
37451,738
37459,731
37466,725
37474,721
37482,720
37489,722
37497,725
37504,729
37512,734
37520,741
37650,805
37657,803
37665,799
37675,789
37682,781
37690,774
37698,769
37705,770
37713,777
37721,782
37728,784
37736,790
37743,763
37751,812
37772,1159
37780,1006
37787,709
37795,711
37803,749
37810,778
37818,793
37826,801
37833,815
37841,825
37849,832
37856,839
37864,842
37872,848
37879,850
37887,859
37894,863
37902,867
37910,873
37917,876
37925,885
38055,827
38062,824
38070,822
38078,820
38085,819
38093,820
38101,822
38108,820
38116,819
38124,823
38131,823
38139,825
38146,821
38154,821
38162,817
38172,815
38179,805
38187,803
38195,808
38202,814
38210,818
38217,821
38225,820
38233,815
38240,814
38248,812
38256,806
38277,802
38285,800
38292,795
38300,791
38307,790
38315,785
38323,787
38330,752
38338,799
38346,959
38476,794
38483,796
38491,801
38499,803
38506,810
38514,815
38522,825
38529,834
38537,844
38545,852
38552,858
38560,853
38567,847
38575,840
38583,828
38590,818
38598,804
38606,789
38613,777
38621,767
38629,757
38636,754
38644,752
38651,751
38661,753
38669,747
38677,745
38684,746
38692,753
38700,760
38707,767
38715,774
38858,833
38865,835
38873,841
38881,843
38888,846
38896,848
38904,851
38911,855
38919,849
38927,844
38934,930
38942,1125
38949,1274
38957,1199
38965,876
38972,768
38980,787
38988,810
38995,811
39003,814
39011,824
39018,825
39026,829
39033,832
39041,836
39049,837
39056,844
39064,845
39072,846
39079,850
39087,858
39095,864
39102,870
39232,807
39240,807
39248,803
39255,802
39263,800
39273,800
39281,791
39288,789
39296,789
39304,794
39311,795
39319,797
39326,798
39334,801
39342,802
39363,793
39370,794
39378,790
39386,793
39394,798
39401,795
39409,792
39416,789
39424,784
39432,775
39439,772
39447,768
39455,761
39462,757
39470,757
39478,757
39485,758
39493,755
39500,755
39508,758
39516,764
39646,782
39654,787
39661,789
39669,793
39677,794
39684,796
39692,801
39700,805
39707,814
39715,824
39722,834
39730,842
39738,852
39745,859
39753,860
39761,859
39771,844
39778,823
39786,807
39794,795
39801,783
39809,774
39816,766
39824,759
39832,755
39839,756
39847,756
39868,768
39876,780
39883,791
39891,798
39899,805
39906,816
39914,822
39922,828
39929,833
39937,836
40067,878
40074,867
40082,860
40090,861
40097,860
40105,859
40113,856
40120,854
40128,851
40136,853
40143,825
40151,859
40159,1003
40166,1208
40174,1226
40182,989
40189,731
40197,742
40204,776
40212,791
40220,789
40227,795
40235,803
40243,805
40250,808
40260,810
40268,801
40275,800
40283,806
40291,815
40298,818
40442,811
40450,799
40457,789
40465,778
40472,773
40480,769
40488,768
40496,768
40503,768
40511,767
40518,767
40526,767
40534,765
40541,761
40549,760
40557,762
40564,759
40572,755
40580,749
40587,749
40595,750
40602,753
40610,759
40618,767
40625,773
40633,775
40641,780
40648,778
40656,775
40663,771
40671,768
40679,762
40686,759
40694,759
40824,776
40832,778
40839,785
40847,790
40855,797
40862,801
40870,804
40880,803
40887,796
40895,793
40903,797
40910,802
40918,808
40926,820
40947,853
40954,870
40962,886
40969,900
40977,906
40985,904
40993,900
41000,893
41008,885
41015,875
41023,865
41031,852
41038,842
41046,831
41054,827
41061,821
41069,819
41077,813
41084,818
41092,821
41099,825
41107,831
41238,876
41245,871
41253,865
41260,859
41268,851
41276,843
41283,837
41291,835
41299,832
41306,830
41314,827
41322,827
41329,826
41337,830
41344,805
41352,837
41360,973
41370,1178
41377,1131
41385,832
41393,659
41400,700
41408,740
41415,763
41423,767
41431,774
41452,799
41459,799
41467,799
41475,801
41483,791
41490,792
41498,793
41505,794
41513,796
41521,803
41651,748
41659,745
41666,739
41674,737
41682,738
41689,739
41697,741
41705,744
41712,747
41720,751
41728,754
41735,759
41743,765
41750,766
41758,765
41766,766
41773,766
41781,761
41789,762
41796,759
41804,763
41812,773
41819,779
41827,785
41834,788
41842,790
41850,788
41857,783
41867,785
41875,775
41883,765
41890,766
42033,799
42041,811
42048,817
42056,825
42064,832
42071,841
42079,844
42087,850
42094,855
42102,862
42110,866
42117,873
42125,880
42133,886
42140,897
42148,906
42155,917
42163,923
42171,929
42178,924
42186,916
42194,903
42201,893
42209,880
42217,866
42224,852
42232,838
42239,827
42247,818
42255,812
42262,805
42270,802
42278,802
42285,805
42415,845
42423,852
42431,851
42438,851
42446,847
42453,839
42461,831
42469,825
42479,811
42486,799
42494,794
42502,794
42509,792
42517,793
42538,803
42546,795
42553,780
42561,864
42569,1058
42576,1206
42584,1087
42592,754
42599,671
42607,703
42615,725
42622,728
42630,727
42638,734
42645,737
42653,743
42660,746
42668,750
42676,753
42683,757
42691,762
42821,822
42829,809
42837,795
42844,784
42852,778
42860,769
42867,761
42875,760
42883,760
42890,763
42898,765
42905,769
42913,771
42921,776
42928,779
42936,783
42944,785
42951,784
42959,788
42969,788
42976,780
42984,775
42992,774
42999,773
43007,770
43015,768
43022,776
43043,805
43051,811
43058,817
43066,823
43074,831
43082,833
43089,838
43097,834
43104,832
43234,837
43242,839
43249,837
43257,844
43264,846
43272,852
43280,851
43287,850
43295,851
43303,855
43310,856
43318,856
43326,857
43333,857
43341,863
43349,870
43356,878
43364,885
43372,898
43379,906
43387,909
43394,905
43402,904
43410,897
43417,887
43425,874
43433,859
43440,848
43448,833
43455,825
43465,806
43473,791
43481,778
43625,844
43632,843
43640,839
43648,831
43655,824
43663,813
43670,804
43678,793
43686,784
43694,776
43701,772
43709,773
43716,770
43724,765
43732,762
43739,763
43747,763
43755,754
43762,744
43770,839
43778,1036
43785,1134
43793,1017
43800,677
43808,624
43816,678
43823,710
43831,724
43839,731
43846,738
43854,747
43861,752
43869,758
43999,872
44007,861
44015,850
44022,837
44030,823
44038,812
44045,799
44053,790
44061,779
44068,773
44078,764
44086,754
44093,752
44101,755
44109,760
44130,777
44137,788
44145,797
44153,804
44160,810
44168,816
44175,817
44183,824
44191,831
44199,836
44206,844
44214,848
44221,856
44229,860
44237,863
44244,859
44252,857
44260,853
44267,847
44275,845
44283,847
44413,827
44421,831
44428,834
44436,839
44444,841
44451,843
44459,843
44466,843
44474,844
44482,844
44489,846
44497,847
44505,849
44512,852
44520,858
44528,863
44535,871
44543,879
44550,888
44558,893
44566,890
44576,878
44583,859
44591,843
44599,830
44606,820
44614,809
44635,779
44643,770
44650,760
44658,754
44666,747
44674,747
44681,748
44689,752
44696,752
44704,756
44834,795
44842,792
44849,787
44857,778
44864,770
44872,771
44880,771
44887,771
44895,769
44903,771
44910,773
44918,778
44926,772
44933,763
44941,850
44948,1050
44956,1195
44964,1094
44971,772
44979,686
44987,713
44994,735
45002,736
45010,741
45017,753
45025,758
45032,764
45040,770
45048,771
45055,778
45065,785
45209,832
45216,821
45224,816
45232,812
45239,814
45247,813
45254,816
45262,820
45270,827
45277,832
45285,838
45293,839
45300,844
45308,848
45316,850
45323,852
45331,852
45339,852
45346,851
45354,851
45361,849
45369,846
45377,839
45384,840
45392,844
45400,852
45407,864
45415,863
45423,863
45430,859
45438,856
45445,851
45453,850
45461,845
45591,768
45598,794
45606,805
45614,801
45621,808
45629,813
45637,817
45644,818
45652,819
45659,820
45667,820
45675,820
45685,819
45692,811
45714,819
45721,827
45729,833
45736,840
45744,848
45752,856
45759,856
45767,850
45775,838
45782,822
45790,811
45798,798
45805,784
45813,768
45821,754
45828,746
45836,736
45843,730
45851,725
45859,723
45866,723
45874,725
46004,807
46012,809
46020,809
46027,806
46035,801
46042,797
46050,794
46058,786
46065,782
46073,784
46081,784
46088,784
46096,781
46104,786
46111,785
46119,789
46126,780
46134,776
46142,873
46149,1075
46157,1204
46165,1080
46175,701
46182,690
46190,716
46198,741
46218,764
46226,779
46234,793
46241,809
46249,816
46257,829
46264,837
46272,845
46280,853
46410,893
46417,880
46425,868
46432,852
46440,843
46448,836
46455,832
46463,831
46471,831
46478,833
46486,834
46494,836
46501,839
46509,838
46516,838
46524,838
46532,838
46539,833
46547,828
46555,827
46562,824
46570,823
46577,827
46585,833
46593,838
46600,841
46608,841
46616,834
46623,830
46631,824
46639,815
46646,811
46790,799
46800,794
46808,784
46815,777
46823,780
46830,777
46838,776
46846,775
46853,777
46861,779
46869,782
46876,786
46884,790
46892,798
46899,801
46907,809
46914,817
46922,827
46930,833
46937,837
46945,832
46953,827
46960,816
46968,804
46975,794
46983,784
46991,772
46998,758
47006,750
47014,741
47021,737
47029,733
47036,729
47044,730
47174,808
47182,813
47190,815
47197,815
47205,814
47213,809
47220,803
47228,797
47235,791
47243,791
47251,791
47258,792
47266,789
47274,791
47297,785
47304,764
47312,806
47320,957
47327,1135
47335,1159
47343,948
47350,696
47358,727
47366,768
47373,799
47381,806
47389,816
47396,825
47404,834
47412,840
47419,848
47427,852
47434,855
47442,862
47450,863
47579,866
47587,852
47595,836
47602,827
47610,818
47618,812
47625,807
47633,804
47641,803
47648,804
47656,805
47663,806
47671,810
47679,811
47686,812
47694,814
47702,812
47709,813
47717,813
47725,814
47732,810
47740,810
47747,806
47755,804
47763,798
47773,798
47780,790
47802,805
47809,803
47817,796
47824,792
47832,786
47840,783
47847,775
47855,766
47863,761
47870,762
48000,747
48008,757
48016,761
48023,767
48031,769
48039,775
48046,776
48054,777
48061,778
48069,782
48077,785
48084,791
48092,799
48100,807
48107,817
48115,827
48123,837
48130,845
48138,853
48145,857
48153,852
48161,845
48168,835
48176,825
48184,811
48191,801
48199,784
48206,775
48214,767
48222,762
48229,759
48237,759
48380,840
48388,846
48396,845
48406,854
48413,843
48421,837
48429,835
48436,831
48444,829
48451,833
48459,838
48467,840
48474,843
48482,849
48490,853
48497,854
48505,862
48513,830
48520,878
48528,1047
48535,1251
48543,1251
48551,1007
48558,757
48566,767
48574,798
48581,810
48589,811
48597,818
48604,827
48612,832
48619,832
48627,836
48757,910
48765,893
48772,882
48780,868
48788,850
48795,832
48803,816
48811,807
48818,800
48826,793
48834,788
48841,788
48849,785
48856,789
48864,792
48885,795
48895,793
48903,779
48911,772
48918,769
48926,768
48934,763
48941,759
48949,751
48956,752
48964,750
48972,755
48979,764
48987,771
48995,770
49002,772
49010,768
49018,761
49025,762
49033,761
49040,755
49048,751
49178,768
49186,767
49193,775
49201,780
49209,785
49216,789
49224,791
49232,792
49239,797
49247,798
49255,802
49262,805
49270,810
49277,816
49285,825
49293,834
49300,840
49308,851
49316,863
49323,874
49331,876
49339,875
49346,870
49354,862
49361,850
49369,841
49392,792
49400,782
49408,780
49415,780
49423,784
49431,784
49438,790
49446,796
49453,805
49461,814
49591,894
49598,891
49606,883
49614,875
49621,867
49629,856
49637,851
49644,848
49652,849
49660,844
49667,842
49675,842
49682,841
49690,842
49698,836
49705,813
49713,893
49721,1084
49728,1200
49736,1134
49744,806
49751,680
49759,727
49766,758
49774,780
49782,783
49789,793
49797,801
49805,809
49812,811
49820,816
49963,856
49971,836
49979,816
49986,795
49994,778
50004,757
50012,735
50019,723
50027,718
50035,714
50042,715
50050,719
50058,722
50065,726
50073,733
50080,737
50088,744
50096,745
50103,749
50111,747
50119,748
50126,745
50134,748
50142,749
50149,751
50157,757
50164,762
50172,767
50180,768
50187,773
50195,767
50203,764
50210,761
50218,757
50348,709
50355,742
50363,761
50371,769
50378,777
50386,788
50394,791
50401,791
50409,799
50416,799
50424,801
50432,804
50439,810
50447,814
50468,834
50475,847
50483,862
50493,880
50501,885
50508,893
50516,899
50524,900
50531,893
50539,888
50547,876
50554,870
50562,857
50570,847
50577,838
50585,828
50593,823
50600,819
50608,820
50615,816
50623,818
50631,818
50760,876
50768,876
50775,874
50783,865
50791,860
50798,852
50806,846
50814,836
50821,834
50829,830
50837,829
50844,827
50852,827
50859,827
50867,828
50875,829
50882,797
50890,858
50898,1027
50905,1185
50913,1173
50921,903
50928,696
50936,722
50943,750
50951,770
50972,789
50980,790
50990,787
50998,776
51005,772
51013,771
51020,771
51028,772
51036,775
51043,779
51174,780
51181,771
51189,767
51197,761
51204,759
51212,755
51220,755
51227,755
51235,757
51243,760
51250,764
51258,766
51265,766
51273,769
51281,772
51288,771
51296,773
51304,773
51311,767
51319,767
51327,769
51334,770
51342,779
51349,784
51357,790
51365,793
51372,796
51380,793
51388,790
51395,788
51403,786
51411,781
51554,788
51561,794
51569,807
51577,816
51584,822
51592,830
51602,837
51610,833
51617,833
51625,839
51632,844
51640,852
51648,860
51655,870
51663,879
51671,890
51678,902
51686,914
51694,926
51701,930
51709,928
51716,919
51724,912
51732,899
51739,885
51747,867
51755,853
51762,839
51770,824
51777,812
51785,804
51793,802
51800,799
51808,799
51938,835
51946,836
51953,842
51961,845
51968,848
51976,849
51984,846
51991,840
51999,833
52007,827
52014,819
52022,813
52030,809
52037,807
52058,803
52066,800
52074,799
52081,795
52089,760
52099,844
52107,1045
52114,1208
52122,1111
52130,781
52137,657
52145,679
52152,705
52160,706
52168,706
52175,718
52183,725
52191,730
52198,736
52206,743
52214,747
52221,750
52352,831
52359,816
52367,802
52374,788
52382,775
52390,766
52397,760
52405,760
52413,759
52420,760
52428,763
52436,766
52443,770
52451,771
52458,773
52466,776
52474,779
52481,781
52489,782
52497,785
52504,787
52512,787
52520,789
52527,791
52535,791
52542,790
52563,790
52571,799
52579,808
52589,831
52596,833
52604,834
52612,834
52619,839
52627,840
52635,845
52765,798
52773,790
52780,817
52788,835
52796,833
52803,836
52811,842
52819,844
52826,846
52834,847
52841,850
52849,850
52857,850
52864,851
52872,852
52880,852
52887,857
52895,859
52903,866
52910,871
52918,881
52925,890
52933,899
52941,907
52948,908
52956,906
52964,896
52971,885
52979,872
52987,858
52994,843
53002,826
53145,820
53153,814
53161,805
53168,787
53176,779
53183,778
53191,778
53199,782
53209,783
53216,774
53224,769
53232,764
53239,758
53247,754
53255,753
53262,745
53270,745
53277,747
53285,747
53293,749
53300,751
53308,750
53316,751
53323,758
53331,747
53339,748
53346,855
53354,1059
53361,1148
53369,1028
53377,686
53384,635
53392,685
53400,714
53529,866
53537,879
53545,891
53552,897
53560,901
53568,892
53575,885
53583,870
53591,858
53598,843
53606,832
53613,812
53621,794
53629,782
53650,763
53657,765
53665,769
53673,776
53680,785
53688,794
53698,800
53706,798
53713,801
53721,810
53728,816
53736,824
53744,829
53751,835
53759,838
53767,838
53774,837
53782,837
53790,840
53797,846
53805,853
53812,858
53942,838
53950,917
53957,1101
53965,1240
53972,1177
53980,857
53988,716
53995,752
54003,781
54011,798
54018,794
54026,799
54034,807
54041,813
54049,818
54057,819
54064,820
54072,822
54079,822
54087,825
54095,828
54102,831
54110,836
54118,843
54125,854
54133,861
54154,889
54162,889
54169,884
54177,868
54187,844
54195,820
54202,798
54210,782
54218,767
54348,781
54356,787
54363,788
54371,782
54379,771
54386,772
54394,774
54402,776
54409,782
54417,786
54425,787
54432,788
54440,787
54448,782
54455,779
54463,776
54470,771
54478,765
54486,766
54493,767
54501,768
54509,769
54516,771
54524,773
54532,776
54539,771
54547,756
54554,842
54562,1045
54570,1224
54577,1140
54721,846
54729,856
54736,872
54744,888
54751,903
54759,914
54767,917
54774,920
54782,917
54790,909
54800,896
54807,877
54815,858
54823,845
54830,832
54838,824
54845,820
54853,819
54861,819
54868,818
54876,821
54884,825
54891,827
54899,830
54907,834
54914,833
54922,839
54929,840
54937,842
54945,843
54952,843
54960,841
54968,841
54975,839
55105,845
55113,843
55120,840
55128,839
55136,839
55143,835
55151,810
55159,876
55166,1054
55174,1237
55181,1171
55189,866
55197,721
55204,749
55226,773
55233,775
55241,777
55248,777
55256,778
55264,776
55271,775
55279,772
55287,771
55297,770
55304,763
55312,760
55320,767
55327,775
55335,784
55342,795
55350,811
55358,824
55365,831
55373,835
55381,835
55388,834
55519,779
55526,785
55534,788
55542,789
55549,791
55557,790
55564,787
55572,787
55580,785
55587,780
55595,776
55603,777
55610,779
55618,787
55626,795
55633,799
55641,802
55648,804
55656,806
55664,800
55671,800
55679,797
55687,793
55694,791
55702,795
55710,798
55731,804
55738,813
55746,822
55753,802
55761,831
55769,971
55776,1183
55786,1225
55794,933
55924,907
55931,915
55939,921
55947,927
55954,936
55962,943
55970,949
55977,950
55985,945
55992,938
56000,924
56008,909
56015,894
56023,879
56031,859
56038,842
56046,826
56054,815
56061,806
56069,801
56076,798
56084,798
56092,797
56099,800
56107,801
56115,802
56122,805
56130,806
56137,811
56145,814
56153,814
56160,813
56304,820
56312,813
56320,808
56327,801
56335,796
56343,788
56350,761
56358,837
56365,1020
56373,1151
56381,1083
56388,759
56398,638
56406,671
56414,695
56421,709
56429,707
56436,717
56444,727
56452,733
56459,740
56467,745
56475,751
56482,754
56490,761
56498,765
56505,772
56513,778
56520,787
56528,795
56536,805
56543,817
56551,829
56559,840
56689,775
56696,781
56704,786
56712,788
56719,792
56727,796
56734,797
56742,801
56750,800
56757,798
56765,791
56773,790
56780,790
56788,793
56809,811
56816,817
56824,826
56832,828
56839,830
56847,829
56855,830
56862,826
56870,826
56878,826
56885,830
56895,832
56903,827
56911,825
56918,827
56926,834
56933,816
56941,835
56949,955
56956,1150
56964,1230
57094,881
57101,884
57109,889
57117,894
57124,898
57132,903
57140,910
57147,914
57155,919
57162,912
57170,908
57178,892
57185,876
57193,861
57201,849
57208,835
57216,817
57224,807
57231,794
57239,788
57246,782
57254,779
57262,778
57269,779
57277,783
57285,786
57292,790
57314,791
57321,792
57329,789
57336,785
57344,779
57352,770
57359,765
57367,762
57375,760
57507,786
57515,786
57523,766
57530,830
57538,1010
57545,1190
57553,1146
57561,864
57568,693
57576,712
57584,736
57591,743
57599,741
57607,749
57614,756
57622,761
57629,765
57637,772
57645,773
57652,774
57660,777
57668,780
57675,784
57683,791
57691,798
57698,806
57706,821
57713,834
57721,839
57729,844
57736,854
57744,859
57887,809
57895,812
57902,821
57910,824
57918,827
57926,831
57933,831
57941,828
57948,826
57956,831
57964,833
57971,843
57979,852
57987,859
57994,862
58004,863
58012,853
58019,843
58027,837
58035,834
58042,832
58050,830
58058,835
58065,835
58073,836
58080,838
58088,839
58096,837
58103,844
58111,814
58119,867
58126,1043
58134,1243
58142,1226
58271,854
58279,857
58287,861
58294,865
58302,872
58310,880
58317,887
58325,894
58333,893
58340,888
58348,877
58356,866
58363,852
58371,840
58392,796
58400,779
58407,768
58415,757
58423,752
58430,743
58438,742
58446,741
58453,743
58461,744
58469,746
58476,748
58484,746
58494,747
58501,742
58509,739
58517,739
58524,743
58532,743
58540,741
58547,743
58555,748
58685,811
58693,819
58700,791
58708,817
58716,957
58723,1166
58731,1216
58739,1011
58746,716
58754,718
58761,749
58769,761
58777,757
58784,763
58792,774
58800,779
58807,787
58815,790
58823,796
58830,796
58838,800
58845,804
58853,810
58861,813
58868,818
58876,830
58897,858
58905,874
58912,888
58920,898
58927,903
58935,899
58943,896
58950,888
58958,882
59088,871
59096,870
59106,863
59114,844
59121,836
59129,837
59136,835
59144,840
59152,844
59159,851
59167,851
59175,854
59182,852
59190,850
59198,846
59205,843
59213,836
59220,832
59228,827
59236,826
59243,825
59251,824
59259,824
59266,824
59274,831
59281,808
59289,821
59297,936
59304,1120
59312,1184
59320,1030
59463,862
59471,866
59478,863
59486,866
59494,871
59501,870
59509,863
59517,849
59524,833
59532,816
59540,802
59547,789
59555,776
59563,761
59570,747
59578,734
59585,723
59595,714
59603,704
59611,698
59618,702
59626,708
59634,710
59641,717
59649,722
59656,728
59664,733
59672,742
59679,742
59687,745
59695,744
59702,749
59710,752
59718,756
59847,807
59855,798
59863,789
59870,879
59878,1063
59885,1171
59893,1081
59901,770
59908,707
59916,734
59924,758
59931,758
59939,761
59947,771
59967,782
59975,797
59983,807
59990,815
59998,821
60006,828
