Tempo(ms),Leitura(ECG)
8,799
29,815
37,815
45,813
52,813
60,810
68,807
75,804
83,800
90,794
98,787
106,786
113,787
125,792
133,772
141,741
148,708
156,672
163,639
171,606
179,576
186,553
194,527
202,511
209,500
217,490
225,481
232,477
240,474
248,487
255,502
263,539
270,685
278,928
286,1070
293,991
301,705
309,656
316,701
324,741
331,764
339,787
347,812
354,835
362,855
370,869
377,880
385,895
393,904
400,915
408,924
415,935
423,944
431,955
438,965
446,977
454,986
461,996
469,1007
477,1015
484,1018
492,1015
499,1011
507,1002
515,990
536,955
543,945
551,938
559,928
569,923
576,913
584,912
592,912
599,918
607,923
615,927
622,933
630,939
637,940
645,939
653,939
660,940
668,941
676,940
683,939
691,934
699,934
828,893
836,893
844,889
851,883
859,878
866,870
874,855
882,939
889,1119
897,1231
905,1150
912,811
920,709
928,753
935,779
943,796
950,800
958,805
966,813
973,816
981,818
989,820
996,817
1004,819
1011,816
1019,820
1040,826
1048,824
1056,828
1063,832
1071,836
1079,840
1086,843
1094,843
1101,839
1109,827
1117,818
1127,797
1134,775
1142,758
1150,743
1157,729
1165,719
1173,712
1180,707
1188,703
1196,701
1203,703
1211,708
1218,713
1226,716
1234,722
1241,726
1249,731
1257,735
1264,738
1272,740
1402,775
1410,776
1418,776
1425,772
1433,774
1440,775
1448,780
1456,760
1463,783
1471,906
1479,1080
1486,1121
1494,967
1502,673
1509,667
1517,704
1524,729
1545,755
1553,770
1561,782
1568,791
1576,798
1584,808
1591,815
1599,823
1607,828
1614,836
1622,846
1630,850
1637,858
1645,867
1655,881
1662,884
1670,886
1678,891
1685,896
1693,890
1701,884
1708,874
1716,866
1724,858
1731,846
1739,833
1746,822
1754,812
1762,805
1769,800
1777,796
1785,796
1915,829
1922,833
1930,836
1938,840
1945,839
1953,838
1961,833
1968,827
1976,819
1984,814
1991,805
1999,801
2006,800
2014,801
2022,800
2029,798
2050,801
2058,775
2066,838
2073,1008
2081,1165
2089,1118
2096,815
2104,669
2112,687
2119,710
2127,718
2135,721
2142,728
2150,736
2157,737
2165,741
2173,742
2183,745
2190,737
2198,736
2206,740
2213,747
2221,757
2228,762
2236,771
2244,782
2251,796
2259,808
2267,822
2274,831
2282,838
2290,836
2297,831
2427,802
2435,808
2443,808
2450,809
2458,806
2465,809
2473,808
2481,809
2488,807
2496,804
2504,802
2511,800
2519,796
2527,789
2534,791
2555,815
2563,823
2570,830
2578,834
2586,840
2593,840
2601,841
2609,841
2616,839
2624,836
2632,839
2639,844
2647,847
2655,849
2662,852
2670,859
2677,846
2685,849
2693,955
2700,1165
2710,1274
2718,1069
2726,770
2733,751
2741,775
2748,793
2756,797
2764,808
2771,817
2779,823
2787,829
2794,832
2802,833
2931,905
2939,893
2947,877
2954,862
2962,846
2970,831
2977,816
2985,808
2993,800
3000,797
3008,792
3015,794
3023,794
3031,797
3038,797
3060,798
3067,797
3075,791
3083,788
3090,786
3098,783
3105,779
3113,773
3121,767
3128,759
3136,758
3144,755
3151,758
3159,766
3167,772
3174,773
3182,777
3190,778
3197,775
3205,771
3212,768
3220,765
3228,760
3238,761
3245,753
3253,749
3261,749
3268,753
3276,758
3283,771
3291,754
3299,782
3306,922
3314,1132
3322,1176
3451,832
3459,837
3467,841
3474,846
3482,852
3490,864
3497,872
3505,880
3513,880
3520,880
3528,873
3535,866
3543,855
3564,828
3572,818
3579,808
3587,805
3595,801
3602,802
3610,802
3618,804
3625,809
3633,813
3641,817
3648,821
3656,829
3663,835
3671,841
3679,846
3686,849
3694,850
3702,850
3709,852
3717,854
3725,852
3732,850
3740,848
3747,842
3755,838
3765,841
3773,832
3780,833
3788,840
3796,849
3803,854
3811,856
3818,855
3826,853
3834,850
3964,744
3971,785
3979,807
3987,816
3994,820
4002,826
4010,827
4017,830
4025,828
4033,829
4040,831
4048,829
4069,834
4077,833
4084,834
4092,832
4100,837
4107,840
4115,846
4123,848
4130,850
4138,853
4146,847
4153,837
4161,819
4168,808
4176,798
4184,790
4191,774
4199,760
4207,749
4214,740
4222,734
4230,728
4237,725
4245,726
4252,729
4260,730
4268,736
4275,741
4283,747
4291,753
4301,757
4308,751
4316,749
4323,749
4331,751
4339,752
4346,753
4354,754
4484,814
4491,815
4499,815
4506,814
4514,816
4522,791
4529,835
4537,980
4545,1141
4552,1153
4573,694
4581,733
4589,764
4596,780
4604,791
4611,802
4619,813
4627,818
4635,826
4642,832
4650,837
4657,840
4665,844
4673,850
4680,856
4688,863
4696,867
4703,876
4711,883
4718,893
4726,902
4734,913
4741,919
4749,920
4757,915
4764,906
4772,895
4780,883
4787,872
4795,858
4802,846
4810,832
4818,821
4828,808
4835,793
4843,782
4851,780
4858,785
4988,834
4995,838
5003,842
5011,844
5018,847
5026,845
5033,846
5041,843
5049,837
5056,833
5078,810
5085,802
5093,797
5101,794
5108,791
5116,787
5123,782
5131,784
5139,761
5146,825
5154,1003
5162,1169
5169,1117
5177,819
5185,658
5192,679
5200,707
5208,715
5215,716
5223,725
5230,731
5238,738
5246,742
5253,747
5261,747
5269,751
5276,754
5284,758
5292,762
5299,769
5307,777
5314,785
5322,790
5330,800
5337,816
5345,829
5355,838
5363,832
5370,828
5500,804
5508,807
5515,810
5523,812
5531,815
5538,814
5546,815
5554,813
5561,811
5582,809
5590,812
5598,807
5605,810
5613,815
5620,823
5628,832
5636,843
5643,848
5651,854
5659,857
5666,853
5674,853
5682,851
5689,844
5697,840
5704,843
5712,842
5720,844
5727,846
5735,847
5743,849
5750,855
5758,838
5766,855
5773,986
5781,1203
5789,1278
5796,1108
5804,787
5811,746
5819,776
5827,797
5834,800
5842,805
5850,815
5857,820
5865,824
5875,829
6004,904
6012,889
6020,876
6027,861
6035,849
6043,835
6050,819
6058,808
6065,801
6087,788
6094,786
6102,785
6110,781
6117,778
6125,776
6133,774
6140,772
6148,768
6156,766
6163,764
6171,764
6178,762
6186,762
6194,760
6201,758
6209,755
6217,754
6224,748
6232,745
6240,747
6247,748
6255,755
6262,762
6270,770
6278,775
6285,781
6293,777
6301,775
6308,774
6316,769
6324,764
6331,765
6339,766
6346,766
6354,767
6362,769
6369,776
6377,783
6385,776
6515,813
6522,817
6532,819
6540,813
6548,811
6555,817
6563,826
6571,833
6592,862
6599,877
6607,887
6614,894
6622,896
6630,893
6638,888
6645,881
6653,877
6660,867
6668,860
6676,850
6683,840
6691,832
6699,826
6706,824
6714,825
6721,826
6729,827
6737,830
6744,833
6752,836
6760,840
6767,842
6775,844
6783,844
6790,846
6798,845
6805,845
6813,844
6821,844
6828,842
6836,836
6844,832
6851,833
6859,835
6867,842
6874,847
6882,851
6889,853
6897,851
6905,847
7035,1055
7042,721
7050,699
7060,753
7068,774
7075,786
7096,802
7104,804
7112,801
7119,798
7127,799
7135,799
7142,798
7150,799
7157,801
7165,804
7173,807
7181,813
7188,820
7196,828
7203,837
7211,842
7219,846
7226,848
7234,845
7242,836
7249,822
7257,810
7264,800
7272,789
7280,775
7287,763
7295,749
7303,741
7310,736
7318,731
7326,730
7333,730
7341,734
7348,739
7356,745
7364,752
7371,758
7379,760
7387,768
7394,770
7402,774
7410,777
7417,777
7547,809
7555,810
7562,811
7570,813
7578,809
7601,784
7609,851
7616,1027
7624,1164
7632,1142
7639,863
7647,697
7654,737
7662,769
7670,795
7677,805
7685,816
7693,826
7700,837
7708,842
7716,845
7723,851
7731,853
7739,854
7746,855
7754,861
7761,865
7769,872
7777,877
7784,885
7792,891
7800,900
7807,911
7815,917
7823,919
7830,915
7838,908
7845,896
7853,884
7861,871
7868,859
7876,847
7884,834
7891,821
7899,813
7907,807
7914,803
7922,800
7929,797
8060,827
8067,829
8075,831
8082,832
8104,828
8111,820
8119,810
8129,794
8137,775
8144,765
8152,762
8159,761
8167,757
8175,757
8182,759
8190,762
8198,758
8205,747
8213,833
8220,1033
8228,1187
8236,1107
8243,790
8251,673
8259,689
8266,711
8274,716
8282,718
8289,728
8297,734
8304,742
8312,749
8320,752
8327,754
8335,759
8343,764
8350,767
8358,773
8366,778
8373,785
8381,794
8388,805
8396,815
8404,826
8411,839
8419,848
8427,849
8434,850
8442,842
8572,812
8580,816
8587,820
8608,821
8616,823
8624,827
8631,828
8639,828
8647,827
8657,830
8664,826
8672,833
8680,841
8687,847
8695,852
8702,855
8710,853
8718,854
8725,853
8733,848
8741,844
8748,847
8756,848
8764,849
8771,852
8779,849
8786,852
8794,857
8802,836
8809,862
8817,1010
8825,1225
8832,1271
8840,1083
8848,781
8855,759
8863,783
8870,803
8878,801
8886,807
8893,815
8901,820
8909,824
8916,826
8924,831
8931,834
8939,837
8947,837
9077,846
9085,835
9093,821
9114,793
9121,785
9129,775
9137,772
9144,769
9152,767
9160,761
9167,759
9175,758
9185,757
9193,747
9200,743
9208,739
9215,737
9223,741
9231,737
9238,732
9246,735
9254,731
9261,733
9269,747
9277,758
9284,775
9292,785
9299,788
9307,779
9315,770
9322,772
9330,768
9338,765
9345,765
9353,769
9360,771
9368,774
9376,775
9383,777
9391,780
9399,786
9406,764
9414,828
9422,1017
9429,1212
9437,1171
9444,883
9452,683
9460,701
9590,863
9598,871
9618,901
9626,904
9634,908
9641,904
9649,893
9657,884
9664,877
9672,869
9680,859
9687,849
9695,838
9705,828
9713,814
9720,808
9728,808
9735,810
9743,811
9751,818
9758,825
9766,832
9774,837
9781,838
9789,840
9796,845
9804,851
9812,852
9819,849
9827,845
9835,836
9842,835
9850,839
9858,843
9865,849
9873,849
9880,851
9888,858
9896,861
9903,858
9911,849
9919,844
9926,838
9934,829
9942,829
9949,830
9957,832
9964,831
9972,830
10102,830
10123,834
10131,832
10138,827
10146,821
10154,818
10161,815
10169,814
10177,818
10184,823
10192,826
10199,830
10207,838
10215,845
10225,845
10232,832
10240,818
10248,807
10255,795
10263,784
10270,773
10278,761
10286,750
10293,742
10301,739
10309,732
10316,728
10324,726
10332,725
10339,730
10347,736
10354,738
10362,744
10370,752
10377,755
10507,805
10515,799
10522,794
10530,794
10538,793
10545,792
10553,792
10561,790
10568,791
10576,794
10583,783
10591,789
10599,894
10606,1070
10627,787
10635,673
10643,711
10650,748
10658,774
10666,786
10673,801
10681,814
10688,824
10696,830
10704,837
10711,841
10721,847
10729,842
10737,844
10744,847
10752,856
10760,865
10767,874
10775,886
10782,896
10790,906
10920,831
10927,834
10935,834
10943,833
10950,833
10958,835
10965,834
10973,834
10981,833
10988,832
10996,825
11004,822
11011,819
11019,818
11027,812
11034,815
11042,820
11049,821
11057,820
11065,823
11072,825
11080,821
11088,817
11095,812
11103,807
11110,799
11132,798
11139,795
11147,790
11155,786
11162,782
11170,783
11178,753
11185,812
11193,979
11200,1119
11333,804
11341,811
11348,814
11356,820
11364,827
11371,837
11379,848
11387,858
11394,864
11402,867
11409,864
11417,857
11425,842
11432,832
11440,821
11448,807
11455,792
11463,777
11471,769
11478,761
11486,755
11493,751
11501,750
11509,750
11516,754
11524,762
11532,766
11539,771
11547,776
11555,780
11562,785
11570,789
11713,818
11721,821
11728,823
11736,826
11744,831
11751,834
11759,839
11767,850
11774,829
11782,867
11790,1013
11797,1188
11805,1227
11812,1030
11822,722
11830,737
11838,761
11845,784
11853,792
11861,801
11868,816
11876,827
11884,835
11891,836
11899,840
11906,847
11914,852
11922,855
11929,858
11937,863
11945,870
11952,876
11960,883
12090,816
12098,815
12105,813
12113,812
12120,812
12128,812
12136,811
12143,810
12151,811
12159,814
12166,815
12174,813
12182,812
12189,813
12197,812
12218,806
12226,798
12234,787
12241,782
12249,778
12256,776
12264,778
12272,781
12279,781
12287,781
12295,778
12302,774
12310,770
12320,763
12327,745
12335,738
12343,736
12350,739
12358,743
12366,743
12373,744
12381,748
12511,792
12518,798
12526,802
12534,803
12541,804
12549,806
12557,813
12564,816
12572,821
12580,828
12587,833
12595,842
12602,854
12610,867
12618,875
12625,873
12633,867
12641,863
12648,852
12656,839
12664,824
12671,812
12679,806
12686,792
12694,778
12702,770
12723,768
12730,773
12738,780
12746,790
12753,799
12761,805
12769,812
12776,818
12784,824
12914,879
12921,883
12932,878
12939,868
12947,861
12955,854
12962,848
12970,844
12977,836
12985,832
12993,830
13000,831
13008,831
13016,831
13023,834
13031,834
13039,838
13046,808
13054,864
13061,1041
13069,1236
13077,1216
13084,964
13092,734
13100,735
13107,759
13115,774
13123,776
13130,783
13138,793
13145,801
13153,806
13296,883
13304,865
13311,843
13319,823
13327,802
13335,782
13342,767
13350,751
13357,744
13365,737
13373,732
13380,729
13388,729
13396,730
13403,731
13411,731
13419,733
13429,736
13436,729
13444,724
13451,728
13459,730
13467,734
13474,738
13482,739
13490,740
13497,744
13505,748
13513,750
13520,755
13528,755
13535,756
13543,758
13551,757
13680,808
13688,810
13696,809
13703,811
13711,812
13719,809
13726,794
13734,876
13742,1069
13749,1223
13757,1131
13764,842
13772,697
13780,712
13801,758
13808,776
13816,789
13824,801
13832,810
13839,819
13847,825
13854,832
13862,838
13870,844
13877,849
13885,854
13893,860
13900,867
13908,878
13918,891
13925,895
13933,903
13941,910
13948,916
13956,924
13964,921
14094,850
14102,853
14109,854
14117,854
14125,856
14132,854
14140,854
14148,852
14155,852
14163,849
14170,843
14178,840
14186,836
14193,834
14201,833
14209,827
14216,826
14224,826
14232,824
14239,821
14247,819
14254,815
14262,810
14270,814
14277,817
14285,823
14306,832
14314,826
14322,822
14329,811
14337,803
14344,796
14352,786
14360,779
14367,779
14497,760
14505,772
14512,781
14520,788
14528,788
14538,790
14545,785
14553,781
14561,781
14568,784
14576,792
14583,801
14591,810
14599,819
14606,827
14614,839
14622,853
14629,864
14637,873
14645,879
14652,879
14660,872
14668,860
14675,853
14683,841
14690,830
14698,813
14706,799
14713,784
14721,779
14729,774
14736,772
14744,766
14888,823
14895,826
14903,831
14910,839
14918,847
14926,854
14934,861
14941,867
14949,866
14956,863
14964,859
14972,858
14979,852
14987,849
14995,848
15002,849
15010,849
15017,849
15027,848
15035,840
15043,840
15050,838
15058,825
15066,912
15073,1099
15081,1196
15088,1125
15096,800
15104,686
15111,739
15119,774
15127,802
15134,811
15142,821
15272,938
15279,941
15287,938
15295,927
15302,913
15310,895
15318,880
15325,862
15333,842
15341,824
15348,807
15356,795
15363,783
15371,776
15392,766
15400,763
15407,765
15415,762
15423,762
15431,761
15438,760
15446,759
15453,761
15461,761
15469,762
15476,761
15484,760
15492,757
15499,757
15507,754
15517,749
15524,737
15532,730
15540,728
15547,723
15555,730
15685,803
15693,804
15701,807
15708,781
15716,824
15723,973
15731,1146
15739,1157
15746,933
15754,672
15762,687
15769,718
15777,748
15785,756
15792,761
15800,769
15807,779
15815,783
15823,787
15830,789
15838,794
15846,797
15853,799
15861,802
15869,807
15876,814
15897,836
15905,851
15912,867
15920,884
15928,900
15935,909
15943,910
15951,906
15958,900
16088,855
16096,855
16104,858
16111,856
16119,852
16127,850
16137,847
16144,835
16152,827
16159,824
16167,821
16175,821
16182,816
16190,814
16198,815
16205,816
16213,822
16221,829
16228,836
16236,839
16243,840
16251,839
16259,834
16266,831
16274,824
16282,817
16289,815
16297,816
16304,816
16312,815
16320,812
16327,810
16471,818
16478,815
16486,810
16494,806
16501,809
16509,811
16516,801
16524,802
16532,807
16540,810
16547,815
16555,824
16562,835
16570,842
16578,841
16585,841
16593,831
16601,819
16608,808
16616,794
16626,772
16633,747
16641,731
16649,717
16656,710
16664,708
16672,711
16679,709
16687,712
16694,717
16702,722
16710,728
16717,735
16725,740
16855,805
16863,809
16870,814
16878,818
16885,820
16893,817
16901,815
16908,810
16916,807
16924,803
16931,795
16939,796
16947,794
16954,798
16975,805
16983,809
16990,820
16998,797
17006,847
17013,1016
17021,1235
17029,1232
17036,992
17044,749
17052,750
17059,778
17067,798
17075,803
17082,811
17090,822
17098,825
17105,833
17113,834
17123,840
17130,835
17138,835
17268,892
17276,877
17284,858
17291,839
17299,825
17307,820
17314,815
17322,813
17330,811
17337,808
17345,806
17353,807
17360,810
17368,810
17375,810
17383,810
17391,814
17398,815
17406,817
17414,814
17421,813
17429,813
17437,813
17444,813
17452,812
17459,806
17481,797
17488,796
17496,799
17503,800
17511,802
17519,800
17527,797
17534,796
17542,789
17672,984
17679,687
17687,684
17694,713
17702,739
17710,746
17717,753
17725,763
17735,766
17743,762
17750,763
17758,765
17765,763
17773,770
17781,774
17788,781
17796,790
17804,798
17811,804
17819,817
17827,828
17834,839
17842,852
17849,866
17857,877
17865,876
17872,875
17880,866
17888,857
17895,844
17903,834
17911,820
17918,807
18062,823
18070,824
18077,822
18085,826
18093,827
18100,833
18108,843
18115,850
18123,855
18131,864
18138,865
18146,857
18154,859
18161,856
18169,853
18177,848
18184,847
18192,851
18200,852
18207,853
18215,853
18222,856
18232,856
18240,848
18248,825
18255,901
18263,1081
18271,1204
18278,1157
18286,849
18293,685
18301,734
18309,768
18316,797
18446,913
18454,922
18461,927
18469,929
18477,925
18484,914
18492,900
18500,886
18507,869
18515,851
18522,834
18530,817
18538,801
18545,787
18567,766
18574,758
18582,754
18589,755
18597,753
18605,754
18612,753
18620,754
18628,754
18635,757
18643,754
18651,757
18658,756
18666,754
18674,750
18681,744
18689,746
18697,747
18704,746
18712,750
18722,755
18729,749
18860,828
18867,993
18875,1156
18883,1160
18890,916
18898,676
18906,696
18913,722
18921,746
18929,755
18936,763
18944,774
18951,781
18959,786
18967,785
18974,789
18982,793
18990,798
18997,800
19005,804
19012,809
19020,820
19028,831
19035,838
19043,845
19051,854
19072,886
19079,890
19087,893
19094,887
19102,881
19110,873
19117,862
19125,851
19133,837
19263,861
19270,862
19278,857
19286,851
19293,848
19301,845
19309,841
19316,843
19324,848
19334,850
19342,842
19349,835
19357,832
19364,829
19372,824
19380,820
19387,814
19395,815
19403,817
19410,819
19418,820
19426,822
19433,821
19441,821
19448,827
19456,805
19464,829
19471,970
19479,1175
19487,1246
19494,1076
19502,762
19645,860
19653,864
19660,862
19668,871
19676,873
19683,868
19691,858
19699,848
19706,833
19714,819
19722,801
19729,785
19737,766
19745,749
19752,737
19760,729
19768,724
19775,718
19783,716
19790,718
19798,720
19806,726
19813,728
19821,732
19831,734
19839,731
19846,727
19854,735
19861,736
19869,741
19877,746
19884,752
19892,754
19900,752
20029,807
20037,809
20045,810
20052,810
20060,814
20068,786
20075,828
20083,997
20091,1215
20098,1228
20106,1010
20113,736
20121,719
20129,739
20150,760
20157,773
20165,783
20173,791
20180,798
20188,807
20196,813
20203,819
20211,826
20218,835
20226,842
20234,851
20242,861
20249,870
20257,881
20264,892
20272,904
20280,915
20287,923
20295,924
20303,917
20433,839
20443,842
20450,832
20458,829
20465,826
20473,826
20481,827
20488,827
20496,825
20504,827
20511,819
20519,817
20527,819
20534,824
20542,830
20549,833
20557,839
20565,842
20572,843
20580,837
20588,836
20595,830
20603,823
20610,819
20618,819
20626,818
20633,815
20655,817
20662,816
20670,819
20677,799
20685,796
20693,899
20700,1100
20708,1212
20716,1086
20846,813
20854,820
20861,828
20869,839
20877,845
20884,855
20892,866
20900,869
20907,872
20915,868
20922,861
20961,527
20969,454
20976,438
20984,450
20992,471
20999,498
21007,530
21015,561
21022,596
21030,629
21037,660
21045,688
21053,713
21060,739
21068,762
21076,782
21083,798
21091,817
21099,827
21106,830
21114,839
21121,855
21129,867
21137,881
21158,910
21165,921
21173,929
21181,931
21188,938
21196,944
21204,941
21211,945
21341,915
21348,937
21356,939
21364,944
21372,951
21379,950
21387,948
21395,946
21402,949
21410,946
21417,944
21425,943
21433,942
21440,943
21448,943
21458,950
21466,943
21473,944
21481,950
21488,960
21496,963
21504,963
21511,959
21519,947
21527,932
21534,920
21542,906
21550,885
21557,869
21565,852
21572,840
21580,829
21588,822
21732,843
21739,843
21747,835
21754,836
21762,832
21770,824
21778,811
21785,803
21793,796
21800,787
21808,780
21816,776
21823,774
21831,769
21839,769
21846,768
21854,768
21861,770
21869,771
21877,751
21884,818
21892,995
21900,1144
21907,1114
21915,831
21923,669
21930,689
21938,717
21948,733
21955,732
21963,737
21971,747
21978,755
21986,761
22116,890
22123,880
22131,866
22139,855
22146,837
22154,819
22162,803
22169,794
22177,789
22185,779
22192,774
22200,770
22207,769
22215,770
22236,779
22244,787
22251,794
22259,801
22267,807
22274,815
22282,819
22290,822
22297,827
22305,830
22313,832
22320,830
22328,828
22335,827
22343,826
22351,825
22358,828
22366,833
22374,842
22381,845
22389,851
22519,1037
22527,1226
22534,1226
22542,974
22549,741
22559,751
22567,764
22575,767
22582,768
22590,779
22598,784
22605,790
22613,795
22620,798
22628,802
22636,804
22643,809
22651,812
22659,815
22666,817
22674,822
22682,829
22689,837
22697,844
22704,852
22712,863
22720,872
22741,861
22749,846
22756,825
22764,808
22772,800
22779,777
22787,758
22795,742
22802,728
22932,749
22940,747
22948,748
22955,751
22963,758
22971,762
22978,765
22986,765
22994,767
23001,762
23009,758
23017,753
23024,753
23032,747
23039,746
23047,745
23057,746
23065,737
23072,734
23080,737
23087,742
23095,741
23103,733
23110,813
23118,1008
23126,1171
23133,1106
23141,807
23149,679
23156,701
23164,726
23172,734
23315,890
23322,900
23330,899
23337,895
23345,892
23353,881
23360,869
23368,854
23376,842
23383,828
23391,819
23399,810
23406,807
23414,804
23422,805
23429,807
23437,809
23444,813
23452,816
23460,821
23467,822
23475,826
23483,830
23490,830
23498,830
23506,833
23513,834
23521,837
23528,833
23536,832
23546,827
23554,816
23561,813
23569,818
23699,854
23706,837
23714,843
23722,957
23729,1163
23737,1258
23744,1103
23752,776
23760,735
23767,762
23775,781
23783,780
23790,787
23798,796
23819,804
23827,804
23834,802
23842,800
23850,798
23858,798
23865,797
23873,800
23880,803
23888,807
23896,810
23903,819
23911,829
23919,837
23926,843
23934,843
23941,841
23949,832
23957,824
23964,812
23972,800
24102,794
24109,799
24117,798
24125,796
24132,794
24140,791
24148,788
24158,783
24165,773
24173,769
24180,773
24188,784
24196,789
24203,794
24211,799
24219,800
24226,801
24234,800
24241,799
24249,793
24257,791
24264,789
24272,790
24280,790
24287,791
24295,793
24303,796
24323,785
24331,836
24339,998
24346,1178
24354,1185
24362,929
24370,683
24377,726
24385,773
24514,930
24522,939
24530,943
24537,948
24545,950
24552,947
24560,935
24568,922
24575,908
24583,893
24591,879
24598,864
24606,849
24614,835
24621,825
24629,814
24636,807
24644,804
24654,801
24662,794
24669,789
24677,793
24685,794
24692,799
24700,802
24707,807
24715,812
24723,814
24730,815
24738,815
24746,814
24753,813
24897,814
24904,811
24912,806
24920,769
24927,818
24935,980
24942,1135
24950,1122
24958,863
24965,636
24973,664
24981,694
24988,715
24996,720
25004,728
25011,736
25019,741
25027,745
25034,745
25042,747
25050,749
25057,752
25065,755
25072,759
25080,766
25088,773
25095,783
25103,790
25111,801
25118,813
25126,826
25133,837
25143,839
25151,828
25281,786
25288,791
25296,793
25304,795
25311,797
25319,797
25327,799
25334,796
25342,799
25350,799
25357,798
25365,795
25373,790
25380,787
25401,785
25409,799
25416,814
25424,822
25432,828
25439,831
25447,831
25455,832
25462,833
25470,830
25478,825
25485,822
25493,825
25501,827
25508,831
25516,832
25524,838
25531,840
25539,843
25546,821
25554,882
25684,856
25692,858
25699,860
25707,863
25714,864
25722,868
25730,875
25737,881
25745,888
25753,894
25763,903
25770,896
25778,884
25785,876
25793,868
25801,854
25808,842
25816,829
25824,817
25831,803
25839,790
25847,785
25854,781
25862,779
25870,773
25877,775
25885,778
25906,785
25914,786
25921,786
25929,786
25937,785
25944,783
25952,780
25960,779
25967,775
25975,774
26105,776
26112,777
26120,781
26128,781
26135,779
26143,786
26151,784
26158,780
26166,778
26174,767
26181,858
26189,1067
26196,1229
26204,1121
26212,794
26219,679
26227,708
26235,732
26242,738
26252,744
26260,747
26267,747
26275,754
26283,757
26290,765
26298,770
26306,778
26313,783
26321,789
26328,798
26336,807
26480,796
26487,795
26495,795
26503,796
26510,808
26518,813
26525,819
26533,825
26541,831
26548,833
26556,836
26564,838
26571,842
26579,845
26587,849
26594,849
26602,845
26610,847
26617,847
26625,847
26632,844
26640,839
26648,836
26655,839
26663,844
26671,853
26678,857
26686,860
26694,863
26701,859
26709,859
26716,854
26724,850
26732,844
26864,795
26871,815
26879,816
26887,821
26894,828
26902,830
26910,830
26917,832
26925,833
26933,834
26940,837
26948,840
26956,843
26963,844
26984,855
26992,859
27000,860
27007,865
27015,870
27023,869
27030,864
27038,856
27045,845
27053,833
27061,819
27069,803
27076,789
27084,773
27091,761
27099,749
27107,738
27114,731
27122,723
27130,726
27137,732
27145,733
27275,805
27283,811
27291,811
27298,813
27306,813
27313,804
27321,796
27329,793
27336,787
27344,785
27352,786
27362,784
27369,775
27377,772
27384,774
27392,779
27400,784
27407,770
27415,788
27423,923
27430,1117
27438,1163
27446,997
27453,672
27461,670
27468,714
27489,770
27497,784
27505,799
27512,807
27520,814
27528,824
27535,832
27543,842
27551,847
27558,851
27688,872
27695,856
27703,842
27711,834
27718,824
27726,816
27734,810
27741,810
27749,809
27756,812
27764,813
27772,814
27779,816
27787,819
27795,822
27802,820
27810,819
27818,818
27825,820
27833,820
27840,815
27850,803
27858,794
27866,790
27873,793
27881,799
27889,806
27896,809
27904,813
27911,813
27919,808
27927,806
28070,746
28078,769
28086,773
28093,772
28101,777
28109,775
28116,771
28124,771
28131,770
28139,769
28147,769
28154,771
28162,774
28170,774
28177,778
28185,782
28192,784
28200,791
28208,803
28215,811
28223,821
28231,830
28238,831
28246,825
28254,817
28261,805
28269,792
28276,782
28284,765
28292,755
28299,744
28307,735
28315,729
28322,723
28452,790
28460,789
28470,786
28478,782
28485,784
28493,789
28501,793
28508,800
28516,802
28524,800
28531,798
28539,799
28546,799
28554,794
28575,802
28583,807
28590,813
28598,822
28606,830
28613,838
28621,814
28629,870
28636,1046
28644,1258
28651,1255
28659,986
28667,765
28675,772
28682,798
28690,808
28697,813
28705,821
28713,828
28720,835
28728,836
28858,931
28865,919
28873,906
28881,890
28888,874
28896,858
28904,840
28911,826
28919,818
28926,811
28934,807
28942,800
28949,795
28959,800
28967,794
28975,797
28982,799
28990,804
28997,811
29005,813
29013,817
29020,818
29028,821
29036,821
29043,821
29051,819
29059,818
29080,804
29087,802
29095,808
29103,809
29110,806
29118,802
29126,803
29133,800
29141,795
29271,935
29279,701
29287,706
29294,731
29302,740
29309,741
29317,748
29325,756
29332,761
29340,765
29348,769
29355,770
29363,774
29371,779
29378,784
29386,788
29393,791
29401,797
29409,803
29416,811
29424,822
29432,835
29439,847
29447,855
29457,861
29464,849
29472,837
29480,829
29487,821
29495,813
29503,803
29510,793
29518,780
29662,837
29669,831
29677,835
29685,838
29692,841
29700,852
29708,862
29715,869
29723,871
29731,873
29738,871
29746,865
29753,864
29761,859
29769,852
29776,852
29784,853
29792,857
29799,855
29807,858
29815,857
29822,858
29830,859
29837,830
29845,898
29853,1083
29860,1239
29868,1196
29876,887
29883,710
29891,753
29899,784
29906,804
30036,911
30044,920
30052,929
30059,925
30069,911
30077,890
30085,872
30092,861
30100,852
30107,836
30115,819
30123,808
30130,795
30138,787
30146,783
30167,778
30175,777
30182,775
30190,775
30197,774
30205,771
30213,771
30220,769
30228,770
30236,768
30243,763
30251,757
30259,755
30266,758
30274,756
30281,758
30289,764
30297,766
30304,765
30312,769
30320,771
30450,1144
30458,1064
30465,733
30473,653
30481,693
30488,720
30496,741
30503,748
30511,759
30519,770
30526,777
30534,781
30542,785
30549,789
30559,792
30567,786
30574,787
30582,792
30590,800
30597,810
30605,820
30613,833
30620,844
30628,856
30636,867
30643,877
30651,879
30672,860
30680,850
30687,843
30695,837
30702,824
30710,815
30718,810
30725,807
30733,803
30862,859
30870,863
30878,868
30886,866
30893,865
30901,866
30908,861
30916,852
30924,843
30931,838
30939,829
30947,823
30954,820
30962,819
30970,819
30977,820
30985,818
30992,819
31000,822
31008,798
31015,832
31023,968
31031,1133
31038,1164
31046,974
31056,700
31063,717
31071,740
31079,755
31086,760
31094,772
31102,782
31245,895
31252,879
31260,862
31268,842
31276,821
31283,802
31291,782
31298,764
31306,750
31314,741
31321,733
31329,731
31337,728
31344,727
31352,727
31359,730
31367,733
31375,736
31382,739
31390,743
31398,747
31405,746
31413,749
31421,748
31428,745
31436,741
31443,746
31451,748
31459,755
31466,762
31474,768
31482,769
31489,774
31497,774
31627,1165
31635,890
31642,716
31650,729
31657,752
31667,759
31675,755
31683,760
31690,768
31698,772
31706,778
31713,784
31721,786
31728,790
31749,807
31757,816
31765,828
31773,841
31780,856
31788,869
31795,886
31803,898
31811,909
31818,915
31826,914
31834,910
31841,900
31849,891
31857,880
31864,868
31872,852
31879,836
31887,821
31895,817
31902,822
31910,822
32039,855
32047,853
32055,852
32062,851
32070,859
32078,865
32085,862
32093,859
32101,853
32108,846
32116,840
32123,837
32131,830
32139,820
32146,815
32154,814
32164,814
32172,804
32179,803
32187,803
32194,806
32202,781
32210,832
32217,1002
32225,1208
32233,1195
32254,713
32262,743
32269,758
32277,754
32285,758
32292,763
32300,765
32307,763
32315,767
32445,854
32452,844
32460,829
32467,814
32475,797
32483,782
32490,766
32498,755
32506,746
32513,742
32521,738
32529,738
32536,740
32544,745
32551,750
32559,755
32567,756
32574,762
32582,766
32590,767
32597,772
32605,776
32613,776
32620,779
32628,779
32635,775
32643,775
32653,774
32661,765
32668,764
32676,772
32684,786
32827,892
32834,1087
32842,1273
32850,1209
32857,894
32865,733
32873,768
32880,799
32888,815
32896,820
32903,830
32911,839
32918,846
32926,852
32934,854
32941,857
32949,861
32957,863
32964,864
32972,864
32979,869
32987,876
32995,886
33002,895
33010,904
33018,913
33025,924
33033,933
33041,936
33048,933
33056,921
33064,912
33071,900
33201,838
33209,836
33217,836
33224,834
33232,830
33240,831
33247,827
33255,815
33265,816
33273,806
33280,798
33288,797
33295,804
33303,811
33311,817
33332,811
33339,806
33347,796
33355,787
33362,783
33370,777
33378,773
33386,773
33393,772
33401,769
33408,768
33416,776
33424,742
33431,771
33439,925
33447,1111
33454,1123
33462,921
33470,622
33477,641
33485,683
33615,850
33623,858
33630,866
33638,875
33646,884
33653,884
33661,877
33669,865
33676,854
33684,840
33691,825
33699,809
33707,794
33714,781
33722,769
33730,760
33737,757
33745,753
33752,747
33762,747
33770,742
33778,744
33785,749
33793,753
33801,757
33808,767
33816,778
33837,790
33844,799
33852,806
33860,806
33868,807
33875,815
33883,820
33890,827
33898,838
34029,853
34036,859
34044,981
34051,1183
34059,1269
34067,1128
34074,778
34082,737
34090,765
34097,788
34105,795
34113,799
34120,808
34128,815
34135,820
34143,821
34151,821
34158,824
34166,827
34174,827
34181,830
34189,832
34197,836
34204,842
34212,850
34219,856
34227,865
34235,875
34242,883
34252,890
34260,880
34268,869
34411,808
34419,804
34426,800
34434,796
34441,790
34449,787
34457,782
34464,779
34472,778
34480,771
34487,766
34495,761
34503,753
34510,746
34518,745
34526,749
34533,758
34541,762
34548,763
34556,763
34564,763
34571,763
34579,762
34587,760
34594,757
34602,752
34610,747
34617,748
34625,747
34632,755
34640,753
34648,755
34655,764
34663,752
34793,798
34801,806
34808,807
34816,808
34824,811
34831,815
34839,821
34846,829
34854,836
34864,846
34872,845
34879,852
34887,855
34895,860
34915,848
34923,842
34931,837
34938,828
34946,817
34954,807
34961,802
34969,798
34977,797
34984,799
34992,803
35000,808
35007,813
35015,821
35023,823
35030,829
35038,833
35045,837
35053,842
35061,846
35068,848
35076,845
35206,879
35213,875
35221,868
35228,857
35236,848
35244,844
35251,843
35259,840
35267,838
35274,837
35282,842
35290,842
35297,813
35305,859
35312,1027
35320,1238
35328,1232
35335,978
35343,723
35351,735
35361,768
35368,767
35376,768
35383,774
35391,780
35399,787
35420,801
35427,803
35435,802
35443,801
35450,801
35458,804
35466,808
35474,811
35481,818
35611,762
35618,763
35626,760
35634,761
35641,764
35649,767
35657,771
35664,773
35672,772
35680,779
35687,780
35695,783
35702,784
35710,784
35718,786
35725,785
35733,788
35741,789
35748,786
35756,780
35764,778
35771,781
35779,785
35786,794
35794,800
35802,811
35809,815
35817,815
35825,813
35832,812
35840,809
35850,801
35857,786
36001,799
36009,810
36016,822
36024,832
36032,841
36039,846
36047,852
36055,857
36062,863
36070,866
36078,872
36085,878
36093,885
36101,891
36108,901
36116,913
36124,921
36131,931
36139,939
36146,943
36154,942
36162,935
36169,922
36177,911
36185,898
36192,883
36200,865
36208,845
36215,832
36223,821
36230,813
36238,806
36246,802
36253,802
36383,831
36391,835
36399,840
36406,841
36414,839
36421,838
36429,833
36437,828
36444,823
36452,814
36460,805
36470,800
36477,792
36485,785
36506,786
36514,784
36521,785
36529,758
36537,809
36544,970
36552,1115
36559,1095
36567,829
36575,604
36583,646
36590,682
36598,712
36605,723
36613,728
36621,738
36628,745
36636,749
36644,753
36651,754
36659,759
36788,841
36796,827
36804,811
36811,792
36819,774
36827,763
36834,757
36842,749
36850,751
36857,749
36865,749
36873,749
36880,753
36888,758
36895,761
36903,767
36911,772
36918,774
36926,780
36934,782
36941,785
36949,788
36959,783
36966,775
36974,765
36982,763
36989,766
37010,788
37018,801
37026,811
37033,822
37041,827
37048,829
37056,829
37064,832
37072,831
37079,833
37209,824
37217,826
37225,833
37232,841
37240,842
37247,842
37255,844
37263,847
37270,846
37278,848
37286,849
37293,850
37301,852
37309,854
37316,861
37324,864
37332,873
37339,881
37347,890
37354,897
37362,901
37370,901
37377,894
37385,882
37393,868
37400,855
37408,841
37416,823
37423,807
37431,796
37438,785
37446,779
37592,809
37599,800
37607,793
37615,790
37622,792
37630,794
37637,795
37645,794
37653,794
37660,787
37668,780
37676,772
37683,767
37691,758
37699,754
37706,751
37714,751
37722,749
37729,751
37737,753
37744,754
37752,757
37760,730
37767,776
37775,944
37783,1163
37790,1163
37798,916
37806,669
37813,674
37821,699
37828,715
37836,717
37967,866
37974,878
37982,883
37990,882
37997,880
38005,869
38012,854
38020,841
38028,830
38035,813
38043,797
38051,784
38058,772
38068,763
38076,754
38097,758
38104,767
38112,780
38120,788
38127,796
38135,808
38143,817
38150,831
38158,834
38165,834
38173,839
38181,845
38189,849
38196,850
38204,848
38211,849
38219,856
38227,860
38234,862
38242,870
38250,875
38257,873
38387,1054
38395,1272
38403,1275
38410,1022
38418,759
38426,761
38433,790
38441,801
38448,802
38456,805
38464,813
38471,813
38479,816
38487,821
38494,821
38502,820
38510,822
38517,824
38525,827
38532,833
38540,836
38548,841
38558,851
38565,850
38573,856
38581,868
38602,885
38609,874
38617,864
38625,851
38632,843
38640,828
38648,810
38655,788
38663,770
38793,784
38800,789
38808,785
38815,780
38823,777
38831,780
38838,788
38846,794
38854,799
38861,804
38869,803
38877,798
38884,794
38892,790
38899,782
38907,777
38915,779
38922,781
38930,781
38938,783
38945,788
38953,788
38960,791
38968,791
38976,777
38983,872
38991,1067
38999,1183
39006,1088
39014,750
39022,656
39165,884
39173,893
39181,907
39191,922
39198,917
39206,909
39214,905
39221,897
39229,887
39236,877
39244,866
39252,856
39259,842
39267,834
39275,825
39282,818
39290,814
39298,814
39305,816
39313,817
39320,826
39328,832
39336,829
39343,829
39351,834
39359,836
39366,835
39374,836
39382,839
39389,834
39397,829
39404,829
39412,830
39420,830
39549,839
39557,840
39565,818
39572,835
39580,963
39588,1146
39595,1191
39603,1017
39611,708
39618,704
39626,736
39634,760
39641,768
39649,773
39670,791
39680,789
39688,778
39695,771
39703,769
39711,767
39718,766
39726,769
39734,775
39741,781
39749,787
39756,793
39764,805
39772,815
39779,826
39787,832
39795,832
39802,830
39810,819
39818,807
39825,794
39833,780
39963,782
39971,783
39978,785
39986,785
39994,779
40001,776
40009,778
40017,781
40024,785
40032,791
40039,796
40047,798
40055,802
40062,797
40070,793
40078,791
40085,786
40093,778
40101,780
40108,781
40116,782
40123,783
40131,783
40139,786
40146,789
40170,810
40177,991
40185,1202
40193,1196
40200,950
40208,727
40215,739
40223,770
40231,786
40238,792
40368,942
40376,950
40384,952
40391,946
40399,936
40407,925
40414,910
40422,896
40430,878
40437,858
40445,844
40452,830
40460,818
40468,809
40475,802
40483,798
40491,796
40498,800
40506,803
40514,805
40521,805
40529,810
40536,813
40544,813
40552,815
40559,814
40567,817
40575,818
40582,816
40590,810
40598,805
40605,803
40748,828
40756,813
40764,806
40771,904
40779,1105
40789,1187
40797,963
40804,682
40812,676
40820,705
40827,716
40835,714
40842,719
40850,728
40858,735
40865,741
40873,745
40881,747
40888,751
40896,754
40904,760
40911,763
40919,769
40926,776
40934,785
40942,791
40949,801
40957,814
40965,826
40972,835
40980,842
40988,842
40995,838
41003,831
41133,798
41140,803
41148,805
41155,804
41163,807
41171,809
41178,807
41186,804
41194,797
41201,796
41209,798
41217,804
41224,810
41232,817
41253,828
41260,827
41268,828
41278,832
41286,821
41293,814
41301,818
41309,825
41316,830
41324,836
41332,843
41339,847
41347,856
41354,846
41362,851
41370,971
41377,1180
41385,1293
41393,1155
41400,818
41408,760
41538,897
41545,908
41553,914
41561,922
41568,930
41576,931
41584,931
41591,923
41599,910
41607,897
41614,885
41622,872
41629,857
41637,842
41645,828
41652,815
41660,804
41668,794
41675,792
41683,789
41690,791
41698,793
41706,797
41713,798
41721,799
41729,801
41736,804
41757,805
41768,796
41775,778
41783,769
41791,767
41798,765
41806,771
41813,774
41821,777
41951,825
41959,996
41967,1120
41974,1089
41982,811
41990,635
41997,681
42005,716
42013,743
42020,749
42028,753
42035,764
42043,770
42051,774
42058,777
42066,780
42074,783
42081,787
42089,792
42097,797
42104,801
42112,807
42119,817
42127,827
42135,837
42142,848
42150,860
42158,870
42165,874
42173,874
42181,866
42188,855
42331,814
42339,819
42347,822
42354,824
42362,821
42369,826
42377,827
42387,836
42395,829
42403,828
42410,832
42418,840
42425,840
42433,838
42441,837
42448,834
42456,828
42464,828
42471,830
42479,833
42487,835
42494,836
42502,839
42509,839
42517,846
42525,830
42532,851
42540,965
42548,1130
42555,1175
42563,1025
42571,738
42578,735
42586,769
42716,886
42723,897
42731,906
42738,913
42746,915
42754,909
42761,895
42769,884
42777,870
42784,853
42792,838
42800,823
42807,810
42815,795
42836,768
42844,763
42851,758
42859,755
42867,758
42877,751
42884,731
42892,727
42899,730
42907,735
42915,738
42922,742
42930,744
42938,746
42945,743
42953,737
42960,739
42968,744
42976,749
42983,754
42991,762
42999,764
43129,962
43137,1171
43144,1193
43152,980
43160,717
43167,707
43175,729
43183,745
43190,748
43198,755
43206,765
43213,772
43221,776
43228,772
43236,776
43244,782
43251,786
43259,791
43267,797
43274,803
43282,809
43289,815
43297,823
43305,836
43312,847
43320,860
43341,877
43349,878
43356,876
43366,868
43374,853
43382,839
43389,826
43397,816
43404,812
43534,868
43542,866
43550,866
43557,864
43565,867
43572,874
43580,879
43588,879
43595,876
43603,870
43611,862
43618,854
43626,847
43634,839
43641,832
43649,830
43656,829
43664,826
43672,827
43679,823
43687,826
43695,828
43702,801
43710,860
43718,1046
43725,1232
43733,1183
43740,911
43748,723
43756,744
43763,771
43771,780
43915,897
43922,895
43930,886
43937,873
43945,859
43953,846
43960,831
43968,813
43976,792
43986,765
43993,740
44001,726
44009,718
44016,717
44024,715
44031,715
44039,719
44047,722
44054,728
44062,733
44070,738
44077,742
44085,750
44093,754
44100,756
44108,759
44115,759
44123,760
44131,754
44138,756
44146,759
44154,767
44161,772
44169,782
44299,808
44306,904
44314,1092
44322,1198
44329,1087
44337,753
44345,691
44352,736
44360,767
44368,781
44375,783
44383,791
44390,798
44398,801
44419,813
44427,817
44434,827
44442,835
44449,843
44457,852
44465,859
44475,871
44482,877
44490,885
44498,897
44505,910
44513,920
44521,925
44528,921
44536,915
44543,906
44551,897
44559,885
44566,873
44574,857
44582,845
44711,856
44719,851
44727,847
44734,846
44742,842
44749,843
44757,845
44765,846
44772,846
44780,846
44788,842
44795,833
44803,828
44811,821
44818,814
44826,811
44833,811
44841,810
44849,810
44856,810
44864,814
44872,817
44879,813
44887,796
44895,877
44902,1057
44923,860
44931,660
44939,697
44946,726
44954,745
44964,749
44972,750
44979,750
44987,752
44995,756
45125,863
45132,852
45140,842
45148,828
45155,812
45163,796
45171,782
45178,771
45186,761
45194,758
45201,753
45209,748
45216,749
45224,752
45232,754
45239,757
45247,760
45255,766
45262,772
45270,774
45278,779
45285,780
45293,781
45300,778
45308,776
45316,780
45323,781
45331,786
45339,791
45346,795
45354,797
45362,800
45505,923
45512,704
45520,735
45528,767
45535,797
45543,805
45551,815
45558,827
45566,833
45573,840
45583,844
45591,844
45599,845
45606,849
45614,851
45622,859
45629,864
45637,870
45645,881
45652,891
45660,900
45667,912
45675,924
45683,931
45690,932
45698,925
45706,917
45713,902
45721,892
45729,878
45736,863
45744,846
45751,831
45759,820
45889,843
45897,834
45904,830
45912,827
45919,828
45927,832
45935,837
45942,838
45950,836
45958,835
45965,828
45973,821
45981,816
45988,812
46009,797
46017,792
46025,789
46032,782
46040,780
46048,781
46055,762
46063,762
46073,921
46081,1103
46088,1138
46096,933
46103,659
46111,657
46119,684
46126,701
46134,704
46142,714
46149,727
46157,732
46165,735
46172,741
46302,857
46310,848
46318,837
46325,824
46333,808
46341,793
46348,779
46356,770
46364,762
46371,756
46379,755
46387,754
46394,757
46402,762
46409,767
46417,772
46425,775
46432,775
46440,778
46448,783
46455,787
46463,789
46471,791
46478,792
46486,794
46493,793
46514,795
46522,796
46530,796
46537,800
46545,812
46553,825
46560,839
46570,848
46578,839
46585,836
46715,1324
46723,1171
46730,839
46738,781
46746,800
46753,817
46761,816
46768,820
46776,827
46784,832
46791,834
46799,833
46807,836
46814,835
46822,836
46830,835
46837,839
46845,842
46852,844
46860,847
46868,852
46875,859
46883,868
46891,876
46898,883
46906,890
46914,892
46921,888
46929,879
46936,867
46944,858
46952,844
47095,810
47103,809
47111,806
47118,799
47126,793
47133,787
47141,780
47149,778
47156,772
47164,765
47172,760
47182,748
47189,743
47197,743
47205,748
47212,752
47220,756
47227,757
47235,759
47243,760
47250,758
47258,760
47266,752
47273,749
47281,750
47289,755
47296,754
47304,754
47311,758
47319,761
47327,768
47334,749
47342,766
47350,886
47480,816
47487,818
47495,821
47502,825
47510,829
47518,836
47525,843
47533,851
47541,866
47548,876
47556,886
47563,886
47571,883
47579,874
47600,847
47607,837
47615,827
47623,816
47630,808
47638,802
47646,799
47653,802
47661,804
47668,808
47678,811
47686,808
47694,808
47701,813
47709,822
47717,826
47724,831
47732,835
47740,839
47747,840
47755,847
47763,849
47770,852
47900,880
47908,880
47916,876
47923,873
47931,862
47939,856
47946,852
47954,850
47961,845
47969,844
47977,843
47984,840
47992,845
48000,831
48007,840
48015,944
48023,1142
48030,1245
48038,1096
48045,757
48053,710
48061,749
48068,780
48076,788
48084,791
48105,808
48112,808
48120,808
48128,805
48135,803
48143,799
48151,800
48158,802
48168,802
48176,798
48306,773
48313,769
48321,764
48328,757
48336,756
48344,756
48351,758
48359,759
48367,760
48374,765
48382,768
48390,773
48397,773
48405,777
48412,777
48420,782
48428,778
48435,776
48443,775
48451,767
48458,767
48466,769
48474,772
48481,777
48489,784
48496,792
48504,798
48512,800
48519,800
48527,797
48535,796
48542,791
48686,760
48693,792
48701,803
48709,814
48716,828
48724,839
48732,846
48739,853
48747,856
48755,862
48762,861
48770,867
48777,873
48787,883
48795,879
48803,883
48810,890
48818,898
48826,912
48833,926
48841,937
48848,938
48856,936
48864,927
48871,917
48879,901
48887,886
48894,869
48902,854
48910,838
48917,825
48925,818
48932,809
48940,804
49070,833
49078,827
49085,826
49093,826
49101,826
49108,830
49116,831
49123,835
49131,834
49139,826
49146,821
49154,816
49162,810
49169,806
49190,799
49198,793
49206,789
49213,785
49221,785
49229,776
49236,758
49244,839
49251,1019
49259,1147
49267,1083
49277,678
49284,637
49292,665
49300,690
49307,699
49315,706
49323,720
49330,729
49338,739
49345,739
49353,745
49484,848
49491,836
49499,823
49506,811
49514,796
49522,782
49529,769
49537,763
49544,756
49552,754
49560,752
49567,754
49575,756
49583,757
49590,762
49598,766
49606,770
49613,775
49621,780
49629,779
49636,783
49644,786
49651,786
49659,788
49667,788
49674,787
49695,783
49703,789
49711,803
49718,815
49726,828
49734,835
49741,842
49749,842
49756,843
49767,845
49897,777
49905,801
49912,819
49920,820
49928,822
49935,828
49943,833
49950,838
49958,844
49966,843
49973,842
49981,844
49989,848
49996,846
50004,849
50012,854
50019,855
50027,862
50034,871
50042,881
50050,885
50057,887
50065,894
50073,900
50080,896
50088,889
50096,876
50103,865
50111,852
50118,833
50126,815
50134,802
50277,816
50285,808
50293,799
50300,784
50308,778
50316,775
50323,774
50331,774
50339,776
50346,777
50354,775
50361,772
50369,768
50377,763
50387,756
50394,741
50402,732
50410,730
50417,731
50425,734
50432,735
50440,740
50448,745
50455,755
50463,728
50471,765
50478,928
50486,1149
50494,1184
50501,967
50509,683
50516,673
50524,700
50532,718
50661,858
50669,874
50677,884
50684,890
50692,889
50700,879
50707,870
50715,859
50723,846
50730,834
50738,823
50746,806
50753,791
50761,782
50782,770
50790,774
50797,780
50805,790
50812,801
50820,806
50828,817
50835,823
50843,828
50851,834
50858,837
50866,839
50876,842
50884,835
50891,832
50899,830
50906,831
50914,827
50922,830
50929,835
50937,841
50945,852
51075,853
51083,897
51090,1059
51098,1236
51106,1234
51113,978
51121,729
51129,750
51136,783
51144,805
51151,804
51159,809
51167,815
51174,819
51182,822
51190,825
51197,827
51205,830
51213,829
51220,831
51228,834
51235,838
51243,842
51251,847
51258,855
51266,863
51287,887
51295,887
51303,883
51310,874
51318,859
51325,842
51333,828
51341,814
51348,798
51478,782
51486,782
51496,774
51504,764
51511,760
51519,759
51526,768
51534,775
51542,780
51549,782
51557,786
51565,785
51572,783
51580,780
51588,777
51595,773
51603,775
51610,779
51618,778
51626,780
51633,783
51641,786
51649,788
51656,793
51664,773
51671,811
51679,962
51687,1134
51694,1143
51702,946
51710,666
51717,680
51860,888
51868,899
51875,915
51883,926
51891,930
51899,926
51906,919
51914,915
51921,903
51929,895
51937,877
51944,857
51952,849
51960,847
51967,834
51975,828
51985,821
51992,817
52000,817
52008,815
52015,821
52023,826
52031,827
52038,833
52046,839
52054,842
52061,844
52069,840
52077,835
52084,837
52092,848
52099,845
52107,846
52115,845
52244,820
52252,881
52260,1049
52267,1175
52275,1169
52283,923
52290,689
52298,708
52305,728
52313,755
52321,771
52328,781
52336,793
52344,802
52365,811
52372,809
52380,807
52388,808
52396,810
52403,800
52411,800
52418,808
52426,813
52434,814
52441,823
52449,827
52457,835
52464,837
52474,828
52482,812
52489,806
52497,793
52505,781
52512,767
52520,753
52528,749
52658,810
52666,808
52673,812
52681,818
52689,817
52696,816
52704,814
52711,816
52719,810
52727,808
52734,801
52742,803
52750,794
52757,786
52765,785
52773,788
52780,787
52788,790
52795,794
52803,793
52811,795
52818,771
52826,816
52834,978
52841,1116
52849,1134
52870,707
52878,720
52885,740
52893,763
52900,783
52908,802
52916,820
52923,829
52931,832
53061,916
53069,903
53076,891
53084,873
53094,862
53102,840
53109,825
53117,821
53124,819
53132,812
53140,813
53147,811
53155,807
53163,811
53170,815
53178,819
53186,823
53193,827
53201,835
53208,836
53216,833
53224,842
53231,844
53239,839
53247,833
53254,830
53262,829
53270,832
53277,833
53285,831
53292,836
53300,837
53443,1132
53451,957
53459,724
53466,712
53474,717
53481,731
53489,742
53497,746
53505,750
53512,755
53520,756
53527,756
53535,752
53543,752
53550,757
53558,761
53566,761
53573,768
53583,763
53591,761
53598,763
53606,773
53614,782
53621,789
53629,798
53637,798
53644,799
53652,792
53659,784
53667,777
53675,770
53682,756
53690,748
53698,743
53828,809
53835,808
53843,807
53850,803
53858,804
53866,806
53873,800
53881,797
53889,795
53896,794
53904,790
53912,790
53919,793
53927,794
53948,794
53955,799
53963,807
53971,812
53978,816
53986,822
53994,829
54001,831
54009,834
54017,835
54024,840
54032,844
54040,846
54047,849
54055,850
54062,852
54070,851
54080,853
54088,847
54095,846
54103,848
54111,846
54240,891
54248,887
54255,878
54263,869
54271,867
54278,867
54286,866
54294,863
54301,859
54309,837
54316,880
54324,1013
54332,1148
54339,1156
54347,965
54355,747
54362,746
54370,760
54377,780
54385,784
54393,789
54400,800
54408,806
54416,809
54423,811
54431,813
54452,818
54460,818
54467,817
54475,816
54483,821
54490,822
54498,821
54506,821
54513,827
54643,756
54651,749
54658,755
54666,777
54674,779
54681,762
54691,765
54699,760
54707,760
54714,762
54722,765
54730,768
54737,773
54745,773
54752,771
54760,772
54768,776
54775,780
54783,777
54791,780
54798,779
54806,778
54814,776
54821,777
54829,778
54836,779
54844,776
54852,781
54859,784
54867,788
54875,786
54882,784
55025,826
55033,830
55040,845
55048,856
55056,851
55063,830
55071,865
55079,982
55086,1145
55094,1173
55102,1007
55109,762
55117,753
55125,781
55132,811
55140,819
55148,828
55155,834
55163,842
55170,840
55180,840
55188,830
55196,828
55203,834
55211,836
55219,842
55226,851
55234,855
55241,864
55249,880
55257,881
55264,880
55272,891
55280,905
55409,806
55417,805
55425,806
55432,813
55440,815
55448,804
55455,799
55463,800
55470,801
55478,805
55486,808
55493,814
55501,811
55509,804
55530,805
55537,798
55545,796
55553,781
55560,774
55568,769
55576,769
55583,768
55591,772
55599,765
55606,752
55614,753
55622,750
55629,733
55637,735
55645,747
55652,759
55660,764
55667,769
55677,771
55685,758
55693,754
55823,697
55831,717
55838,740
55846,745
55853,761
55861,771
55869,779
55876,786
55884,788
55892,785
55899,788
55907,795
55915,795
55922,793
55930,793
55937,806
55945,816
55953,823
55960,831
55968,836
55976,846
55983,862
55991,876
55999,880
56006,882
56014,882
56035,859
56042,845
56050,833
56058,823
56065,808
56073,800
56081,795
56088,790
56096,790
56226,866
56234,861
56241,850
56249,855
56257,854
56264,854
56272,854
56280,840
56290,836
56297,838
56305,828
56312,832
56320,834
56328,842
56335,849
56343,853
56351,841
56358,846
56366,842
56373,829
56381,823
56389,826
56396,830
56404,828
56412,824
56419,826
56427,836
56435,829
56442,833
56450,927
56457,1130
56465,1208
56608,859
56616,856
56624,859
56631,859
56639,860
56647,870
56654,883
56662,894
56669,886
56677,882
56685,869
56692,852
56700,833
56708,815
56715,798
56723,775
56731,756
56738,742
56746,733
56754,729
56761,729
56769,727
56776,723
56786,722
56794,710
56802,714
56809,725
56817,730
56825,739
56832,742
56840,738
56848,740
56855,755
56863,762
56993,825
57000,821
57008,818
57016,812
57023,807
57031,804
57038,806
57046,807
57054,810
57061,811
57069,808
57077,814
57084,909
57092,1090
57113,801
57120,646
57128,700
57136,743
57143,786
57151,801
57159,810
57166,827
57174,840
57182,845
57189,852
57197,862
57205,863
57212,869
57220,870
57228,877
57235,881
57243,890
57250,899
57258,901
57266,912
57276,924
57406,828
57414,828
57421,826
57429,829
57437,828
57444,832
57452,834
57460,831
57467,831
57475,830
57482,830
57490,824
57498,826
57505,823
57513,820
57521,815
57528,815
57536,815
57544,820
57551,824
57559,823
57566,822
57574,822
57582,823
57589,818
57597,814
57618,793
57626,790
57633,785
57641,778
57649,775
57656,773
57664,771
57672,771
57679,761
57687,779
57818,782
57825,792
57833,796
57840,796
57848,802
57856,808
57863,816
57871,818
57879,830
57886,842
57896,859
57904,856
57911,856
57919,855
57927,851
57934,835
57942,826
57950,813
57957,794
57965,779
57972,763
57980,751
57988,746
57995,743
58003,742
58011,747
58018,744
58026,743
58034,747
58041,751
58049,756
58056,760
58064,766
58207,837
58215,832
58222,832
58230,833
58238,830
58245,833
58253,835
58260,839
58268,841
58276,846
58283,849
58291,846
58299,840
58306,845
58314,929
58322,1117
58329,1239
58337,1135
58345,814
58352,728
58360,763
58367,794
58375,805
58385,811
58393,815
58400,823
58408,825
58416,824
58423,830
58431,836
58438,841
58446,846
58454,849
58461,852
58591,848
58599,832
58607,818
58614,814
58622,805
58629,800
58637,799
58645,799
58652,798
58660,799
58668,803
58675,802
58683,802
58691,806
58712,804
58719,799
58727,796
58735,800
58742,792
58750,782
58758,779
58765,770
58773,765
58780,760
58788,760
58796,762
58804,764
58811,769
58819,775
58826,775
58834,773
58842,773
58849,771
58857,766
58865,761
58874,753
59005,742
59012,757
59020,759
59028,771
59035,780
59043,789
59051,793
59058,789
59066,793
59073,795
59081,796
59089,804
59096,807
59104,806
59112,810
59119,816
59127,827
59135,841
59142,851
59150,860
59157,876
59165,884
59173,879
59180,873
59188,867
59196,860
59217,819
59224,804
59232,793
59240,788
59247,787
59255,784
59262,788
59270,792
59278,793
59408,863
59415,860
59423,856
59431,853
59438,846
59446,840
59454,838
59461,843
59469,845
59477,854
59484,856
59523,567
59531,501
59538,488
59546,509
59554,540
59561,563
59569,576
59576,607
59584,644
59592,677
59599,709
59607,710
59615,766
59622,932
59630,1162
59638,1191
59645,1004
59653,737
59660,739
59668,781
59676,811
59683,820
59691,833
59699,850
59720,880
59728,884
59735,885
59743,888
59750,886
59758,885
59766,888
59773,886
59904,851
59911,840
59919,831
59927,825
59934,817
59942,817
59950,820
59957,820
59965,822
59973,822
59980,818
59988,823
59996,821
60003,821
