Tempo(ms),Leitura(ECG)
8,783
16,764
23,771
31,791
39,810
46,829
54,841
62,851
69,852
77,853
84,849
92,844
100,843
112,824
119,790
127,750
135,716
142,681
150,651
157,621
165,603
173,586
180,574
188,563
196,555
325,609
333,615
341,614
348,617
356,631
364,666
371,711
379,755
387,793
394,836
402,881
410,889
417,931
425,1085
446,1322
454,1019
461,956
469,980
477,996
485,998
492,1003
500,1014
507,1021
515,1028
523,1030
530,1030
538,1029
546,1033
553,1036
561,1040
569,1040
576,1039
584,1045
591,1048
599,1053
607,1059
614,1066
622,1067
630,1068
637,1064
645,1052
652,1039
660,1023
670,1000
678,976
685,955
693,937
701,925
708,917
716,911
724,907
731,904
739,902
746,903
754,902
762,901
769,900
777,901
785,903
792,899
800,899
808,895
815,891
823,879
966,842
973,844
981,848
989,818
996,868
1004,1039
1012,1230
1019,1205
1027,942
1035,751
1042,769
1050,799
1058,803
1065,801
1073,808
1081,810
1088,812
1096,815
1103,818
1111,818
1119,821
1126,822
1134,825
1142,828
1149,831
1157,835
1165,842
1172,845
1180,852
1187,863
1195,872
1203,878
1213,874
1220,858
1228,842
1236,829
1243,819
1251,812
1258,797
1266,786
1274,776
1281,769
1289,760
1297,756
1304,754
1312,754
1320,758
1327,763
1471,806
1479,795
1486,784
1494,771
1501,765
1509,761
1517,756
1524,752
1532,750
1540,745
1547,746
1555,733
1563,710
1570,799
1578,991
1586,1121
1593,1028
1601,708
1608,631
1616,668
1624,691
1631,695
1639,694
1647,702
1654,708
1662,716
1670,724
1677,727
1685,732
1692,734
1700,739
1708,742
1715,752
1723,759
1731,772
1741,784
1748,787
1756,792
1763,799
1771,809
1779,817
1786,817
1794,815
1802,809
1809,802
1817,796
1947,805
1954,807
1975,805
1983,812
1991,819
1998,829
2006,834
2014,839
2021,841
2029,840
2037,838
2044,836
2052,833
2059,827
2067,830
2075,832
2082,832
2090,832
2098,836
2105,835
2113,842
2121,815
2128,840
2136,973
2144,1138
2151,1169
2159,983
2167,719
2174,738
2182,775
2189,797
2197,803
2205,808
2212,816
2220,823
2228,826
2235,830
2243,831
2250,835
2258,836
2268,841
2276,838
2283,838
2291,842
2299,851
2306,860
2314,874
2321,883
2451,815
2459,815
2480,817
2488,815
2495,811
2503,806
2511,802
2519,796
2526,786
2534,785
2541,782
2549,781
2557,781
2564,783
2572,779
2580,778
2587,774
2595,766
2603,763
2610,756
2618,751
2625,746
2633,744
2641,745
2648,746
2656,746
2664,746
2671,749
2679,750
2686,726
2694,791
2702,965
2709,1107
2717,1078
2725,803
2732,677
2740,698
2748,724
2755,729
2763,735
2770,744
2778,751
2786,760
2796,764
2803,761
2811,766
2819,769
2826,772
2956,836
2964,824
2985,801
2992,801
3000,803
3008,802
3015,810
3023,813
3031,821
3038,828
3046,835
3054,839
3061,841
3069,845
3076,842
3084,842
3092,839
3099,846
3107,845
3115,852
3122,859
3130,865
3138,868
3145,870
3153,866
3160,861
3168,857
3176,853
3183,847
3191,841
3199,840
3206,837
3214,840
3222,842
3229,843
3237,845
3244,842
3252,813
3260,881
3267,1069
3275,1229
3283,1179
3290,886
3298,758
3305,777
3313,793
3323,792
3331,789
3460,905
3468,913
3489,886
3497,870
3505,855
3512,838
3520,818
3527,795
3535,783
3543,771
3550,760
3558,752
3566,748
3573,741
3581,743
3589,743
3596,744
3604,746
3612,743
3619,746
3627,747
3634,747
3642,748
3650,749
3657,742
3665,745
3673,743
3680,748
3688,756
3696,761
3703,766
3711,768
3718,771
3726,767
3734,765
3741,759
3749,758
3757,753
3764,753
3772,754
3780,755
3787,761
3795,765
3802,769
3810,771
3818,743
3825,802
3833,985
3963,830
3973,838
3994,843
4002,857
4009,867
4017,885
4025,894
4032,903
4040,908
4047,908
4055,902
4063,892
4070,884
4078,875
4086,864
4093,851
4101,843
4109,833
4116,830
4124,821
4132,820
4139,819
4147,822
4154,823
4162,828
4170,835
4177,835
4185,841
4193,840
4200,842
4208,841
4216,840
4223,833
4231,833
4238,838
4246,838
4254,843
4261,849
4269,856
4277,858
4284,859
4292,854
4300,853
4307,849
4315,845
4322,839
4330,836
4338,837
4468,823
4475,829
4497,834
4504,830
4514,822
4522,809
4530,799
4537,799
4545,801
4552,806
4560,809
4568,815
4575,821
4583,828
4591,834
4598,842
4606,843
4614,838
4621,830
4629,816
4636,806
4644,794
4652,788
4659,771
4667,762
4675,751
4682,745
4690,740
4697,737
4705,731
4713,731
4720,739
4728,742
4736,747
4743,754
4751,760
4759,761
4766,766
4774,765
4781,766
4789,770
4797,772
4804,776
4812,784
4820,790
4827,792
4835,797
4843,802
4850,800
4980,976
5001,746
5008,771
5016,786
5024,795
5031,809
5041,823
5049,820
5057,821
5064,828
5072,835
5079,840
5087,848
5095,854
5102,862
5110,870
5118,881
5125,891
5133,902
5141,912
5148,923
5156,929
5164,928
5171,922
5179,911
5186,899
5194,887
5202,875
5209,858
5217,845
5225,835
5232,826
5240,819
5248,812
5255,810
5263,808
5270,807
5278,806
5286,809
5293,812
5301,816
5309,820
5316,823
5324,822
5331,825
5339,823
5347,821
5354,825
5485,833
5506,804
5514,886
5521,1061
5529,1168
5537,1092
5544,783
5552,694
5560,713
5570,731
5577,715
5585,715
5593,721
5600,728
5608,731
5615,735
5623,741
5631,746
5638,747
5646,752
5654,759
5661,765
5669,771
5677,777
5684,789
5692,797
5699,807
5707,818
5715,827
5722,831
5730,828
5738,820
5745,813
5753,805
5760,793
5768,783
5776,771
5783,761
5791,751
5799,745
5806,741
5814,742
5822,744
5829,744
5837,747
5844,753
5852,762
5982,833
5990,829
6011,817
6018,818
6026,819
6034,826
6041,830
6049,837
6057,844
6064,848
6072,827
6079,889
6087,1063
6097,1256
6105,1158
6112,847
6120,765
6128,786
6135,808
6143,811
6151,816
6158,823
6166,834
6173,841
6181,847
6189,851
6196,854
6204,859
6212,860
6219,863
6227,866
6235,871
6242,875
6250,879
6257,886
6265,895
6273,905
6280,914
6288,916
6296,912
6303,905
6311,892
6319,882
6326,871
6334,859
6341,844
6349,831
6357,817
6487,836
6494,835
6515,842
6523,840
6531,837
6538,831
6546,821
6554,807
6561,798
6569,789
6577,773
6584,770
6592,767
6599,765
6607,767
6615,767
6625,762
6632,756
6640,718
6648,769
6655,943
6663,1135
6670,1118
6678,880
6686,668
6693,685
6701,710
6709,718
6716,718
6724,724
6732,734
6739,743
6747,747
6754,754
6762,757
6770,762
6777,766
6785,770
6793,771
6800,777
6808,783
6815,794
6823,805
6831,817
6838,831
6846,841
6854,851
6861,854
6991,807
6999,811
7020,820
7027,822
7035,825
7043,827
7050,827
7058,829
7066,836
7073,839
7081,848
7089,856
7096,861
7104,865
7112,865
7119,863
7127,859
7135,859
7142,854
7152,844
7160,832
7167,831
7175,831
7183,833
7190,837
7198,841
7206,842
7213,812
7221,880
7228,1068
7236,1238
7244,1194
7251,897
7259,731
7267,766
7274,799
7282,812
7290,809
7297,816
7305,822
7313,827
7320,829
7328,832
7335,837
7343,837
7351,840
7358,843
7366,846
7496,835
7503,828
7524,799
7532,792
7540,783
7547,778
7555,773
7563,772
7570,772
7578,768
7586,767
7593,761
7601,758
7609,751
7616,745
7624,746
7632,749
7639,751
7647,755
7654,762
7662,763
7670,766
7680,764
7687,752
7695,745
7703,743
7710,738
7718,738
7725,740
7733,743
7741,747
7748,752
7756,754
7764,757
7771,744
7779,742
7787,855
7794,1046
7802,1120
7809,1003
7817,685
7825,655
7832,701
7840,730
7848,742
7855,748
7863,757
7870,769
8000,900
8008,891
8029,859
8037,853
8044,842
8052,832
8060,822
8067,819
8075,815
8082,814
8090,811
8098,812
8105,818
8113,823
8121,828
8128,832
8136,837
8144,840
8151,846
8159,848
8167,850
8174,850
8182,846
8189,841
8197,839
8207,839
8215,832
8222,833
8230,839
8238,843
8245,846
8253,847
8260,842
8268,842
8276,838
8283,834
8291,827
8299,829
8306,836
8314,833
8322,831
8329,836
8337,840
8344,829
8352,815
8360,902
8367,1097
8375,1229
8505,848
8512,851
8534,864
8542,868
8549,868
8557,871
8564,869
8572,864
8580,852
8587,838
8595,823
8603,809
8610,793
8618,781
8625,765
8633,753
8641,743
8648,736
8656,731
8664,725
8671,726
8679,725
8687,731
8694,736
8702,742
8709,741
8717,745
8725,747
8735,746
8742,741
8750,736
8758,736
8765,739
8773,744
8780,752
8788,760
8796,768
8803,774
8811,778
8819,786
8826,784
8834,783
8842,783
8849,782
8857,780
8864,780
8872,783
8880,782
8887,786
9017,803
9038,816
9046,819
9053,826
9061,829
9069,841
9076,847
9084,855
9092,862
9099,873
9107,885
9114,892
9122,904
9130,912
9137,915
9145,909
9153,903
9160,890
9168,882
9176,868
9183,857
9191,845
9198,831
9206,823
9214,816
9221,810
9229,806
9237,808
9244,809
9252,812
9262,815
9269,809
9277,805
9285,811
9292,812
9300,818
9308,823
9315,821
9323,820
9330,815
9338,819
9346,817
9353,824
9361,830
9369,839
9376,839
9384,841
9392,839
9521,1174
9542,756
9550,775
9558,775
9565,768
9573,770
9581,771
9588,773
9596,769
9604,769
9611,772
9619,775
9627,773
9634,773
9642,779
9649,783
9657,787
9665,793
9672,801
9680,806
9688,816
9695,824
9703,831
9711,828
9718,823
9726,815
9733,808
9741,799
9749,790
9756,782
9764,769
9772,759
9779,748
9787,743
9797,734
9804,728
9812,725
9820,731
9827,735
9835,745
9843,749
9850,757
9858,763
9865,766
9873,771
9881,774
9888,781
9896,782
10027,824
10048,831
10055,841
10063,842
10070,827
10078,911
10086,1110
10093,1261
10101,1170
10109,868
10116,759
10124,793
10132,817
10139,821
10147,820
10155,832
10162,839
10170,845
10177,849
10185,853
10193,854
10200,857
10208,860
10216,863
10223,868
10231,873
10239,880
10246,885
10254,894
10261,901
10269,910
10277,918
10284,923
10323,592
10331,522
10338,506
10346,511
10354,533
10361,553
10369,580
10377,606
10384,637
10514,938
10522,947
10529,945
10551,932
10558,923
10566,912
10573,900
10581,891
10589,886
10596,881
10604,875
10612,870
10619,870
10627,869
10635,840
10642,855
10650,977
10658,1158
10665,1195
10673,1017
10680,705
10688,717
10696,762
10703,791
10711,798
10719,799
10726,809
10734,816
10742,819
10749,821
10757,823
10765,824
10772,828
10780,830
10787,835
10917,833
10925,822
10935,807
10942,789
10950,779
10958,776
10965,777
10973,779
10981,782
10988,787
10996,789
11003,794
11011,796
11019,799
11026,801
11034,797
11055,805
11063,810
11070,820
11078,831
11086,836
11093,842
11101,843
11108,841
11116,841
11124,838
11131,831
11139,832
11147,833
11154,835
11162,835
11170,836
11177,839
11185,844
11193,833
11200,828
11331,857
11338,859
11346,856
11354,858
11361,861
11369,866
11377,871
11384,875
11392,881
11399,888
11407,895
11415,894
11422,890
11432,872
11440,852
11448,834
11455,825
11463,813
11470,804
11478,791
11486,781
11493,775
11501,772
11509,768
11516,766
11524,767
11532,770
11539,773
11560,782
11568,785
11576,780
11583,775
11591,771
11599,760
11606,759
11614,755
11744,770
11752,771
11759,751
11767,820
11775,991
11782,1112
11790,1070
11798,786
11805,650
11813,684
11821,713
11828,730
11836,734
11844,742
11851,751
11859,757
11866,761
11874,767
11882,773
11889,775
11897,778
11905,786
11912,790
11922,796
11930,793
11937,802
11945,810
11953,824
11960,834
11968,847
11976,855
11983,856
12126,822
12134,827
12142,831
12149,835
12157,835
12165,837
12172,842
12180,841
12188,851
12195,857
12203,861
12210,864
12218,864
12226,859
12233,857
12241,854
12249,847
12256,842
12264,841
12272,843
12279,842
12287,843
12294,844
12302,845
12310,852
12317,823
12325,858
12333,1002
12340,1181
12348,1208
12356,1015
12363,751
12371,750
12501,875
12509,884
12516,892
12524,898
12532,900
12542,899
12549,885
12557,869
12565,854
12572,842
12580,830
12587,819
12595,804
12603,794
12610,783
12631,770
12639,767
12647,762
12655,759
12662,758
12670,758
12678,757
12685,758
12693,758
12700,755
12708,753
12716,750
12723,746
12731,747
12739,748
12746,748
12754,755
12762,760
12769,766
12777,768
12784,770
12915,1171
12922,992
12930,713
12938,710
12945,736
12953,753
12961,753
12968,759
12976,767
12983,772
12991,778
12999,783
13006,786
13014,787
13022,790
13032,795
13039,791
13047,793
13054,799
13062,808
13070,820
13077,831
13085,843
13093,856
13100,866
13108,872
13115,870
13136,850
13144,842
13152,837
13159,829
13167,822
13175,817
13182,811
13190,810
13198,810
13327,870
13335,879
13343,884
13350,884
13358,885
13365,881
13373,874
13381,865
13388,861
13396,854
13404,843
13411,840
13419,838
13427,837
13434,835
13442,835
13450,836
13457,842
13465,811
13472,840
13480,979
13488,1178
13495,1222
13503,1032
13511,745
13521,744
13528,759
13536,765
13543,765
13551,774
13559,782
13566,786
13709,882
13717,864
13725,845
13732,825
13740,804
13748,782
13755,769
13763,756
13771,746
13778,739
13786,733
13794,731
13801,729
13809,731
13816,733
13824,734
13832,736
13839,738
13847,739
13855,740
13862,741
13870,743
13878,743
13885,741
13893,738
13900,736
13908,739
13916,740
13923,752
13931,760
13939,766
13946,771
13954,775
13962,771
14092,1114
14099,795
14107,717
14114,740
14122,762
14130,765
14140,768
14147,765
14155,769
14163,774
14170,779
14178,782
14185,790
14193,794
14214,809
14222,820
14229,830
14237,846
14245,861
14252,877
14260,893
14268,905
14275,917
14283,918
14291,915
14298,907
14306,897
14313,886
14321,875
14329,862
14336,849
14344,837
14352,827
14359,824
14367,821
14375,821
14504,857
14512,850
14519,843
14527,844
14535,847
14542,859
14550,858
14558,852
14565,845
14573,844
14581,841
14588,838
14596,834
14603,829
14611,820
14619,815
14629,814
14636,804
14644,799
14652,800
14659,806
14667,803
14674,785
14682,861
14690,1048
14697,1220
14719,696
14726,725
14734,754
14742,763
14749,755
14757,761
14765,765
14772,768
14780,768
14910,857
14918,848
14926,838
14933,823
14941,808
14949,791
14956,777
14964,767
14971,760
14979,755
14987,752
14994,752
15002,751
15010,753
15017,759
15025,763
15033,764
15040,771
15048,774
15055,777
15063,778
15071,779
15078,781
15086,782
15094,783
15101,780
15109,776
15116,780
15126,781
15134,777
15142,785
15149,792
15157,795
15301,1197
15308,917
15316,703
15324,752
15331,792
15339,818
15347,819
15354,828
15362,840
15370,846
15377,851
15385,854
15392,858
15400,862
15408,866
15415,867
15423,873
15431,876
15438,881
15446,887
15454,894
15461,905
15469,913
15476,924
15484,934
15492,936
15499,930
15507,921
15515,907
15522,893
15530,880
15538,868
15545,855
15553,836
15683,843
15690,840
15698,831
15706,825
15713,822
15721,819
15729,822
15739,825
15746,817
15754,814
15761,813
15769,807
15777,802
15784,800
15806,790
15813,787
15821,785
15828,780
15836,778
15844,777
15852,775
15859,758
15867,752
15874,861
15882,1046
15890,1129
15897,1007
15905,670
15913,624
15920,670
15928,699
15936,712
15943,720
15951,729
15959,737
16088,874
16096,869
16103,856
16111,846
16119,835
16126,824
16134,804
16142,793
16149,776
16157,765
16164,753
16172,750
16180,743
16187,742
16195,740
16203,741
16210,745
16218,749
16228,754
16235,750
16243,751
16251,756
16258,766
16266,767
16274,775
16281,779
16289,782
16310,782
16317,789
16325,802
16333,813
16341,824
16348,832
16356,842
16363,847
16371,844
16502,1101
16509,797
16517,777
16524,803
16532,820
16540,824
16547,825
16555,832
16563,835
16570,839
16578,840
16586,842
16593,841
16601,840
16609,841
16616,845
16624,848
16631,851
16639,858
16647,864
16654,874
16662,884
16670,894
16677,901
16685,907
16693,906
16700,896
16708,887
16715,873
16725,851
16733,828
16741,810
16884,838
16891,834
16899,826
16907,819
16914,808
16922,800
16930,790
16937,781
16945,781
16953,783
16960,786
16968,789
16976,788
16983,787
16991,785
16999,781
17006,777
17014,770
17021,765
17029,757
17037,754
17044,755
17052,755
17060,756
17067,757
17075,760
17083,765
17090,742
17098,750
17105,878
17113,1093
17121,1194
17128,1030
17259,824
17266,832
17274,842
17282,846
17289,856
17297,864
17304,873
17312,877
17320,879
17327,878
17337,860
17345,837
17353,822
17360,809
17368,791
17389,768
17396,768
17404,774
17412,776
17419,783
17427,792
17435,800
17442,809
17450,814
17458,820
17465,825
17473,832
17481,839
17488,842
17496,847
17503,852
17511,851
17519,852
17526,856
17534,855
17542,858
17671,863
17679,861
17686,855
17694,852
17702,848
17709,849
17717,846
17725,851
17732,826
17740,831
17748,950
17755,1160
17763,1261
17770,1102
17778,774
17786,727
17793,754
17801,775
17809,781
17816,784
17826,792
17834,788
17841,788
17849,791
17857,796
17864,800
17872,806
17893,818
17901,820
17908,822
17916,825
17924,828
17932,834
17939,844
17947,852
17955,857
18085,756
18092,761
18100,762
18108,764
18115,764
18123,767
18131,767
18138,771
18146,772
18154,773
18161,775
18169,777
18176,776
18184,771
18192,773
18199,768
18207,765
18214,766
18222,768
18230,771
18238,778
18245,783
18253,788
18260,794
18268,796
18276,798
18283,797
18291,799
18299,796
18306,795
18314,788
18324,780
18467,794
18474,805
18482,816
18490,825
18497,832
18505,840
18513,846
18520,853
18528,858
18535,863
18543,870
18551,873
18559,881
18566,889
18574,900
18581,909
18589,922
18597,931
18604,940
18612,944
18620,940
18627,932
18635,920
18643,909
18650,893
18658,879
18665,864
18673,851
18681,840
18688,831
18696,824
18704,820
18711,819
18719,819
18849,842
18857,841
18864,837
18872,833
18879,832
18887,836
18895,843
18902,849
18910,849
18918,846
18925,847
18935,841
18943,832
18950,821
18972,802
18979,801
18987,798
18995,795
19002,791
19010,789
19017,788
19025,767
19033,774
19041,900
19048,1095
19056,1161
19063,978
19071,642
19079,636
19086,685
19094,714
19102,725
19109,727
19117,736
19124,744
19254,886
19262,880
19269,868
19277,857
19285,843
19292,831
19300,816
19308,800
19315,786
19323,776
19330,765
19338,760
19346,755
19353,750
19361,751
19369,756
19376,760
19384,763
19392,770
19399,771
19407,779
19414,782
19422,790
19432,790
19440,782
19447,778
19455,777
19476,779
19484,786
19491,794
19499,808
19506,823
19514,834
19522,842
19530,849
19537,851
19545,847
19675,928
19683,729
19690,764
19698,795
19705,814
19713,816
19721,820
19728,826
19736,832
19744,836
19751,838
19759,839
19767,841
19774,844
19782,844
19789,847
19797,851
19805,858
19812,863
19820,871
19828,879
19835,889
19843,898
19851,904
19858,909
19866,904
19873,894
19881,878
19889,867
19896,853
19904,839
19912,823
20057,820
20065,812
20073,808
20080,795
20088,785
20096,776
20103,769
20111,774
20118,776
20126,778
20134,776
20141,777
20149,771
20157,766
20164,761
20172,756
20180,748
20187,745
20195,744
20203,744
20210,746
20218,743
20225,747
20233,748
20241,747
20248,722
20256,803
20264,1010
20271,1202
20279,1131
20287,809
20294,660
20302,682
20432,835
20440,848
20448,859
20455,870
20463,877
20470,878
20478,873
20486,862
20493,852
20501,837
20509,824
20516,806
20524,793
20531,781
20541,770
20562,751
20570,756
20578,763
20585,772
20593,783
20601,793
20608,806
20616,811
20623,820
20631,827
20639,834
20647,841
20654,845
20662,845
20669,844
20677,846
20685,843
20692,839
20700,837
20708,842
20715,841
20846,864
20853,844
20861,846
20869,957
20876,1173
20884,1291
20892,1136
20899,798
20907,747
20915,772
20922,790
20930,785
20937,786
20945,797
20953,802
20960,808
20968,809
20976,813
20983,815
20991,820
20999,820
21006,823
21014,827
21021,832
21031,836
21039,835
21047,837
21068,870
21076,876
21083,870
21091,863
21098,849
21106,837
21114,822
21121,808
21129,790
21259,785
21267,786
21275,787
21282,782
21290,778
21297,773
21305,769
21313,768
21320,768
21328,774
21336,783
21343,789
21351,791
21359,795
21366,792
21374,790
21381,789
21389,787
21397,780
21404,780
21412,781
21420,781
21427,780
21435,783
21443,786
21450,788
21458,798
21465,770
21473,794
21481,935
21488,1159
21496,1229
21639,853
21647,862
21657,878
21665,885
21672,895
21680,907
21688,918
21695,920
21703,917
21710,907
21718,898
21726,891
21733,878
21741,866
21749,853
21756,845
21764,838
21772,832
21779,829
21787,827
21794,827
21802,829
21810,836
21817,837
21825,840
21833,840
21840,846
21848,846
21856,847
21863,846
21871,849
21878,850
21886,846
21894,843
22023,850
22031,849
22039,849
22046,846
22054,843
22062,845
22069,813
22077,844
22085,986
22092,1190
22100,1235
22107,1002
22115,704
22123,724
22144,776
22154,773
22162,767
22169,760
22177,761
22185,763
22192,768
22200,770
22207,770
22215,770
22223,772
22230,773
22238,781
22246,789
22253,795
22261,804
22269,812
22276,822
22284,831
22291,838
22299,832
22307,826
22437,773
22445,778
22452,780
22460,784
22468,783
22475,785
22483,782
22491,782
22498,774
22506,775
22513,775
22521,778
22529,786
22536,791
22544,797
22552,801
22559,803
22567,796
22575,794
22582,786
22590,783
22597,782
22605,784
22613,787
22620,789
22644,784
22651,790
22659,793
22666,785
22674,881
22682,1080
22689,1205
22697,1129
22705,803
22712,714
22842,915
22850,922
22858,933
22865,938
22873,946
22881,946
22888,943
22896,934
22903,917
22911,900
22919,884
22926,871
22934,857
22942,841
22949,823
22957,812
22964,803
22972,796
22980,789
22987,788
22995,785
23003,788
23010,793
23018,794
23026,800
23033,804
23041,808
23049,808
23056,808
23064,808
23071,810
23079,807
23222,815
23230,808
23238,804
23245,801
23255,774
23263,768
23271,882
23278,1090
23286,1181
23294,1018
23301,699
23309,668
23316,690
23324,710
23332,708
23339,714
23347,722
23355,725
23362,732
23370,738
23378,744
23385,745
23393,750
23400,756
23408,761
23416,766
23423,774
23431,782
23439,792
23446,802
23454,816
23462,829
23469,839
23477,844
23607,786
23614,791
23622,795
23629,795
23637,795
23645,798
23652,798
23660,801
23668,800
23675,798
23683,790
23691,789
23698,789
23706,794
23727,815
23734,821
23742,826
23752,828
23760,820
23767,817
23775,817
23783,814
23790,821
23798,825
23806,833
23813,836
23821,842
23828,846
23836,850
23844,846
23851,834
23859,924
23867,1127
23874,1285
23882,1188
24012,882
24019,885
24027,892
24035,896
24042,907
24050,916
24058,920
24065,920
24073,917
24081,910
24088,897
24096,883
24103,868
24111,855
24119,835
24126,822
24134,804
24142,795
24149,785
24157,780
24165,778
24172,780
24180,781
24187,784
24195,789
24203,787
24210,789
24231,792
24242,787
24249,776
24257,769
24264,761
24272,750
24280,745
24287,747
24295,750
24425,794
24433,798
24441,766
24448,809
24456,993
24464,1204
24471,1185
24479,913
24486,689
24494,708
24502,733
24509,739
24517,733
24525,742
24532,747
24540,755
24548,760
24555,766
24563,769
24570,772
24578,780
24586,783
24593,790
24601,793
24609,801
24616,808
24624,820
24631,827
24639,843
24647,856
24654,867
24662,870
24805,825
24813,829
24821,834
24828,841
24836,844
24844,847
24854,843
24861,835
24869,831
24877,836
24884,840
24892,851
24899,862
24907,868
24915,869
24922,869
24930,868
24938,867
24945,865
24953,860
24961,853
24968,851
24976,854
24983,854
24991,857
24999,855
25006,855
25014,858
25022,862
25029,825
25037,882
25045,1061
25052,1231
25060,1206
25190,870
25197,875
25205,883
25212,887
25220,892
25228,904
25235,908
25243,911
25251,908
25258,902
25266,890
25274,879
25281,867
25289,855
25310,812
25318,793
25325,779
25333,766
25341,759
25351,747
25358,733
25366,726
25374,726
25381,729
25389,733
25396,732
25404,736
25412,742
25419,742
25427,743
25435,738
25442,737
25450,738
25458,740
25465,746
25473,754
25603,775
25611,780
25618,893
25626,1087
25634,1167
25641,1040
25649,719
25657,693
25664,722
25672,749
25680,754
25687,758
25695,769
25702,773
25710,780
25718,782
25725,787
25733,790
25741,794
25748,796
25756,803
25764,808
25771,815
25779,822
25786,832
25794,843
25815,875
25823,886
25830,889
25840,886
25848,869
25856,861
25863,852
25871,844
25879,834
26008,879
26016,871
26024,869
26031,874
26039,871
26047,871
26054,877
26062,872
26069,871
26077,872
26085,865
26092,859
26100,850
26108,852
26115,846
26123,830
26130,822
26138,825
26146,827
26153,828
26161,828
26169,827
26176,831
26184,794
26192,830
26199,987
26207,1195
26214,1216
26222,997
26230,745
26237,747
26245,769
26389,884
26396,886
26404,881
26411,872
26419,858
26427,842
26434,820
26442,804
26452,778
26460,753
26467,731
26475,722
26483,713
26490,706
26498,702
26505,704
26513,706
26521,711
26528,715
26536,722
26544,725
26551,729
26559,737
26567,737
26574,745
26582,748
26590,748
26597,746
26605,748
26612,749
26620,759
26628,768
26635,774
26643,778
26773,929
26780,1142
26788,1238
26796,1093
26803,775
26811,734
26819,757
26826,771
26834,767
26842,772
26849,781
26857,787
26864,793
26872,801
26893,810
26901,820
26908,831
26916,841
26923,859
26931,866
26941,884
26949,884
26956,893
26964,907
26972,921
26979,928
26987,931
26995,925
27002,918
27010,912
27017,904
27025,893
27033,880
27040,870
27048,857
27056,851
27185,896
27193,897
27201,899
27208,907
27216,910
27223,908
27231,904
27239,897
27246,889
27254,880
27262,871
27269,862
27277,859
27285,854
27292,854
27300,854
27307,851
27315,848
27323,849
27330,839
27338,819
27346,904
27353,1101
27361,1253
27369,1163
27376,854
27397,796
27405,796
27413,778
27420,783
27428,784
27438,778
27446,770
27453,770
27461,773
27590,844
27598,833
27606,819
27613,805
27621,796
27629,786
27636,777
27644,771
27652,766
27659,766
27667,765
27675,768
27682,770
27690,775
27697,776
27705,781
27713,780
27720,781
27728,782
27736,781
27743,778
27751,776
27759,780
27766,783
27774,793
27781,799
27789,804
27797,808
27804,810
27812,807
27820,803
27827,801
27971,795
27978,810
27986,815
27993,827
28001,835
28009,846
28016,852
28024,857
28032,857
28039,859
28049,864
28057,865
28065,864
28072,870
28080,878
28087,888
28095,898
28103,910
28110,922
28118,929
28125,934
28133,930
28141,924
28149,911
28156,900
28164,887
28171,877
28179,861
28187,846
28194,835
28202,824
28210,818
28217,810
28225,810
28355,853
28362,853
28370,852
28378,844
28385,836
28393,832
28401,822
28408,816
28416,811
28423,811
28431,806
28439,806
28446,802
28454,803
28475,772
28483,838
28490,1018
28498,1136
28506,1083
28513,780
28521,657
28529,689
28536,713
28546,716
28554,707
28562,710
28569,714
28577,717
28585,722
28592,729
28600,732
28607,737
28615,742
28623,747
28630,753
28638,761
28768,759
28776,754
28783,744
28791,745
28799,746
28806,750
28814,751
28822,755
28829,756
28837,759
28845,765
28852,767
28860,769
28868,771
28875,770
28883,762
28890,764
28898,762
28906,768
28913,776
28921,783
28929,788
28936,791
28944,792
28951,789
28959,787
28980,782
28988,779
28995,785
29003,793
29011,799
29018,807
29026,815
29036,821
29044,796
29051,804
29181,870
29188,873
29196,873
29204,873
29211,875
29219,879
29227,886
29234,890
29242,899
29250,908
29257,916
29265,917
29272,913
29280,902
29288,889
29295,876
29303,863
29311,848
29318,830
29326,817
29334,805
29341,798
29349,789
29356,788
29364,784
29372,786
29379,787
29387,788
29395,790
29402,793
29410,793
29417,796
29561,828
29569,815
29576,798
29584,787
29592,783
29599,775
29607,772
29614,767
29622,766
29630,767
29637,742
29645,750
29655,945
29663,1148
29670,1143
29678,884
29686,650
29693,666
29701,696
29708,703
29716,696
29724,706
29731,717
29739,729
29747,733
29754,741
29762,744
29770,746
29777,750
29785,755
29793,762
29800,768
29808,776
29815,782
29945,773
29953,773
29961,772
29968,771
29976,773
29984,776
29991,783
29999,783
30006,787
30014,789
30022,793
30029,797
30037,800
30045,802
30066,802
30073,805
30081,803
30088,811
30096,820
30104,834
30111,846
30119,852
30127,856
30134,855
30144,858
30152,843
30160,838
30167,841
30175,838
30182,835
30190,839
30198,840
30205,844
30213,850
30221,855
30228,862
30359,860
30366,863
30374,862
30382,860
30389,863
30397,865
30405,866
30412,867
30420,873
30428,879
30435,890
30443,903
30451,908
30458,915
30466,911
30473,900
30481,884
30489,871
30496,857
30504,844
30512,829
30519,816
30527,803
30535,791
30542,786
30550,780
30571,780
30579,779
30586,775
30594,775
30601,772
30609,770
30617,767
30624,769
30632,766
30642,765
30772,792
30780,787
30788,790
30795,792
30803,793
30810,792
30818,792
30826,798
30833,779
30841,772
30849,875
30856,1086
30864,1196
30872,1067
30879,717
30887,667
30895,711
30902,738
30910,750
30917,750
30925,763
30933,770
30940,775
30948,779
30956,786
30963,791
30971,792
30979,795
30986,801
30994,804
31001,810
31009,821
31152,798
31160,798
31168,802
31176,807
31183,812
31191,819
31198,824
31206,832
31214,836
31221,843
31229,844
31237,849
31244,851
31254,850
31262,834
31269,826
31277,822
31285,822
31292,826
31300,830
31308,841
31315,845
31323,852
31330,854
31338,855
31346,853
31353,852
31361,843
31369,836
31376,834
31384,834
31392,840
31399,838
31407,839
31537,833
31544,834
31552,836
31560,836
31567,837
31575,836
31583,836
31590,841
31598,844
31606,848
31613,852
31621,862
31628,871
31636,879
31657,889
31665,882
31673,870
31680,849
31688,836
31696,816
31703,796
31711,775
31718,762
31726,750
31734,737
31744,731
31751,720
31759,714
31767,713
31774,718
31782,718
31790,727
31797,732
31805,743
31812,751
31820,758
31828,762
31958,822
31965,818
31973,815
31981,815
31988,815
31996,813
32003,816
32011,818
32019,820
32026,821
32034,793
32042,851
32049,1039
32057,1249
32065,1212
32072,924
32080,732
32087,750
32095,775
32103,778
32110,778
32118,785
32126,795
32133,801
32141,806
32162,819
32169,830
32177,837
32185,845
32192,856
32200,862
32208,873
32215,883
32223,895
32353,852
32363,848
32371,840
32379,837
32386,838
32394,839
32402,841
32409,845
32417,846
32425,850
32432,853
32440,850
32448,849
32455,852
32463,841
32470,832
32478,830
32486,831
32493,834
32501,842
32509,850
32516,852
32524,856
32531,853
32539,852
32547,846
32554,843
32562,837
32570,827
32577,827
32585,828
32593,829
32600,826
32744,820
32752,817
32759,814
32767,809
32775,807
32782,806
32790,803
32798,800
32805,806
32813,808
32821,814
32828,822
32836,832
32843,839
32853,839
32861,827
32869,814
32876,804
32884,793
32892,783
32899,769
32907,758
32914,744
32922,736
32930,728
32937,725
32945,724
32953,726
32960,728
32968,732
32976,738
32983,743
32991,745
32998,746
33128,827
33136,832
33143,826
33151,819
33159,812
33166,807
33174,804
33182,799
33189,804
33197,804
33205,803
33212,806
33220,809
33227,808
33248,992
33256,1210
33264,1217
33271,952
33279,716
33287,747
33294,779
33302,794
33310,796
33317,808
33325,821
33333,827
33340,836
33350,835
33358,831
33365,831
33373,838
33381,843
33388,853
33396,857
33404,866
33411,874
33541,831
33548,827
33556,824
33564,819
33571,818
33579,819
33587,818
33594,816
33602,817
33610,818
33617,815
33625,813
33632,813
33640,814
33648,803
33655,796
33663,793
33671,793
33678,793
33686,798
33693,805
33701,809
33709,813
33716,813
33724,808
33732,797
33753,783
33761,779
33768,775
33776,769
33783,763
33791,761
33799,758
33806,761
33814,745
33944,769
33951,773
33962,777
33969,770
33977,769
33985,775
33992,787
34000,792
34007,804
34015,813
34023,826
34030,835
34038,842
34046,839
34053,830
34061,821
34069,809
34076,804
34084,789
34091,776
34099,763
34107,752
34114,740
34122,739
34130,735
34137,734
34145,736
34153,741
34160,746
34168,750
34175,755
34183,760
34191,766
34334,815
34342,816
34350,819
34357,824
34365,827
34373,831
34380,835
34388,840
34396,845
34403,822
34411,884
34418,1067
34426,1247
34434,1204
34441,928
34451,760
34459,777
34467,789
34474,792
34482,796
34490,809
34497,814
34505,822
34512,825
34520,833
34528,836
34535,839
34543,851
34551,856
34558,859
34566,854
34574,861
34581,870
34589,879
34718,807
34726,809
34734,806
34741,807
34749,804
34757,805
34764,805
34772,810
34780,806
34787,804
34795,802
34803,803
34810,804
34818,797
34839,790
34847,789
34855,792
34862,792
34870,790
34877,788
34885,782
34893,777
34900,770
34908,764
34916,753
34923,751
34931,745
34938,746
34948,743
34956,737
34964,735
34971,740
34979,735
34987,717
34994,798
35002,993
35132,808
35140,815
35147,820
35155,827
35163,831
35170,840
35178,848
35186,857
35193,866
35201,872
35208,876
35216,869
35224,860
35231,849
35239,840
35247,823
35254,813
35262,802
35269,787
35277,776
35285,770
35292,769
35300,768
35308,773
35315,771
35323,777
35344,790
35352,799
35359,805
35367,812
35375,824
35382,826
35390,832
35397,829
35405,836
35535,876
35543,876
35550,877
35560,842
35568,855
35576,997
35583,1201
35591,1256
35599,1054
35606,761
35614,760
35621,791
35629,807
35637,802
35644,805
35652,815
35660,821
35667,826
35675,832
35683,833
35690,836
35698,836
35705,840
35713,842
35721,845
35728,851
35736,856
35744,862
35751,871
35759,882
35767,888
35774,899
35917,802
35925,801
35933,798
35940,794
35948,786
35956,782
35963,771
35971,765
35979,763
35986,761
35994,764
36002,767
36009,770
36017,768
36024,771
36032,767
36040,763
36047,759
36057,752
36065,736
36073,733
36080,732
36088,738
36095,739
36103,738
36111,745
36118,752
36126,749
36134,724
36141,810
36149,1005
36157,1137
36164,1077
36172,758
36302,833
36309,843
36317,850
36325,863
36332,873
36340,883
36347,885
36355,886
36363,879
36370,867
36378,855
36386,840
36393,828
36401,815
36422,786
36429,782
36437,786
36445,787
36453,787
36460,790
36468,795
36475,804
36483,811
36491,818
36498,823
36506,831
36514,834
36521,837
36529,837
36537,837
36547,840
36554,831
36562,831
36569,838
36577,844
36585,848
36715,1054
36723,1219
36730,1199
36738,948
36746,762
36753,781
36761,797
36769,802
36776,801
36784,804
36792,809
36799,812
36807,814
36815,815
36822,816
36830,816
36837,818
36845,817
36853,822
36860,826
36868,831
36876,839
36883,844
36891,854
36899,860
36906,873
36927,870
36935,857
36943,841
36950,822
36958,804
36966,784
36973,769
36981,755
36989,742
37118,765
37126,765
37134,765
37141,770
37149,776
37159,781
37166,771
37174,768
37182,763
37189,764
37197,759
37205,761
37212,756
37220,756
37227,757
37235,760
37243,762
37250,763
37258,768
37266,772
37273,772
37281,751
37289,833
37296,1030
37304,1209
37311,1137
37319,836
37327,702
37334,723
37342,743
37350,743
37493,905
37501,907
37508,908
37516,900
37524,895
37531,885
37539,879
37546,867
37554,857
37562,844
37570,834
37577,829
37585,827
37592,823
37600,823
37608,827
37615,831
37623,836
37631,836
37638,841
37646,843
37656,851
37663,844
37671,844
37679,845
37686,847
37694,847
37702,844
37709,842
37717,841
37724,842
37732,846
37740,862
37747,871
37877,957
37885,1173
37892,1318
37900,1188
37908,858
37915,773
37923,797
37931,809
37938,806
37946,804
37954,818
37961,820
37969,823
37976,825
37998,830
38005,832
38013,829
38020,829
38028,828
38036,832
38043,837
38051,840
38059,844
38066,852
38074,864
38082,866
38089,866
38097,860
38105,854
38112,838
38120,827
38127,817
38135,804
38145,778
38153,756
38160,743
38291,834
38298,835
38306,834
38314,822
38321,824
38329,827
38337,834
38344,844
38352,849
38360,854
38367,851
38375,845
38382,843
38390,845
38398,842
38405,837
38413,830
38421,831
38428,831
38436,833
38444,835
38451,839
38459,844
38466,834
38474,819
38482,919
38503,1238
38510,920
38518,753
38525,792
38533,820
38541,832
38549,832
38556,846
38564,858
38694,997
38701,990
38709,980
38717,963
38724,948
38732,932
38740,918
38747,897
38757,877
38765,856
38773,843
38780,838
38788,833
38795,831
38803,833
38811,835
38818,839
38826,843
38834,848
38841,853
38849,854
38857,858
38864,854
38872,850
38879,857
38887,851
38895,843
38902,846
38910,846
38918,847
38925,851
38933,858
38941,861
39085,1195
39092,882
39100,706
39107,738
39115,756
39123,766
39130,759
39138,761
39146,765
39153,768
39161,770
39169,769
39176,772
39184,771
39192,771
39199,773
39207,775
39215,778
39222,785
39230,787
39237,794
39245,805
39255,823
39263,820
39270,822
39278,820
39286,816
39293,809
39301,798
39308,790
39316,780
39324,768
39331,755
39339,743
39469,785
39476,784
39484,780
39492,781
39499,778
39507,781
39515,786
39522,794
39530,792
39537,796
39545,791
39553,787
39560,788
39568,782
39589,778
39597,778
39604,785
39612,789
39620,797
39627,806
39635,802
39642,793
39650,886
39658,1089
39665,1221
39673,1125
39681,798
39688,727
39696,760
39704,786
39711,790
39719,790
39727,797
39734,804
39744,809
39874,917
39882,903
39889,893
39897,874
39905,860
39912,840
39920,822
39927,805
39935,798
39943,791
39950,783
39958,783
39966,779
39973,782
39981,783
39989,785
39996,785
40004,787
40011,788
40019,789
40027,789
40034,788
40042,789
40050,788
40057,787
40065,780
40073,776
40094,775
40101,778
40109,783
40117,780
40124,779
40132,771
40140,762
40147,750
40155,747
40285,701
40293,720
40301,719
40308,720
40316,727
40324,735
40331,736
40339,743
40346,746
40354,749
40364,754
40372,750
40379,746
40387,753
40395,762
40402,772
40410,783
40418,795
40425,810
40433,821
40440,835
40448,842
40456,845
40463,838
40471,830
40479,818
40486,812
40494,803
40502,790
40509,779
40517,772
40524,763
40532,758
40676,815
40684,820
40691,834
40699,843
40706,854
40714,858
40722,860
40729,858
40737,859
40745,858
40752,858
40760,850
40768,850
40775,850
40783,851
40791,853
40798,852
40806,856
40813,861
40821,836
40829,857
40836,1000
40844,1217
40854,1236
40862,939
40869,746
40877,768
40884,788
40892,795
40900,792
40907,802
40915,807
40923,816
40930,819
41060,913
41068,896
41075,872
41083,871
41091,863
41098,847
41106,829
41114,810
41121,801
41129,792
41136,790
41144,787
41152,789
41159,789
41181,796
41188,797
41196,794
41204,787
41211,783
41219,783
41226,782
41234,779
41242,778
41249,770
41257,762
41265,755
41272,757
41280,752
41288,755
41295,762
41303,773
41311,776
41318,779
41326,780
41333,774
41343,767
41474,714
41481,751
41489,772
41497,769
41504,774
41512,778
41519,784
41527,785
41535,788
41542,792
41550,796
41558,802
41565,802
41573,808
41581,810
41588,816
41596,822
41604,830
41611,838
41619,851
41626,864
41634,871
41642,872
41649,870
41657,865
41665,853
41686,823
41693,817
41701,808
41708,802
41716,798
41724,798
41731,797
41739,799
41747,797
41877,867
41884,872
41892,874
41900,873
41907,870
41915,861
41923,857
41930,848
41938,841
41945,836
41953,836
41963,827
41971,818
41978,811
41986,812
41994,816
42001,793
42009,811
42016,939
42024,1125
42032,1184
42039,1026
42047,716
42055,714
42062,744
42070,769
42078,774
42085,779
42093,789
42100,795
42108,798
42116,802
42259,859
42267,839
42275,815
42282,791
42290,773
42298,757
42305,748
42313,738
42320,730
42328,725
42336,723
42343,720
42351,720
42359,722
42366,724
42374,728
42382,731
42389,737
42397,736
42404,739
42412,740
42420,740
42427,733
42435,733
42443,734
42453,736
42460,731
42468,735
42476,740
42483,746
42491,752
42498,747
42506,748
42514,748
42643,746
42651,766
42659,772
42666,772
42674,784
42682,786
42689,789
42697,790
42704,792
42712,794
42720,796
42727,798
42735,798
42743,802
42764,820
42771,837
42779,851
42787,870
42794,882
42802,892
42809,900
42817,901
42825,893
42832,881
42840,872
42848,863
42855,856
42863,842
42871,832
42878,820
42886,816
42894,810
42901,810
42909,807
42916,809
42924,814
43054,868
43061,871
43071,868
43079,853
43087,844
43094,836
43102,834
43110,831
43117,824
43125,823
43132,821
43140,824
43148,824
43155,823
43163,824
43171,827
43178,802
43186,812
43194,944
43201,1168
43209,1259
43216,1090
43224,774
43232,733
43239,757
43247,767
43268,773
43276,777
43284,775
43291,774
43299,771
43306,772
43314,770
43322,768
43329,770
43459,777
43467,766
43474,753
43482,746
43490,746
43497,739
43505,738
43513,738
43520,744
43528,748
43535,752
43543,754
43551,756
43561,754
43568,751
43576,750
43584,753
43591,757
43599,760
43607,761
43614,756
43622,760
43629,760
43637,770
43645,782
43652,795
43660,798
43668,802
43675,805
43683,799
43691,799
43698,798
43706,798
43849,795
43857,803
43865,812
43873,824
43880,831
43888,838
43895,844
43903,853
43911,857
43918,865
43926,869
43934,874
43941,884
43949,888
43956,899
43964,906
43972,920
43979,929
43987,936
43995,934
44002,931
44010,921
44018,912
44025,899
44033,886
44040,873
44048,862
44058,838
44066,817
44073,810
44081,804
44089,805
44096,803
44104,806
44234,868
44241,868
44249,867
44256,868
44264,861
44272,854
44279,845
44287,837
44295,826
44302,824
44310,822
44318,820
44325,816
44333,816
44354,808
44362,787
44370,881
44377,1068
44385,1160
44392,1046
44400,708
44408,653
44415,695
44423,719
44431,727
44438,728
44446,732
44454,740
44461,744
44469,746
44476,747
44484,754
44492,753
44499,753
44507,758
44637,789
44644,776
44652,767
44660,758
44670,749
44677,735
44685,731
44693,731
44700,737
44708,742
44715,746
44723,758
44731,762
44738,768
44746,770
44754,775
44761,774
44769,775
44777,773
44784,771
44792,771
44799,774
44807,782
44815,787
44822,794
44830,797
44838,802
44859,795
44866,795
44874,798
44882,803
44889,809
44897,814
44904,822
44912,825
44920,832
45049,863
45057,864
45064,862
45072,865
45080,864
45087,867
45095,869
45103,875
45110,877
45118,886
45126,895
45133,907
45141,915
45149,917
45159,913
45166,898
45174,882
45181,868
45189,858
45197,845
45204,833
45212,819
45220,811
45227,802
45235,797
45242,789
45250,784
45258,783
45265,785
45273,789
45281,790
45288,793
45296,796
45440,826
45448,814
45455,806
45463,798
45470,793
45478,784
45486,779
45494,774
45501,775
45509,765
45516,747
45524,824
45532,1002
45539,1127
45547,1066
45555,766
45562,656
45570,684
45578,703
45585,711
45593,716
45600,726
45608,732
45616,736
45623,742
45631,748
45639,756
45646,759
45656,764
45664,758
45671,759
45679,763
45687,777
45694,786
45824,776
45832,777
45839,779
45847,780
45855,782
45862,785
45870,787
45878,789
45885,794
45893,795
45901,796
45908,795
45916,794
45923,792
45944,787
45952,791
45960,799
45967,813
45975,823
45983,833
45990,840
45998,844
46006,847
46013,843
46021,842
46029,838
46036,837
46044,838
46051,842
46059,842
46067,842
46074,841
46082,844
46090,851
46097,825
46227,857
46235,860
46242,858
46250,859
46258,860
46268,865
46275,860
46283,859
46291,866
46298,877
46306,888
46314,893
46321,894
46329,886
46336,878
46344,868
46352,857
46359,844
46367,831
46375,816
46382,804
46390,796
46398,786
46405,781
46413,780
46420,781
46428,780
46449,789
46457,786
46465,783
46472,783
46480,781
46488,777
46495,775
46503,775
46511,768
46641,777
46648,780
46656,779
46664,774
46671,777
46679,778
46687,760
46694,766
46702,888
46710,1094
46717,1192
46725,1048
46732,732
46740,690
46748,716
46758,732
46765,722
46773,724
46781,732
46788,744
46796,750
46803,757
46811,760
46819,771
46826,775
46834,783
46842,790
46849,798
46857,803
46865,811
46872,824
46880,836
47023,807
47030,814
47038,819
47046,824
47053,832
47061,836
47069,841
47077,842
47084,850
47092,851
47099,855
47107,855
47115,851
47122,847
47130,847
47138,850
47145,852
47153,859
47160,860
47168,865
47176,866
47183,870
47191,864
47199,860
47206,855
47214,848
47222,846
47229,845
47237,848
47244,845
47254,846
47262,835
47270,833
47277,815
47407,847
47415,849
47422,850
47430,850
47438,854
47445,855
47453,860
47460,863
47468,872
47476,879
47483,888
47491,891
47499,897
47506,893
47528,863
47535,846
47543,828
47550,814
47558,791
47566,774
47574,760
47581,748
47589,740
47596,732
47604,731
47612,725
47619,728
47627,728
47635,734
47642,735
47650,740
47658,740
47665,742
47673,746
47680,747
47688,749
47818,786
47826,788
47834,791
47841,788
47849,790
47857,791
47864,770
47874,800
47882,956
47890,1120
47897,1124
47905,884
47912,630
47920,666
47928,700
47935,732
47943,742
47950,753
47958,765
47966,774
47974,781
47981,788
47989,790
47996,795
48004,799
48012,805
48033,827
48040,838
48048,852
48056,869
48063,885
48071,899
48079,909
48086,917
48094,919
48102,916
48232,852
48240,856
48247,858
48255,857
48263,855
48270,854
48278,851
48286,847
48293,837
48301,837
48308,834
48316,834
48324,836
48331,839
48339,839
48347,838
48354,838
48364,826
48372,812
48379,804
48387,801
48395,798
48402,801
48410,800
48418,805
48425,807
48433,811
48440,814
48448,814
48456,784
48463,849
48471,1038
48614,844
48622,844
48630,845
48637,848
48645,848
48653,857
48660,857
48668,860
48676,857
48683,851
48691,837
48699,823
48706,812
48714,799
48721,780
48729,757
48737,744
48744,735
48752,733
48760,724
48767,722
48775,717
48783,719
48790,723
48798,724
48805,729
48813,734
48821,740
48828,744
48836,756
48844,757
48882,454
48890,395
48898,395
48905,423
48913,460
48921,501
48928,541
48936,583
48944,617
48951,647
48959,673
49089,867
49097,835
49118,880
49126,887
49133,904
49141,914
49148,923
49156,928
49164,935
49171,940
49179,940
49187,946
49194,948
49202,953
49210,956
49217,963
49225,965
49233,973
49240,981
49248,991
49255,999
49263,1002
49271,995
49278,987
49286,978
49294,956
49301,942
49309,924
49317,912
49324,894
49332,881
49339,868
49347,863
49355,859
49362,853
49492,872
49502,874
49510,867
49518,866
49525,866
49533,865
49540,858
49548,851
49556,847
49563,836
49571,826
49579,833
49586,832
49594,837
49602,837
49623,833
49630,827
49638,814
49646,907
49653,1104
49661,1239
49669,1131
49676,807
49684,705
49692,727
49699,752
49707,755
49714,758
49722,767
49730,775
49737,781
49745,784
49753,792
49760,794
49768,801
49776,804
49906,862
49913,852
49921,841
49929,831
49936,830
49944,819
49952,822
49959,826
49967,833
49975,839
49982,852
49992,858
50000,858
50007,859
50015,870
50023,877
50030,889
50038,898
50046,904
50053,915
50061,921
50068,930
50076,932
50084,941
50091,950
50099,967
50107,980
50128,1014
50135,1025
50143,1032
50151,1038
50158,1049
50166,1053
50173,1059
50304,1148
50311,1147
50319,1155
50327,1162
50334,1172
50342,1176
50350,1184
50357,1184
50365,1188
50372,1186
50380,1187
50388,1192
50395,1196
50403,1204
50411,1205
50418,1215
50426,1223
50434,1231
50441,1238
50449,1243
50456,1238
50466,1224
50474,1199
50482,1180
50489,1165
50497,1149
50640,1049
50648,1035
50656,1018
50663,1006
50671,992
50678,982
50686,969
50694,958
50702,950
50709,938
50717,925
50724,907
50732,894
50740,881
50747,865
50755,850
50763,841
50770,831
50778,818
50786,816
50793,807
50801,806
50808,803
50816,776
50824,797
50831,937
50839,1099
50846,1096
50854,913
50862,607
50870,615
50877,645
51007,749
51014,761
51022,765
51030,766
51037,768
51045,757
51053,748
51060,727
51068,711
51078,684
51085,656
51093,631
51101,613
51108,598
51116,596
51124,589
51145,581
51152,587
51160,593
51167,605
51175,616
51183,627
51191,633
51198,643
51206,646
51213,652
51221,659
51229,653
51236,648
51244,652
51252,657
51259,661
51267,671
51275,671
51282,674
51290,677
51420,1027
51428,1050
51436,875
51443,558
51451,559
51458,584
51466,607
51474,626
51481,635
51489,647
51497,658
51504,662
51512,663
51520,666
51527,668
51535,676
51542,678
51550,681
51558,690
51568,690
51575,685
51583,693
51590,701
51598,719
51606,733
51613,745
51621,753
51629,752
51650,737
51657,719
51665,699
51673,677
51681,661
51688,644
51696,634
51704,629
51834,694
51841,692
51849,701
51857,706
51864,712
51872,714
51880,717
51887,712
51895,706
51903,706
51910,701
51918,700
51925,695
51933,702
51941,702
51948,705
51956,707
51964,714
51971,719
51979,718
51987,707
51994,794
52002,985
52009,1104
52017,1055
52025,744
52032,615
52040,642
52048,667
52058,698
52065,700
52073,707
52216,909
52224,904
52231,900
52239,889
52246,877
52254,864
52262,851
52269,838
52277,832
52285,826
52292,820
52300,822
52308,825
52315,828
52323,830
52331,833
52338,833
52346,837
52353,841
52361,840
52369,846
52376,845
52384,846
52392,847
52399,851
52407,847
52415,850
52422,847
52430,843
52437,844
52445,843
52453,848
52460,853
52468,859
52598,865
52606,1014
52613,1198
52621,1229
52629,1038
52636,739
52644,725
52651,751
52659,772
52667,784
52677,782
52684,786
52692,786
52700,790
52721,800
52728,802
52736,802
52744,795
52751,796
52759,799
52767,806
52774,810
52782,824
52790,829
52797,838
52805,847
52813,853
52820,847
52828,835
52835,827
52843,813
52851,806
52858,786
52866,775
52874,756
53003,788
53011,793
53018,794
53026,791
53034,794
53041,789
53049,789
53057,785
53064,785
53072,783
53080,778
53087,780
53095,784
53103,796
53110,801
53118,803
53125,800
53133,802
53141,800
53148,802
53156,796
53166,790
53174,775
53181,774
53189,776
53197,781
53204,784
53225,798
53233,805
53240,782
53248,849
53256,1025
53263,1200
53271,1176
53279,927
53408,898
53416,903
53424,906
53431,914
53439,918
53447,929
53454,937
53462,939
53469,936
53477,928
53485,918
53492,907
53500,890
53508,863
53515,847
53523,827
53531,813
53538,801
53546,792
53553,787
53561,788
53569,790
53576,790
53584,792
53592,792
53599,794
53607,790
53615,796
53622,797
53630,798
53637,798
53645,800
53655,798
53799,842
53807,837
53814,830
53822,822
53830,815
53837,806
53845,799
53853,793
53860,779
53868,773
53875,767
53883,766
53891,761
53899,762
53906,757
53914,754
53921,753
53929,730
53937,755
53944,886
53952,1089
53960,1118
53967,962
53975,665
53983,638
53990,664
53998,692
54005,699
54013,708
54021,721
54028,729
54036,736
54044,739
54174,870
54182,865
54189,847
54197,829
54205,807
54212,782
54220,770
54228,769
54235,765
54243,752
54250,748
54258,744
54266,745
54276,745
54283,743
54304,744
54312,756
54320,766
54327,776
54335,784
54342,791
54350,802
54358,808
54365,816
54373,821
54381,826
54388,825
54396,826
54404,831
54411,830
54419,834
54427,837
54434,841
54442,839
54449,838
54457,835
54465,834
54595,856
54602,858
54610,857
54618,855
54625,826
54633,887
54641,1057
54648,1240
54656,1178
54663,937
54671,740
54679,753
54686,778
54694,787
54702,786
54709,795
54717,804
54725,808
54732,812
54740,809
54747,810
54755,810
54765,815
54773,807
54780,808
54788,811
54809,830
54817,842
54824,849
54832,859
54840,865
54847,874
54855,874
54862,868
54870,858
55000,771
55008,769
55015,772
55023,772
55031,774
55038,771
55046,772
55053,771
55061,771
55069,771
55076,768
55084,770
55092,768
55099,769
55107,766
55115,770
55122,769
55130,779
55137,786
55145,790
55153,793
55160,796
55168,800
55176,796
55183,795
55191,790
55199,789
55206,786
55214,789
55221,787
55229,790
55237,792
55380,828
55388,835
55398,844
55405,842
55413,845
55421,849
55428,856
55436,863
55444,872
55451,889
55459,900
55466,915
55474,926
55482,942
55489,955
55497,961
55505,958
55512,948
55520,936
55528,923
55535,908
55543,883
55551,864
55558,850
55566,832
55574,813
55581,807
55589,806
55596,807
55604,806
55612,808
55619,809
55627,812
55635,815
55764,839
55772,841
55780,839
55787,839
55795,834
55802,828
55810,822
55818,813
55825,798
55833,798
55841,795
55848,797
55856,794
55863,794
55887,791
55895,749
55902,792
55910,955
55918,1110
55925,1079
55933,835
55940,590
55948,627
55956,656
55963,687
55971,706
55979,713
55986,726
55994,735
56002,743
56009,743
56017,743
56024,742
56032,751
56040,755
56047,757
56178,784
56185,774
56193,762
56201,753
56208,745
56216,745
56224,744
56231,744
56239,742
56247,749
56254,753
56262,754
56269,759
56277,762
56285,768
56292,771
56300,779
56308,778
56315,780
56323,781
56331,784
56338,780
56346,778
56353,782
56363,785
56371,784
56392,795
56400,804
56407,808
56415,815
56423,817
56430,824
56438,824
56445,828
56453,834
56461,841
56591,832
56599,848
56607,856
56614,858
56622,853
56630,854
56637,854
56645,850
56652,849
56660,843
56668,841
56675,838
56683,840
56691,839
56698,845
56706,849
56714,862
56721,870
56729,874
56736,873
56744,868
56752,863
56759,858
56767,851
56775,837
56782,821
56790,804
56798,797
56805,789
56813,787
56820,785
56828,786
56972,827
56979,827
56987,826
56997,820
57005,805
57012,795
57020,787
57027,778
57035,773
57043,766
57050,761
57058,754
57066,751
57073,741
57081,742
57089,743
57096,745
57104,748
57111,755
57119,726
57127,750
57134,912
57142,1109
57150,1149
57157,991
57165,674
57172,644
57180,663
57188,688
57195,710
57203,723
57211,736
57218,749
57226,757
57356,890
57363,883
57371,867
57379,856
57386,840
57394,820
57402,806
57409,794
57417,786
57425,776
57432,776
57440,777
57447,779
57455,777
57476,781
57486,792
57494,792
57501,796
57509,801
57517,814
57524,821
57532,828
57540,831
57547,835
57555,834
57562,837
57570,838
57578,843
57585,849
57593,855
57601,858
57608,863
57616,860
57624,853
57631,853
57639,851
57769,755
57777,759
57785,767
57792,782
57800,787
57808,793
57815,801
57823,804
57830,811
57838,807
57846,805
57853,804
57861,805
57869,807
57876,808
57884,813
57892,818
57899,824
57907,834
57914,849
57922,864
57930,879
57937,887
57945,887
57953,884
57960,879
57984,811
57991,794
57999,780
58007,765
58014,752
58022,743
58030,740
58037,740
58045,741
58052,744
58183,798
58190,803
58198,804
58206,805
58214,807
58221,807
58229,803
58236,801
58244,798
58252,794
58259,788
58267,784
58275,784
58282,784
58290,784
58298,784
58305,784
58313,786
58320,790
58328,774
58336,784
58343,906
58351,1085
58359,1140
58366,1052
58374,750
58382,696
58389,707
58397,729
58404,748
58412,756
58420,766
58563,908
58570,902
58578,892
58586,882
58596,863
58603,839
58611,824
58619,818
58626,815
58634,816
58642,816
58649,818
58657,822
58664,824
58672,826
58680,831
58687,836
58695,837
58703,841
58710,844
58718,847
58726,847
58733,850
58741,849
58749,847
58756,848
58764,850
58772,845
58779,842
58787,842
58794,839
58802,834
58810,831
58817,832
58947,844
58955,848
58962,822
58970,842
58977,975
58985,1141
58993,1170
59000,1035
59008,752
59016,722
59023,734
59031,748
59039,764
59046,769
59067,787
59075,787
59085,782
59093,771
59100,764
59108,763
59116,761
59123,766
59131,770
59139,775
59146,781
59154,792
59161,801
59169,812
59177,822
59184,825
59192,824
59200,818
59207,810
59215,800
59223,787
59230,771
59361,790
59368,791
59376,791
59383,793
59391,794
59399,787
59406,788
59414,786
59422,787
59429,784
59437,781
59445,775
59452,773
59460,776
59468,781
59475,787
59483,794
59491,798
59498,799
59506,798
59513,798
59521,796
59529,795
59536,794
59544,789
59552,787
59573,794
59583,797
59590,798
59598,800
59606,811
59613,793
59621,833
59628,983
59636,1148
59644,1175
59774,897
59782,896
59789,899
59797,903
59805,906
59812,911
59820,921
59828,926
59835,927
59843,920
59851,911
59858,899
59866,883
59873,867
59881,848
59889,831
59896,817
59904,805
59912,797
59919,791
59927,788
59935,786
59942,786
59950,787
59957,788
59965,789
59973,791
59980,794
59988,801
59996,802
60003,800
