Tempo(ms),Leitura(ECG)
8,719
16,681
23,662
31,661
39,659
46,662
54,670
61,680
69,688
77,697
84,705
92,712
100,718
111,732
119,720
127,705
134,753
142,869
150,906
157,792
165,483
173,412
180,445
188,467
195,477
203,478
334,625
341,647
349,661
357,674
364,704
372,736
379,771
387,798
395,825
402,848
410,874
418,885
425,902
446,951
454,968
462,987
469,1009
477,1028
485,1048
492,1057
500,1065
508,1079
515,1092
523,1097
531,1101
538,1105
546,1108
553,1109
561,1110
569,1112
576,1108
584,1107
592,1105
599,1102
607,1095
615,1087
622,1078
630,1076
637,1077
645,1077
653,1083
660,1076
670,1068
678,1053
686,1041
693,1033
701,1024
708,1013
716,1003
724,999
731,994
739,990
747,988
754,982
762,979
770,976
777,973
785,975
792,966
800,1012
930,901
952,890
959,888
967,883
975,881
982,877
990,873
997,874
1005,873
1013,872
1021,870
1028,863
1036,855
1043,843
1051,830
1059,814
1066,797
1074,780
1082,764
1089,747
1097,736
1104,725
1112,719
1120,715
1127,708
1135,709
1143,707
1150,708
1158,711
1166,713
1173,714
1181,716
1188,718
1196,718
1204,718
1214,720
1221,713
1229,708
1237,705
1244,708
1252,707
1259,711
1267,710
1275,707
1282,709
1290,709
1298,714
1305,724
1313,735
1321,742
1328,748
1471,1029
1479,1099
1486,998
1494,719
1502,675
1509,715
1517,755
1524,777
1532,785
1540,798
1548,804
1555,811
1563,819
1570,819
1578,822
1586,827
1593,831
1601,834
1609,837
1616,843
1624,848
1631,852
1639,857
1647,863
1654,874
1662,882
1670,890
1677,898
1685,899
1693,895
1700,890
1708,881
1715,866
1723,856
1731,843
1741,824
1748,803
1756,788
1764,781
1771,776
1779,771
1786,768
1794,773
1802,780
1809,783
1817,786
1947,821
1955,820
1976,816
1984,820
1991,818
1999,816
2007,810
2014,800
2022,792
2029,786
2037,780
2045,771
2052,762
2060,759
2068,760
2075,756
2083,755
2091,753
2098,752
2106,750
2114,752
2121,760
2129,753
2136,801
2144,923
2152,1044
2159,1014
2167,801
2175,622
2182,656
2190,697
2198,726
2205,728
2213,738
2220,751
2228,757
2236,761
2243,764
2251,769
2259,774
2269,775
2276,771
2284,773
2291,776
2299,782
2307,792
2314,803
2322,811
2452,797
2459,798
2480,803
2488,807
2496,812
2504,817
2511,821
2519,828
2526,834
2534,839
2542,841
2549,844
2557,848
2565,850
2572,845
2580,845
2587,847
2595,846
2603,843
2610,840
2618,836
2626,836
2633,836
2641,843
2649,851
2656,857
2664,861
2671,864
2679,858
2687,855
2694,852
2702,849
2710,839
2717,837
2725,837
2733,834
2740,833
2748,834
2755,833
2763,835
2771,833
2778,834
2786,838
2796,863
2804,952
2811,1091
2819,1124
2826,984
2956,868
2964,871
2985,882
2993,884
3000,887
3008,890
3016,887
3023,881
3031,873
3039,859
3046,844
3054,830
3062,813
3069,798
3077,780
3085,764
3092,752
3100,745
3107,738
3115,735
3123,730
3130,726
3138,729
3146,732
3153,733
3161,736
3169,740
3176,740
3184,739
3191,744
3199,745
3207,750
3214,753
3222,755
3230,757
3237,760
3245,761
3253,761
3260,760
3268,757
3275,754
3283,758
3291,764
3298,770
3306,780
3314,787
3324,791
3331,783
3339,777
3469,1139
3490,704
3498,738
3506,783
3513,811
3521,815
3528,826
3536,838
3544,846
3551,852
3559,858
3567,863
3574,861
3582,867
3590,868
3597,869
3605,873
3613,878
3620,881
3628,889
3635,894
3643,902
3651,913
3658,920
3666,924
3674,928
3681,927
3689,920
3697,910
3704,899
3712,887
3719,876
3727,862
3735,848
3742,833
3750,823
3758,815
3765,811
3773,804
3781,806
3788,804
3796,806
3803,810
3811,812
3819,816
3826,815
3834,816
3964,847
3974,850
3995,821
4003,815
4011,806
4018,796
4026,789
4033,787
4041,787
4049,785
4056,780
4064,777
4072,776
4079,780
4087,782
4095,778
4102,805
4110,894
4118,1025
4125,1058
4133,919
4140,650
4148,647
4156,692
4163,727
4171,738
4179,741
4186,747
4194,754
4202,758
4209,762
4217,764
4224,766
4232,771
4240,774
4247,778
4255,783
4263,787
4270,795
4278,803
4286,812
4293,821
4301,830
4308,838
4316,845
4324,853
4331,857
4339,855
4469,808
4477,812
4498,820
4505,823
4515,824
4523,821
4531,819
4538,821
4546,823
4554,827
4561,830
4569,829
4576,829
4584,832
4592,835
4599,839
4607,850
4615,862
4622,867
4630,871
4638,870
4645,870
4653,862
4660,861
4668,857
4676,852
4683,854
4691,854
4699,856
4706,854
4714,854
4722,853
4729,854
4737,858
4744,865
4752,859
4760,917
4767,1044
4775,1143
4783,1099
4790,844
4798,696
4805,743
4813,790
4821,817
4828,817
4836,822
4844,830
4974,911
4981,915
5002,891
5010,877
5018,860
5025,841
5033,823
5043,798
5051,772
5058,753
5066,742
5074,733
5081,728
5089,727
5096,729
5104,733
5112,737
5119,736
5127,742
5135,743
5142,748
5150,753
5158,755
5165,756
5173,756
5180,755
5188,758
5196,758
5203,757
5211,756
5219,758
5226,754
5234,750
5242,753
5249,757
5257,760
5264,771
5272,780
5280,781
5287,784
5295,783
5303,783
5310,782
5318,777
5325,771
5333,771
5341,776
5348,778
5356,782
5486,804
5506,826
5514,832
5522,835
5529,843
5537,848
5545,850
5552,858
5560,863
5570,870
5578,867
5585,872
5593,877
5601,885
5608,896
5616,908
5623,919
5631,924
5639,926
5646,925
5654,916
5662,908
5669,899
5677,888
5685,874
5692,863
5700,851
5707,839
5715,832
5723,824
5730,820
5738,818
5746,818
5753,820
5761,822
5769,823
5776,826
5784,827
5791,828
5799,833
5807,831
5814,831
5822,837
5830,835
5837,832
5845,831
5852,828
5860,827
5991,840
6012,833
6019,829
6027,820
6035,815
6042,809
6050,812
6058,800
6065,832
6073,935
6081,1067
6088,1078
6098,779
6106,620
6114,657
6121,697
6129,720
6136,726
6144,736
6152,745
6159,750
6167,754
6175,757
6182,764
6190,769
6198,769
6205,775
6213,781
6220,784
6228,787
6236,793
6243,801
6251,812
6259,820
6266,826
6274,837
6281,847
6289,854
6297,856
6304,850
6312,843
6320,835
6327,822
6335,813
6343,806
6350,794
6358,780
6488,819
6495,820
6516,812
6524,811
6532,815
6539,818
6547,825
6555,838
6562,848
6570,851
6578,858
6585,859
6593,856
6600,856
6608,852
6616,846
6626,846
6633,834
6641,829
6649,831
6656,833
6664,835
6671,838
6679,839
6687,844
6694,850
6702,844
6710,919
6717,1061
6725,1143
6733,1076
6740,790
6748,655
6755,727
6763,771
6771,807
6778,822
6786,827
6794,834
6801,841
6809,843
6817,843
6824,846
6832,847
6839,850
6847,854
6855,858
6862,858
6992,839
7000,828
7021,804
7029,790
7036,780
7044,773
7052,772
7060,767
7067,760
7075,762
7082,762
7090,759
7098,755
7105,755
7113,756
7121,755
7128,750
7136,751
7143,748
7153,743
7161,731
7169,725
7176,727
7184,727
7192,735
7199,745
7207,752
7214,758
7222,762
7230,759
7237,759
7245,757
7253,758
7260,759
7268,750
7276,753
7283,757
7291,757
7298,760
7306,761
7314,766
7321,772
7329,775
7337,774
7344,807
7352,909
7360,1051
7367,1076
7497,843
7505,854
7526,865
7533,864
7541,878
7548,893
7556,902
7564,911
7571,913
7579,915
7587,909
7594,899
7602,890
7610,881
7617,870
7625,855
7633,844
7640,830
7648,822
7655,819
7663,812
7671,809
7681,810
7688,804
7696,802
7704,805
7711,807
7719,811
7726,814
7734,819
7742,825
7749,826
7757,827
7765,829
7772,833
7780,837
7788,837
7795,831
7803,833
7810,829
7818,829
7826,824
7833,820
7841,825
7849,835
7856,845
7864,849
7871,850
7879,850
8009,1049
8030,929
8038,715
8045,728
8053,755
8061,771
8068,772
8076,778
8083,780
8091,776
8099,780
8106,779
8114,775
8122,772
8129,772
8137,775
8145,777
8152,780
8160,782
8168,788
8175,792
8183,799
8190,809
8198,815
8208,828
8216,829
8223,828
8231,828
8239,824
8246,817
8254,810
8262,801
8269,791
8277,780
8284,771
8292,758
8300,749
8307,745
8315,749
8323,751
8330,749
8338,747
8346,752
8353,757
8361,758
8368,762
8376,766
8384,771
8514,826
8535,841
8543,841
8551,840
8558,845
8566,848
8574,847
8581,845
8589,841
8596,838
8604,841
8612,845
8619,847
8627,846
8635,852
8642,851
8650,851
8658,862
8665,858
8673,916
8680,1045
8688,1174
8696,1130
8703,898
8711,735
8719,759
8726,795
8736,820
8744,814
8751,818
8759,823
8767,823
8774,825
8782,830
8790,834
8797,840
8805,844
8812,848
8820,851
8828,854
8835,861
8843,868
8851,874
8858,879
8866,884
8874,897
8881,901
9011,808
9019,813
9040,810
9048,809
9055,799
9063,795
9071,794
9078,788
9086,783
9094,782
9101,774
9109,769
9117,766
9124,764
9132,760
9139,758
9147,757
9155,758
9162,759
9170,754
9178,751
9185,749
9193,747
9201,749
9208,758
9216,769
9223,772
9231,777
9239,782
9246,778
9254,778
9264,776
9272,767
9279,757
9287,753
9294,758
9302,760
9310,761
9317,764
9325,769
9333,772
9340,777
9348,780
9355,789
9363,798
9371,862
9378,1000
9386,1107
9516,842
9524,847
9544,859
9552,866
9560,877
9567,888
9575,903
9583,913
9590,919
9598,922
9606,923
9613,922
9621,908
9629,899
9636,891
9644,872
9652,858
9659,848
9667,835
9674,828
9682,825
9690,823
9697,815
9705,818
9713,818
9720,822
9728,826
9736,830
9743,835
9751,837
9758,836
9766,836
9774,840
9781,838
9791,837
9799,829
9807,826
9814,824
9822,817
9829,821
9837,825
9845,828
9852,825
9860,825
9868,828
9875,829
9883,821
9891,820
9898,829
10029,843
10050,842
10058,838
10065,897
10073,1016
10080,1101
10088,1040
10096,786
10103,642
10111,688
10119,729
10126,755
10134,759
10142,763
10149,769
10157,768
10165,770
10172,773
10180,775
10187,773
10195,775
10203,782
10210,785
10218,786
10226,789
10233,793
10241,798
10249,807
10256,816
10264,829
10271,836
10279,846
10287,850
10297,849
10304,837
10434,789
10442,795
10449,797
10457,799
10465,799
10472,801
10480,800
10487,800
10495,801
10503,804
10511,802
10518,802
10526,798
10533,793
10554,796
10562,798
10570,804
10577,823
10585,832
10593,837
10600,843
10608,846
10616,849
10623,849
10631,846
10639,844
10646,843
10654,843
10661,841
10669,841
10677,846
10684,849
10692,849
10700,849
10707,850
10837,870
10845,871
10852,870
10860,868
10868,869
10875,871
10883,872
10891,873
10898,878
10908,879
10916,874
10923,878
10931,883
10939,890
10946,902
10954,904
10962,907
10969,903
10977,897
10984,888
10992,878
11000,863
11007,847
11015,828
11023,811
11030,799
11038,793
11059,781
11067,778
11074,775
11082,774
11090,773
11097,769
11105,768
11113,769
11120,770
11251,771
11258,769
11266,768
11274,772
11281,779
11289,788
11297,789
11304,790
11312,787
11320,786
11327,784
11335,787
11342,777
11350,767
11358,765
11365,768
11373,769
11381,764
11388,766
11396,769
11406,773
11413,773
11421,761
11429,793
11436,925
11444,1100
11452,1115
11459,966
11467,701
11474,685
11482,718
11490,746
11633,886
11641,896
11648,907
11656,913
11663,909
11671,905
11679,900
11686,890
11694,880
11702,869
11709,856
11717,840
11725,831
11732,823
11740,827
11748,819
11755,811
11763,814
11770,820
11778,823
11786,827
11793,827
11801,828
11809,831
11816,835
11824,838
11832,839
11839,842
11847,840
11854,841
11862,843
11870,843
11877,841
11885,848
12017,863
12025,857
12032,855
12040,857
12048,856
12055,854
12063,852
12071,850
12078,848
12086,851
12093,843
12101,854
12109,965
12116,1140
12138,804
12145,697
12153,719
12161,751
12168,765
12176,765
12183,771
12191,774
12199,775
12206,775
12214,779
12222,776
12229,776
12237,777
12245,782
12252,781
12260,782
12268,786
12275,792
12283,799
12290,808
12298,818
12429,763
12436,763
12444,762
12451,764
12459,767
12467,769
12474,772
12482,770
12490,771
12497,771
12505,773
12515,776
12522,766
12530,761
12538,760
12545,759
12553,762
12561,766
12568,767
12576,777
12583,786
12591,795
12599,798
12606,804
12614,801
12622,799
12643,798
12650,798
12658,801
12666,807
12673,815
12681,825
12688,827
12696,827
12704,829
12711,834
12841,883
12849,886
12856,886
12864,886
12872,883
12879,884
12887,885
12894,890
12902,891
12910,895
12917,899
12925,908
12933,914
12940,915
12948,923
12956,932
12963,931
12971,924
12978,913
12986,902
12994,889
13004,869
13011,839
13019,816
13027,801
13034,789
13042,783
13049,778
13057,776
13065,773
13072,770
13080,773
13223,836
13231,833
13239,825
13247,811
13254,801
13262,792
13269,778
13277,771
13285,765
13292,761
13300,756
13308,756
13315,752
13323,748
13331,749
13338,751
13346,751
13353,759
13361,853
13369,1011
13376,1055
13384,968
13392,657
13399,591
13407,637
13415,662
13422,694
13430,711
13437,725
13445,735
13453,740
13460,748
13468,753
13598,873
13606,867
13614,854
13624,833
13631,806
13639,783
13647,770
13654,761
13662,756
13669,752
13677,753
13685,753
13692,756
13700,756
13708,757
13729,775
13736,780
13744,786
13752,795
13759,803
13767,811
13774,817
13782,821
13790,824
13797,823
13805,829
13813,831
13820,842
13828,847
13836,852
13843,853
13851,857
13859,858
13866,855
13874,854
13881,852
13889,846
14019,747
14027,768
14035,793
14042,813
14050,817
14057,826
14065,832
14073,835
14080,836
14088,837
14096,834
14103,832
14113,833
14121,825
14128,823
14136,824
14144,829
14151,836
14159,845
14167,854
14174,862
14182,872
14189,881
14197,887
14205,887
14212,885
14234,859
14241,842
14249,819
14257,799
14264,781
14272,763
14279,752
14287,746
14295,743
14302,738
14433,775
14440,776
14448,773
14456,769
14463,768
14471,771
14479,777
14486,784
14494,791
14501,790
14509,789
14517,790
14524,791
14532,788
14540,785
14547,779
14555,774
14563,778
14570,781
14578,778
14585,779
14593,779
14601,779
14611,784
14618,784
14626,769
14634,804
14641,940
14649,1123
14657,1131
14664,987
14672,725
14815,848
14823,856
14830,867
14838,876
14846,888
14853,895
14861,902
14869,903
14876,901
14884,895
14891,886
14899,874
14907,859
14914,844
14922,828
14930,818
14937,810
14945,806
14953,806
14960,807
14968,808
14975,810
14983,812
14991,817
14998,820
15006,821
15014,824
15021,825
15029,827
15037,827
15044,829
15052,826
15059,827
15067,828
15197,864
15205,862
15212,857
15222,850
15230,831
15238,821
15245,819
15253,817
15260,817
15268,816
15276,814
15283,816
15291,819
15299,824
15320,876
15328,1025
15335,1178
15343,1119
15350,908
15358,704
15366,705
15373,733
15381,744
15389,744
15396,749
15404,755
15412,760
15419,762
15427,762
15434,762
15442,765
15450,763
15457,764
15465,767
15473,770
15602,799
15610,788
15617,775
15625,768
15633,765
15640,764
15648,758
15656,760
15663,765
15671,768
15679,772
15686,773
15694,774
15701,777
15711,780
15719,771
15727,769
15734,769
15742,770
15750,776
15757,780
15765,781
15772,782
15780,785
15788,788
15795,792
15803,795
15824,803
15832,807
15839,810
15847,819
15855,825
15862,829
15870,828
15877,830
15885,840
16015,883
16022,883
16030,886
16038,881
16045,902
16053,995
16061,1158
16068,1199
16076,1084
16084,809
16091,754
16099,778
16106,810
16114,818
16122,819
16129,824
16137,828
16145,832
16152,835
16160,835
16168,835
16175,838
16183,839
16190,841
16198,845
16208,846
16216,842
16223,842
16231,848
16239,857
16246,864
16254,876
16397,813
16405,810
16412,809
16420,804
16428,800
16435,793
16443,789
16451,784
16458,779
16466,775
16474,773
16481,768
16489,766
16497,766
16504,762
16512,759
16519,755
16527,756
16535,754
16542,754
16550,755
16558,753
16565,753
16573,754
16581,752
16588,747
16596,750
16603,757
16611,764
16619,774
16626,781
16634,783
16642,784
16649,781
16779,1099
16787,1072
16794,873
16802,626
16810,669
16820,728
16827,757
16835,774
16843,782
16850,788
16858,795
16866,800
16873,801
16881,807
16902,823
16909,830
16917,837
16925,846
16933,860
16940,870
16948,881
16955,891
16963,907
16971,919
16978,933
16986,940
16994,945
17001,945
17009,937
17017,925
17024,914
17032,905
17039,889
17047,871
17055,852
17184,858
17192,857
17200,857
17207,853
17215,848
17223,842
17230,837
17238,836
17246,833
17253,834
17261,840
17268,843
17276,841
17284,841
17291,835
17299,831
17307,826
17316,817
17324,806
17332,798
17339,795
17347,797
17355,797
17362,797
17370,801
17378,801
17385,805
17406,808
17414,835
17422,946
17430,1084
17437,1062
17445,923
17452,620
17460,614
17468,672
17598,832
17606,843
17613,855
17621,862
17629,870
17636,878
17644,880
17651,881
17659,869
17667,859
17674,848
17682,835
17690,817
17697,801
17705,781
17712,769
17720,758
17728,753
17735,747
17743,745
17751,747
17758,745
17766,749
17774,751
17781,753
17789,758
17796,765
17806,764
17814,758
17822,760
17829,767
17837,769
17845,771
17988,824
17996,828
18004,831
18011,834
18019,840
18027,844
18034,850
18042,851
18050,868
18057,962
18065,1116
18073,1144
18080,1059
18088,751
18095,692
18103,745
18111,779
18118,810
18126,822
18134,834
18141,842
18149,851
18157,855
18164,858
18172,858
18180,859
18187,862
18195,865
18202,869
18210,868
18218,868
18225,874
18233,879
18363,810
18371,805
18378,803
18386,800
18394,793
18401,792
18409,788
18419,788
18427,783
18434,775
18442,777
18449,779
18457,781
18465,785
18472,789
18493,792
18501,787
18509,781
18516,773
18524,762
18532,761
18540,759
18547,762
18555,765
18562,770
18570,772
18578,772
18585,767
18593,764
18601,758
18608,753
18616,749
18624,746
18631,745
18639,745
18646,744
18777,753
18784,763
18792,769
18800,776
18807,783
18815,786
18823,785
18830,789
18838,792
18845,791
18853,794
18861,798
18868,804
18876,807
18884,812
18891,819
18899,831
18906,840
18916,851
18924,851
18932,853
18939,849
18947,844
18955,840
18962,833
18970,822
18977,809
18998,778
19006,768
19014,769
19021,773
19029,776
19037,782
19044,791
19052,795
19060,799
19189,868
19197,867
19204,862
19212,858
19220,854
19227,847
19235,847
19243,849
19250,859
19258,862
19266,863
19273,862
19281,857
19289,852
19296,846
19304,841
19311,839
19319,831
19327,828
19334,827
19342,830
19350,831
19357,828
19365,827
19373,829
19380,830
19388,835
19395,830
19405,940
19413,1115
19421,1187
19428,1093
19572,848
19579,848
19587,847
19594,849
19602,849
19610,850
19617,853
19625,854
19633,852
19640,846
19648,838
19656,824
19663,811
19671,794
19679,777
19686,758
19694,744
19701,733
19709,728
19717,721
19724,716
19732,718
19740,722
19747,725
19755,728
19763,731
19770,733
19778,736
19785,739
19793,741
19801,744
19808,746
19816,749
19824,750
19954,797
19961,803
19969,817
19977,820
19984,820
19992,822
19999,823
20007,824
20015,819
20025,810
20032,799
20040,790
20048,788
20055,789
20076,792
20084,798
20091,805
20099,813
20107,824
20114,828
20122,858
20130,969
20137,1154
20145,1193
20153,1091
20160,824
20168,759
20176,781
20183,808
20191,816
20198,823
20206,833
20214,839
20221,843
20229,848
20359,942
20366,939
20374,930
20382,920
20389,897
20397,876
20405,858
20412,840
20420,825
20428,817
20435,806
20443,799
20450,799
20458,800
20466,802
20473,799
20481,801
20489,802
20496,804
20504,801
20514,802
20521,793
20529,789
20537,785
20544,785
20552,790
20560,790
20581,795
20588,793
20596,791
20604,791
20611,788
20619,783
20627,778
20634,777
20642,776
20772,801
20780,799
20788,791
20795,786
20803,784
20811,785
20818,783
20826,777
20834,778
20841,781
20849,787
20856,788
20864,793
20872,868
20879,1022
20887,1129
20895,1059
20902,817
20910,686
20917,706
20925,736
20933,749
20940,752
20948,762
20956,770
20963,779
20971,783
20979,785
20986,787
20994,792
21004,796
21011,790
21154,834
21162,823
21170,816
21177,810
21185,809
21193,808
21200,812
21208,816
21216,820
21223,823
21231,832
21239,835
21246,839
21254,842
21262,842
21269,843
21277,844
21284,846
21292,847
21300,846
21307,846
21315,847
21323,847
21330,846
21338,843
21346,845
21353,842
21361,842
21368,842
21376,842
21384,842
21391,838
21399,839
21407,840
21537,843
21544,841
21552,839
21560,837
21567,834
21575,835
21582,840
21590,832
21598,865
21605,983
21613,1132
21623,1102
21631,877
21638,691
21659,757
21667,763
21675,764
21682,770
21690,771
21698,771
21705,769
21713,770
21721,770
21728,769
21736,770
21744,772
21751,773
21759,777
21766,782
21774,784
21782,794
21789,802
21797,813
21805,818
21812,828
21942,757
21949,762
21957,767
21965,772
21972,774
21980,776
21988,776
21995,778
22003,780
22010,782
22018,780
22026,781
22033,783
22041,785
22049,783
22056,781
22064,784
22072,785
22079,786
22087,785
22094,786
22102,787
22112,784
22120,778
22127,775
22135,775
22143,775
22164,782
22171,798
22179,815
22187,826
22194,833
22202,838
22209,843
22217,849
22225,853
22232,853
22363,762
22370,759
22378,799
22386,835
22393,840
22401,845
22408,850
22416,855
22424,858
22431,854
22439,855
22447,859
22454,861
22462,859
22470,861
22477,863
22485,864
22492,868
22500,872
22508,878
22515,884
22523,890
22531,900
22538,908
22546,913
22554,914
22561,910
22569,902
22576,894
22584,883
22592,870
22599,852
22745,822
22753,820
22760,809
22768,802
22776,797
22783,793
22791,786
22798,781
22806,773
22814,767
22821,762
22829,759
22837,760
22844,767
22852,772
22860,773
22867,775
22875,771
22883,767
22890,762
22898,760
22905,753
22913,750
22921,747
22929,748
22936,750
22944,753
22951,752
22959,752
22967,753
22974,758
22982,763
22990,764
22997,783
23127,821
23135,825
23143,830
23150,833
23158,833
23165,835
23173,841
23181,846
23188,851
23196,859
23204,870
23211,880
23221,891
23229,877
23250,858
23257,851
23265,842
23273,831
23280,821
23288,812
23296,806
23303,802
23311,800
23318,798
23326,798
23334,798
23341,801
23349,810
23357,815
23364,820
23372,823
23380,828
23387,834
23395,836
23403,835
23410,838
23541,870
23548,867
23556,863
23564,858
23571,849
23579,841
23586,836
23594,833
23602,831
23609,828
23617,827
23625,824
23632,823
23640,822
23648,822
23655,822
23663,821
23670,910
23678,1088
23686,1184
23693,1086
23701,785
23711,690
23719,712
23726,738
23734,755
23755,777
23763,783
23770,785
23778,784
23786,783
23793,780
23801,782
23808,785
23816,784
23946,795
23954,782
23961,770
23969,761
23976,752
23984,749
23992,745
23999,747
24007,748
24015,748
24022,753
24030,758
24038,760
24045,761
24053,762
24060,767
24068,772
24076,774
24083,772
24091,773
24099,778
24106,778
24114,779
24122,777
24129,776
24137,778
24144,779
24152,781
24160,778
24167,779
24175,777
24183,776
24326,832
24334,843
24344,835
24351,877
24359,1018
24367,1176
24374,1168
24382,984
24389,744
24397,744
24405,778
24412,807
24420,815
24428,824
24435,835
24443,843
24451,849
24458,852
24466,855
24474,857
24481,857
24489,859
24496,862
24504,864
24512,869
24519,872
24527,876
24535,884
24542,893
24550,900
24558,906
24565,914
24573,918
24580,916
24710,825
24718,828
24725,829
24733,831
24741,827
24748,825
24756,824
24764,821
24771,815
24779,812
24787,805
24794,801
24802,793
24809,783
24833,764
24841,765
24848,767
24856,766
24864,764
24871,762
24879,756
24886,752
24894,749
24902,746
24909,737
24917,736
24925,738
24932,738
24940,739
24948,743
24955,740
24963,740
24971,743
24978,751
24986,749
24993,779
25124,781
25131,781
25139,782
25147,783
25154,786
25162,783
25170,788
25177,793
25185,801
25192,808
25200,815
25208,820
25215,823
25223,824
25231,821
25238,812
25246,801
25254,791
25261,778
25269,763
25276,750
25284,739
25292,729
25299,726
25307,721
25317,719
25338,710
25346,717
25353,726
25361,735
25368,749
25376,757
25384,765
25391,771
25399,778
25407,785
25537,855
25545,858
25552,861
25560,857
25568,852
25575,847
25583,842
25591,835
25598,826
25606,820
25614,820
25621,820
25629,819
25637,817
25644,815
25652,815
25659,816
25667,821
25675,814
25682,873
25690,1016
25698,1145
25705,1113
25713,881
25721,688
25728,710
25736,749
25743,772
25751,778
25759,784
25766,793
25910,897
25918,892
25925,878
25933,861
25943,841
25951,813
25958,784
25966,768
25974,754
25981,742
25989,736
25997,731
26004,727
26012,727
26019,729
26027,731
26035,735
26042,740
26050,744
26058,748
26065,745
26073,745
26081,746
26088,751
26096,752
26103,756
26111,757
26119,760
26126,761
26134,761
26142,759
26149,752
26157,750
26165,758
26294,806
26302,811
26310,815
26317,812
26325,833
26333,946
26340,1116
26348,1165
26355,1019
26363,712
26371,688
26378,725
26386,762
26394,769
26414,787
26422,795
26432,804
26440,808
26448,810
26455,815
26463,822
26470,830
26478,838
26486,846
26493,853
26501,863
26509,875
26516,883
26524,893
26532,904
26539,907
26547,912
26554,914
26562,910
26570,903
26577,893
26707,828
26714,831
26722,832
26730,826
26737,824
26745,824
26753,820
26760,816
26768,809
26776,803
26783,797
26791,796
26799,797
26806,800
26814,806
26822,810
26829,809
26837,808
26844,802
26852,799
26860,795
26867,793
26875,783
26883,777
26890,775
26898,774
26919,776
26929,771
26937,760
26944,757
26952,746
26960,775
26967,886
26975,1035
26982,1061
27112,795
27120,798
27127,802
27135,809
27143,814
27150,823
27158,826
27166,837
27173,844
27181,849
27188,852
27196,849
27204,843
27211,833
27219,827
27227,817
27234,804
27242,789
27250,777
27257,766
27265,758
27272,752
27280,750
27288,750
27295,751
27303,759
27311,761
27318,764
27326,770
27334,772
27341,774
27349,779
27492,819
27500,822
27507,827
27515,827
27523,828
27530,833
27540,838
27548,835
27556,836
27563,830
27571,885
27578,1028
27586,1152
27594,1123
27601,916
27609,657
27617,699
27624,747
27632,784
27640,819
27647,833
27655,846
27662,855
27670,862
27678,865
27685,871
27693,874
27701,875
27708,880
27716,882
27724,884
27731,889
27739,894
27746,901
27876,840
27884,834
27892,829
27899,823
27907,817
27914,818
27922,821
27930,821
27937,822
27945,822
27953,822
27960,819
27968,820
27976,820
27997,821
28004,819
28012,818
28020,817
28027,812
28037,810
28045,799
28053,790
28060,780
28068,773
28076,769
28083,763
28091,756
28099,755
28106,759
28114,759
28122,761
28129,761
28137,765
28144,764
28152,768
28160,772
28290,813
28297,815
28305,817
28313,820
28320,825
28328,829
28336,834
28343,837
28351,841
28359,846
28366,855
28374,866
28382,872
28389,878
28397,882
28404,879
28412,868
28420,856
28427,847
28435,836
28443,818
28450,804
28458,789
28466,778
28473,774
28481,772
28502,771
28509,771
28517,778
28527,791
28535,792
28542,795
28550,803
28558,809
28565,818
28573,822
28703,864
28711,863
28719,861
28726,858
28734,857
28742,853
28749,850
28757,851
28764,857
28772,841
28780,898
28787,1058
28795,1185
28803,1163
28810,914
28818,698
28826,718
28833,742
28841,767
28848,779
28856,789
28864,802
28871,809
28879,812
28887,815
28894,818
28902,820
28909,822
28917,826
28925,828
28932,835
29076,793
29084,782
29092,776
29099,768
29107,761
29114,758
29122,753
29130,751
29140,748
29147,740
29155,734
29163,732
29170,734
29178,735
29186,737
29193,736
29201,736
29208,737
29216,741
29224,740
29231,741
29239,744
29247,744
29254,744
29262,742
29270,740
29277,745
29285,754
29292,759
29300,763
29308,768
29315,771
29323,772
29331,770
29460,1146
29468,1028
29476,742
29483,695
29491,720
29499,750
29506,766
29514,772
29522,781
29529,786
29537,790
29545,792
29552,797
29560,798
29581,807
29588,814
29596,821
29604,833
29611,845
29619,851
29627,863
29637,874
29644,881
29652,888
29659,899
29667,904
29675,906
29682,905
29690,895
29698,886
29705,874
29713,860
29721,847
29728,835
29736,825
29743,817
29873,853
29881,849
29888,845
29896,843
29904,843
29911,841
29919,840
29926,837
29934,836
29942,832
29949,829
29957,829
29965,827
29972,824
29980,823
29988,820
29995,818
30003,818
30010,815
30018,812
30026,807
30033,810
30041,819
30049,827
30056,830
30064,830
30085,825
30093,819
30100,810
30108,804
30116,794
30126,784
30133,774
30141,767
30149,761
30156,759
30287,774
30294,779
30302,782
30309,785
30317,789
30325,790
30332,790
30340,793
30348,797
30355,801
30363,797
30371,801
30378,808
30386,820
30393,825
30401,832
30409,840
30416,851
30424,860
30432,859
30439,855
30447,848
30455,843
30462,830
30470,820
30477,804
30485,790
30493,777
30500,767
30508,761
30516,760
30523,761
30667,818
30674,823
30682,827
30689,829
30697,831
30705,834
30712,835
30720,838
30728,839
30735,840
30745,842
30753,838
30761,836
30768,840
30776,842
30783,843
30791,844
30799,848
30806,848
30814,850
30822,854
30829,854
30837,851
30845,847
30852,855
30860,864
30867,870
30875,871
30883,868
30890,863
30898,864
30906,862
30913,859
30921,855
31051,774
31058,793
31066,811
31074,812
31081,815
31089,823
31097,826
31104,827
31112,825
31119,826
31127,826
31135,827
31142,826
31150,827
31171,833
31179,830
31187,831
31194,832
31202,834
31209,838
31217,844
31225,850
31235,852
31242,840
31250,830
31258,818
31265,806
31273,795
31281,778
31288,764
31296,748
31303,737
31311,728
31319,722
31326,721
31334,721
31342,723
31472,789
31479,789
31487,793
31494,792
31502,788
31510,784
31517,784
31525,786
31533,786
31540,787
31548,786
31556,787
31563,788
31571,790
31578,790
31586,793
31594,794
31601,793
31609,794
31617,796
31624,795
31632,795
31640,793
31647,795
31655,803
31676,823
31683,828
31691,829
31699,832
31706,836
31714,837
31722,838
31732,838
31739,831
31747,829
31754,828
31884,858
31892,864
31899,866
31907,867
31915,865
31922,865
31930,865
31937,867
31945,864
31953,865
31960,868
31968,871
31976,873
31983,876
31991,881
31999,887
32006,893
32014,898
32022,905
32029,909
32037,911
32045,905
32052,897
32060,885
32067,868
32075,853
32083,836
32090,819
32098,803
32106,791
32113,782
32121,778
32264,814
32272,809
32280,802
32287,798
32295,790
32303,785
32310,782
32318,778
32325,771
32333,766
32343,763
32351,753
32358,742
32366,738
32374,740
32381,741
32389,744
32397,747
32404,752
32412,753
32419,751
32427,753
32435,753
32442,755
32450,761
32458,771
32465,780
32473,782
32481,785
32488,784
32496,782
32503,781
32511,780
32519,779
32649,725
32656,763
32664,783
32671,787
32679,794
32687,800
32694,800
32702,802
32710,804
32717,806
32725,809
32733,811
32740,814
32748,817
32769,829
32776,837
32784,846
32792,860
32799,878
32807,889
32815,900
32822,913
32830,922
32840,922
32848,907
32855,895
32863,884
32870,872
32878,858
32886,844
32893,832
32901,826
32909,819
32916,815
32924,818
32932,817
32939,819
33069,863
33077,862
33085,857
33092,854
33100,851
33108,848
33115,847
33123,846
33130,841
33138,839
33146,838
33153,836
33161,834
33169,833
33176,833
33184,832
33192,830
33199,826
33207,820
33214,822
33222,830
33230,835
33237,843
33245,840
33253,842
33274,837
33282,830
33289,822
33297,809
33304,800
33312,800
33320,797
33327,792
33337,789
33345,780
33353,782
33483,813
33491,816
33498,818
33506,821
33513,820
33521,821
33529,825
33536,830
33544,835
33552,842
33559,848
33567,856
33575,864
33582,873
33590,879
33597,884
33605,884
33613,879
33620,869
33628,864
33636,849
33643,837
33651,826
33659,811
33666,792
33674,780
33681,771
33689,768
33697,762
33704,761
33712,761
33720,761
33863,807
33871,814
33878,819
33886,826
33893,839
33901,841
33909,845
33916,848
33924,848
33932,844
33939,843
33949,835
33957,826
33965,820
33972,819
33980,822
33987,829
33995,829
34003,834
34010,839
34018,835
34026,842
34033,857
34041,966
34049,1119
34056,1102
34064,1001
34071,695
34079,645
34087,711
34094,748
34102,784
34110,812
34117,820
34247,931
34255,941
34262,942
34270,939
34278,932
34285,918
34293,901
34301,884
34308,867
34316,846
34323,826
34331,809
34339,794
34346,785
34368,770
34375,769
34383,760
34390,755
34398,752
34406,753
34413,753
34421,753
34429,754
34439,752
34446,744
34454,739
34462,741
34469,742
34477,741
34484,741
34492,742
34500,740
34507,738
34515,737
34523,736
34530,741
34661,787
34668,787
34676,793
34684,790
34691,824
34699,929
34707,1069
34714,1081
34722,942
34729,647
34737,650
34745,693
34752,730
34760,759
34768,765
34775,776
34783,788
34791,792
34798,795
34806,801
34813,803
34821,806
34829,810
34836,815
34844,819
34852,824
34873,841
34880,852
34888,865
34896,880
34903,894
34911,908
34918,916
34926,918
34936,915
35066,848
35074,852
35081,852
35089,855
35096,853
35104,851
35112,851
35119,852
35127,849
35135,845
35142,845
35150,843
35158,842
35165,837
35173,832
35180,826
35188,820
35196,819
35203,819
35211,821
35219,826
35226,832
35234,835
35242,837
35249,835
35257,830
35264,826
35272,823
35280,817
35287,812
35295,808
35303,808
35446,793
35454,794
35462,791
35469,787
35477,786
35484,786
35492,781
35500,778
35507,778
35515,777
35523,779
35530,779
35538,782
35548,786
35556,784
35563,786
35571,795
35578,803
35586,810
35594,815
35601,814
35609,811
35617,802
35624,794
35632,783
35640,772
35647,759
35655,745
35662,736
35670,732
35678,730
35685,733
35693,733
35701,736
35830,804
35838,807
35846,811
35853,805
35861,802
35869,798
35876,794
35884,796
35892,801
35899,809
35907,819
35914,822
35922,826
35930,825
35951,818
35958,820
35966,816
35974,818
35981,821
35989,826
35997,831
36004,834
36012,837
36019,841
36027,844
36035,849
36045,848
36052,896
36060,1035
36068,1201
36075,1173
36083,997
36091,763
36098,754
36106,784
36113,804
36244,907
36252,912
36259,918
36267,923
36275,927
36282,925
36290,921
36298,912
36305,902
36313,887
36320,870
36328,851
36336,834
36343,816
36351,803
36359,797
36366,789
36374,787
36382,786
36389,789
36397,791
36404,791
36412,789
36420,793
36427,796
36435,797
36456,800
36464,795
36472,793
36479,787
36487,783
36494,779
36502,775
36510,773
36517,771
36647,793
36657,783
36665,772
36672,769
36680,764
36688,766
36695,766
36703,766
36711,770
36718,771
36726,779
36733,779
36741,801
36749,909
36756,1082
36764,1137
36772,1032
36779,749
36787,682
36795,707
36802,735
36810,743
36817,750
36825,763
36833,769
36840,776
36848,781
36856,785
36863,789
36871,793
36879,797
36886,801
37029,828
37037,815
37044,808
37052,802
37060,803
37067,804
37075,808
37083,809
37090,813
37098,818
37106,825
37113,826
37121,828
37128,831
37136,835
37146,834
37154,829
37161,827
37169,827
37177,831
37184,829
37192,827
37200,826
37207,830
37215,836
37222,833
37230,833
37238,835
37245,835
37253,836
37261,838
37268,833
37276,827
37284,832
37413,849
37421,847
37429,846
37436,851
37444,842
37452,877
37459,1005
37467,1159
37474,1160
37482,1012
37490,743
37497,721
37505,751
37513,779
37534,791
37541,795
37549,793
37557,798
37564,794
37572,789
37580,786
37587,783
37595,785
37603,785
37610,784
37618,787
37626,790
37633,796
37643,804
37651,801
37658,806
37666,814
37674,823
37681,825
37689,826
37819,772
37826,775
37834,779
37841,782
37849,785
37857,783
37864,784
37872,785
37880,787
37887,787
37895,785
37903,783
37910,783
37918,784
37925,786
37933,784
37941,784
37948,783
37956,785
37964,786
37971,788
37979,784
37987,781
37994,780
38002,785
38009,794
38017,804
38038,816
38046,818
38053,822
38061,825
38069,823
38076,823
38084,821
38092,827
38099,829
38229,833
38237,839
38244,848
38254,852
38262,846
38270,843
38277,844
38285,845
38292,848
38300,847
38308,850
38315,852
38323,856
38331,861
38338,866
38346,870
38354,880
38361,888
38369,897
38376,905
38384,911
38392,913
38399,908
38407,904
38415,892
38422,881
38430,868
38438,854
38445,837
38453,818
38460,807
38468,796
38611,821
38619,813
38627,805
38634,796
38642,791
38649,785
38657,780
38665,777
38672,773
38680,766
38688,760
38695,757
38703,753
38711,755
38718,761
38726,770
38734,772
38741,774
38751,771
38759,763
38766,757
38774,751
38782,746
38789,743
38797,743
38805,746
38812,750
38820,752
38827,757
38835,760
38843,761
38850,763
38858,770
38866,770
38995,816
39003,819
39011,823
39018,822
39026,827
39034,831
39041,833
39049,837
39057,843
39064,849
39072,857
39080,867
39087,877
39095,884
39116,881
39123,876
39131,870
39139,863
39146,855
39154,842
39162,830
39169,821
39177,813
39185,806
39192,804
39200,805
39207,808
39215,810
39223,813
39230,816
39240,822
39248,820
39256,820
39263,822
39271,825
39278,830
39408,856
39416,862
39423,871
39431,874
39438,871
39446,869
39454,862
39461,859
39469,853
39477,847
39484,839
39492,833
39500,827
39507,823
39515,825
39523,825
39530,821
39538,817
39546,820
39553,822
39561,826
39568,828
39576,908
39584,1064
39591,1152
39599,1079
39620,702
39628,739
39635,760
39643,763
39651,767
39658,774
39666,774
39674,774
39681,774
39811,868
39819,860
39826,850
39834,837
39842,824
39852,804
39859,778
39867,762
39875,752
39882,746
39890,745
39897,744
39905,747
39913,747
39920,746
39928,752
39936,756
39943,761
39951,767
39959,771
39966,775
39974,780
39981,783
39989,783
39997,784
40004,785
40012,789
40020,789
40027,789
40035,789
40043,788
40050,784
40058,787
40202,831
40209,834
40217,841
40224,848
40232,869
40240,977
40247,1136
40255,1153
40263,1024
40270,696
40278,673
40286,736
40293,779
40301,818
40309,836
40316,845
40324,856
40331,864
40339,867
40349,869
40357,865
40364,861
40372,861
40380,866
40387,871
40395,877
40402,882
40410,890
40418,896
40425,903
40433,910
40441,920
40448,929
40456,937
40586,812
40593,817
40601,817
40609,819
40616,823
40624,826
40632,824
40639,823
40647,821
40655,816
40662,815
40670,810
40677,808
40685,803
40706,799
40714,802
40722,802
40729,799
40737,796
40744,794
40752,786
40760,776
40767,770
40775,763
40783,757
40790,755
40798,753
40806,752
40813,753
40821,753
40828,750
40838,749
40846,741
40854,739
40861,745
40869,745
40999,810
41007,816
41015,818
41022,816
41030,819
41037,824
41045,831
41053,838
41060,846
41068,853
41076,863
41083,869
41091,879
41099,886
41106,884
41114,875
41121,866
41129,857
41137,844
41144,828
41152,809
41160,791
41167,778
41175,771
41183,764
41190,758
41211,755
41219,758
41226,767
41234,776
41242,784
41249,791
41257,798
41265,804
41272,813
41402,868
41410,865
41418,861
41425,857
41433,848
41441,841
41448,837
41458,831
41466,822
41473,817
41481,817
41489,816
41496,817
41504,822
41512,822
41519,816
41527,900
41534,1085
41542,1217
41550,1141
41557,868
41565,713
41573,724
41580,750
41588,770
41596,775
41603,786
41611,798
41618,800
41626,803
41634,807
41641,808
41785,860
41792,842
41800,820
41808,798
41815,780
41823,767
41831,756
41838,747
41846,744
41854,740
41861,740
41869,737
41877,740
41884,740
41892,743
41899,742
41907,743
41915,747
41922,746
41930,746
41938,747
41948,750
41955,743
41963,738
41970,737
41978,740
41986,742
41993,745
42001,747
42009,749
42016,748
42024,743
42031,748
42039,757
42169,814
42177,821
42184,824
42192,816
42199,880
42207,1033
42215,1192
42222,1146
42230,942
42238,731
42245,725
42253,748
42261,763
42268,767
42289,792
42297,800
42304,808
42312,815
42320,821
42327,829
42335,838
42343,842
42350,845
42358,853
42366,858
42373,863
42381,871
42389,881
42396,894
42404,902
42411,912
42419,919
42427,924
42437,918
42444,905
42452,891
42581,858
42589,854
42597,853
42604,849
42612,850
42620,846
42627,844
42635,840
42643,838
42650,837
42658,838
42666,834
42673,830
42681,829
42688,824
42696,818
42704,817
42711,824
42719,829
42727,834
42734,836
42742,836
42750,831
42757,829
42765,824
42772,822
42794,805
42801,803
42809,800
42817,793
42824,789
42832,785
42840,784
42847,780
42855,777
42985,773
42992,778
43000,781
43007,780
43015,782
43023,783
43030,785
43038,788
43046,796
43056,801
43063,801
43071,804
43078,812
43086,822
43094,832
43101,838
43109,842
43117,842
43124,836
43132,829
43139,816
43147,803
43155,789
43162,777
43170,766
43178,759
43185,753
43193,754
43201,755
43208,757
43216,761
43223,763
43231,768
43375,819
43383,818
43390,817
43398,823
43406,832
43413,844
43421,855
43428,859
43436,861
43444,865
43451,861
43459,856
43467,857
43474,856
43482,854
43490,847
43497,846
43505,849
43513,852
43520,851
43528,848
43535,846
43545,848
43553,845
43561,831
43568,876
43576,1006
43584,1163
43591,1167
43599,1015
43606,751
43614,739
43622,766
43752,883
43760,891
43767,900
43775,910
43783,913
43790,911
43798,909
43806,904
43813,896
43821,883
43828,870
43836,854
43844,840
43851,826
43859,802
43880,776
43888,770
43895,764
43903,760
43911,757
43918,756
43926,758
43934,753
43941,751
43949,753
43957,750
43964,753
43972,751
43980,751
43987,753
43995,753
44002,750
44010,752
44018,752
44025,752
44033,752
44043,751
44173,802
44180,799
44188,797
44196,800
44203,800
44211,801
44219,797
44226,796
44234,799
44241,801
44249,807
44257,800
44264,851
44272,983
44280,1124
44287,1111
44295,924
44303,686
44310,693
44318,728
44325,760
44333,767
44341,776
44348,787
44356,790
44364,793
44385,805
44392,810
44400,817
44408,825
44415,833
44423,842
44430,851
44438,861
44446,871
44576,839
44584,832
44591,828
44599,826
44606,826
44614,828
44622,830
44629,830
44637,832
44645,834
44655,828
44662,820
44670,813
44677,812
44685,811
44693,811
44700,813
44708,814
44716,816
44723,818
44731,816
44738,815
44746,817
44754,819
44761,814
44769,808
44777,807
44784,806
44792,809
44800,816
44807,829
44815,836
44958,862
44966,974
44974,1122
44981,1137
44989,982
44997,696
45004,675
45012,707
45020,736
45027,741
45035,744
45042,751
45050,755
45058,759
45065,761
45073,763
45081,766
45088,768
45096,769
45104,769
45111,772
45119,775
45126,780
45134,787
45144,797
45152,798
45159,804
45167,811
45175,823
45182,832
45190,833
45197,831
45205,826
45213,821
45343,807
45350,808
45358,812
45366,814
45373,813
45381,813
45389,807
45396,808
45404,809
45411,809
45419,806
45427,806
45434,807
45442,803
45463,798
45471,800
45478,811
45486,821
45494,834
45501,839
45509,843
45516,846
45524,848
45532,847
45539,845
45547,843
45555,842
45562,845
45570,847
45578,849
45585,849
45593,848
45601,847
45608,848
45616,849
45746,872
45753,873
45763,871
45771,862
45779,860
45786,861
45794,866
45802,868
45809,871
45817,878
45824,883
45832,891
45840,900
45847,910
45855,918
45863,921
45870,919
45878,907
45886,895
45893,886
45901,874
45908,861
45916,849
45924,834
45931,819
45939,810
45947,802
45968,786
45976,781
45983,778
45991,777
45998,779
46006,777
46014,775
46021,774
46029,776
46037,774
46167,792
46174,786
46182,781
46190,779
46197,776
46205,772
46212,773
46220,772
46228,775
46235,774
46243,774
46253,778
46261,776
46268,764
46276,829
46283,975
46291,1081
46299,1027
46306,795
46314,572
46322,624
46329,674
46337,715
46345,749
46352,765
46360,780
46367,791
46375,796
46383,800
46390,805
46398,813
46406,815
46549,860
46556,845
46564,828
46572,816
46579,810
46587,807
46595,806
46602,802
46610,801
46618,803
46625,807
46633,812
46640,819
46648,824
46656,825
46663,827
46671,831
46679,836
46686,837
46694,839
46702,839
46709,838
46717,838
46724,836
46732,833
46740,830
46750,829
46757,825
46765,826
46773,830
46780,835
46788,836
46796,836
46803,832
46933,1213
46941,1162
46948,899
46956,706
46964,727
46971,754
46979,777
46986,783
46994,790
47002,796
47009,802
47017,805
47025,806
47032,807
47053,806
47061,807
47069,805
47076,804
47084,806
47092,807
47099,808
47107,813
47115,819
47122,825
47130,831
47138,833
47145,834
47153,827
47161,820
47168,810
47176,798
47183,785
47191,769
47199,755
47206,740
47336,783
47344,784
47351,787
47361,787
47369,779
47377,771
47384,768
47392,764
47399,763
47407,767
47415,771
47422,775
47430,788
47438,796
47445,805
47453,806
47461,805
47468,801
47476,801
47483,799
47491,797
47499,795
47506,794
47514,800
47522,799
47529,796
47537,798
47558,810
47566,811
47573,823
47581,932
47588,1120
47596,1220
47604,1129
47611,849
47619,744
47749,891
47756,897
47764,902
47772,906
47779,915
47787,920
47795,923
47802,926
47810,922
47817,915
47825,906
47833,894
47840,880
47850,857
47858,833
47866,814
47873,801
47881,794
47888,789
47896,786
47904,787
47911,790
47919,794
47927,800
47934,806
47942,805
47950,808
47957,807
47965,807
47972,804
47980,806
47988,808
48131,841
48138,834
48146,824
48154,814
48161,803
48169,795
48177,788
48184,785
48192,782
48200,779
48207,776
48215,775
48223,776
48230,773
48238,776
48246,765
48253,811
48261,955
48269,1123
48276,1111
48284,928
48291,675
48299,665
48307,693
48314,715
48322,721
48330,734
48337,737
48347,745
48355,743
48362,746
48370,747
48378,750
48385,755
48515,857
48523,840
48530,827
48538,811
48546,795
48553,783
48561,776
48569,773
48576,771
48584,770
48591,769
48599,772
48607,777
48614,779
48635,786
48643,793
48651,795
48658,799
48666,805
48674,809
48681,816
48689,820
48697,824
48704,827
48712,830
48719,832
48727,835
48735,837
48742,836
48750,834
48758,829
48765,829
48773,833
48781,845
48788,855
48918,861
48926,864
48933,854
48941,915
48949,1068
48959,1207
48966,1106
48974,808
48982,713
48989,740
48997,771
49004,788
49012,796
49020,802
49027,805
49035,812
49043,815
49050,820
49058,820
49066,822
49073,825
49081,825
49088,827
49096,831
49104,836
49111,840
49119,843
49140,861
49148,868
49156,872
49163,873
49171,872
49178,864
49186,849
49194,838
49201,821
49332,770
49339,773
49347,776
49355,774
49362,776
49370,775
49378,776
49385,775
49393,773
49401,771
49408,771
49416,772
49423,772
49431,773
49439,770
49446,765
49456,766
49464,767
49472,774
49479,782
49487,783
49494,785
49502,786
49510,786
49517,787
49525,790
49533,789
49540,785
49548,788
49556,790
49563,793
49571,793
49714,822
49721,827
49729,833
49737,837
49744,844
49752,850
49760,852
49767,853
49775,858
49783,867
49790,875
49798,881
49806,887
49813,896
49821,902
49828,914
49836,926
49844,928
49851,928
49859,927
49867,924
49874,911
49882,899
49890,887
49897,874
49905,856
49912,840
49920,827
49928,819
49935,813
49945,807
49953,797
49961,793
49968,795
50098,850
50106,847
50113,846
50121,844
50128,839
50136,833
50144,839
50151,844
50159,850
50167,853
50174,852
50182,850
50190,845
50197,842
50218,820
50226,814
50234,805
50241,802
50249,800
50257,794
50264,791
50272,787
50280,787
50287,785
50295,790
50303,783
50310,850
50318,996
50325,1090
50333,1039
50341,765
50348,601
50356,652
50364,698
50371,733
50501,855
50509,867
50516,875
50524,885
50532,889
50539,887
50547,883
50555,872
50565,859
50572,836
50580,816
50587,799
50595,786
50603,777
50610,767
50618,762
50626,760
50633,758
50641,760
50649,763
50656,763
50664,768
50671,773
50679,774
50687,777
50694,783
50702,788
50723,795
50730,803
50738,802
50746,804
50754,808
50761,812
50769,813
50776,818
50784,828
50914,863
50921,862
50929,861
50936,866
50944,858
50952,933
50959,1093
50967,1164
50975,1094
50982,806
50990,644
50998,706
51005,744
51013,781
51020,806
51028,817
51036,825
51043,831
51053,833
51061,827
51069,823
51076,826
51084,832
51091,833
51099,839
51107,843
51114,849
51122,859
51130,863
51137,870
51145,880
51153,889
51296,790
51304,786
51311,783
51319,780
51326,777
51334,774
51342,774
51349,769
51357,766
51365,768
51372,763
51380,762
51388,758
51395,753
51403,750
51411,751
51418,750
51426,754
51433,760
51441,764
51449,765
51456,763
51464,760
51472,759
51479,757
51487,751
51495,745
51502,744
51510,746
51517,747
51525,749
51533,751
51543,754
51550,753
51680,804
51688,806
51695,807
51703,813
51711,817
51718,816
51726,817
51734,816
51741,820
51749,830
51757,832
51764,837
51772,843
51779,854
51800,882
51808,887
51816,890
51823,889
51831,883
51839,878
51846,869
51854,857
51862,844
51869,832
51877,823
51885,815
51892,811
51900,810
51907,811
51915,808
51923,809
51930,812
51938,816
51946,819
51953,824
51961,827
52091,848
52098,855
52106,861
52113,862
52121,863
52129,860
52136,851
52144,846
52152,840
52162,830
52169,815
52177,810
52184,809
52192,810
52200,810
52207,807
52215,810
52223,812
52230,816
52238,813
52245,817
52253,919
52261,1107
52268,1202
52276,1105
52284,819
52305,748
52313,763
52320,762
52328,766
52335,770
52343,770
52351,770
52358,771
52366,773
52496,848
52503,841
52511,828
52519,813
52526,798
52534,779
52541,762
52549,756
52557,747
52565,744
52572,741
52580,744
52587,746
52595,749
52603,750
52610,755
52618,758
52626,760
52633,764
52641,764
52651,769
52658,761
52666,758
52674,758
52681,762
52689,767
52697,771
52704,771
52712,773
52719,776
52727,782
52735,785
52742,781
52886,830
52894,832
52901,837
52909,841
52917,849
52924,849
52932,862
52940,958
52947,1130
52955,1222
52963,1129
52970,855
52978,754
52986,774
52993,801
53001,810
53008,818
53016,830
53024,835
53031,839
53039,844
53047,847
53054,849
53062,850
53070,853
53077,856
53085,859
53092,859
53100,864
53108,867
53115,873
53123,880
53131,888
53141,897
53270,818
53278,820
53286,819
53293,821
53301,824
53309,819
53316,821
53324,820
53331,820
53339,821
53347,823
53354,818
53362,816
53370,817
53391,807
53399,805
53406,799
53414,793
53422,787
53429,784
53437,775
53444,768
53452,769
53460,772
53467,779
53475,780
53483,780
53490,779
53498,777
53506,773
53513,773
53521,766
53528,757
53536,753
53544,755
53674,725
53681,752
53689,757
53696,765
53704,771
53712,775
53719,778
53727,782
53735,786
53742,787
53750,790
53760,794
53767,787
53775,783
53783,789
53790,796
53798,805
53806,810
53813,821
53821,832
53828,847
53836,854
53844,861
53851,864
53859,864
53867,861
53874,851
53895,824
53903,812
53910,802
53918,795
53926,792
53933,790
53941,787
53949,797
53956,801
54086,862
54094,862
54101,861
54109,856
54117,851
54124,844
54132,841
54139,844
54147,850
54155,858
54162,859
54170,859
54178,859
54185,853
54193,847
54201,845
54208,839
54216,833
54223,826
54231,824
54239,823
54246,827
54256,825
54264,813
54272,808
54279,810
54287,814
54294,818
54302,825
54310,914
54317,1075
54325,1168
54468,855
54476,852
54484,855
54492,852
54499,853
54507,855
54514,862
54522,863
54530,864
54537,859
54545,852
54553,840
54560,824
54568,810
54576,795
54583,778
54591,760
54598,746
54606,734
54614,726
54621,721
54629,720
54637,719
54644,721
54652,725
54660,729
54667,732
54675,735
54682,738
54690,742
54698,744
54705,748
54713,751
54721,753
54851,824
54858,825
54868,825
54876,810
54884,802
54891,800
54899,797
54907,790
54914,789
54922,792
54929,798
54937,801
54945,805
54952,799
54973,810
54981,821
54989,828
54996,917
55004,1080
55012,1178
55019,1107
55027,834
55034,714
55042,747
55050,791
55058,811
55065,818
55073,830
55080,840
55088,843
55096,848
55103,851
55111,854
55119,857
55126,861
55256,905
55263,889
55271,870
55279,850
55286,834
55294,822
55302,815
55309,807
55317,807
55325,807
55332,807
55340,805
55348,806
55358,799
55365,792
55373,790
55380,794
55388,797
55396,801
55403,801
55411,801
55419,803
55426,808
55434,809
55441,806
55449,808
55457,810
55478,807
55486,805
55493,794
55501,783
55509,786
55516,792
55524,799
55531,800
55539,797
55669,803
55677,895
55685,1059
55692,1141
55700,1056
55708,750
55715,653
55723,694
55730,735
55738,753
55746,758
55753,767
55761,777
55769,781
55776,787
55784,789
55792,783
55799,788
55807,793
55815,798
55822,803
55830,805
55837,808
55847,817
55855,815
55863,821
55870,829
55878,839
55886,850
55893,861
55901,865
55908,864
56051,823
56059,824
56067,828
56075,833
56082,839
56090,842
56098,844
56105,846
56113,847
56120,845
56128,845
56136,841
56143,839
56151,841
56159,846
56166,856
56174,862
56181,865
56189,868
56197,867
56204,860
56212,857
56220,854
56227,850
56235,846
56243,841
56250,842
56258,843
56266,844
56273,842
56281,841
56288,842
56296,846
56304,846
56434,857
56441,859
56449,859
56456,858
56466,857
56474,852
56482,848
56489,848
56497,857
56505,864
56512,865
56520,873
56528,883
56535,894
56556,894
56564,887
56572,875
56580,859
56587,843
56595,827
56602,807
56610,790
56618,774
56625,761
56633,754
56641,747
56648,739
56656,737
56664,737
56671,738
56679,743
56686,745
56694,747
56702,752
56709,754
56717,756
56847,797
56855,793
56862,788
56870,784
56878,785
56885,786
56893,787
56901,790
56908,785
56916,784
56924,788
56931,792
56939,796
56946,788
56954,838
56964,1031
56972,1089
56979,1017
56987,738
56995,575
57002,647
57010,689
57017,730
57025,762
57033,776
57040,790
57061,811
57069,817
57077,827
57084,834
57092,840
57100,851
57107,859
57115,868
57123,878
57252,857
57260,848
57268,844
57275,834
57283,829
57291,825
57298,824
57306,828
57314,826
57321,823
57329,825
57337,826
57344,828
57352,830
57360,828
57367,829
57375,830
57382,823
57390,820
57398,824
57405,830
57413,830
57421,827
57428,831
57436,834
57443,840
57453,828
57461,813
57469,805
57476,799
57484,796
57492,788
57499,789
57643,785
57651,793
57658,801
57666,807
57674,804
57681,798
57689,794
57697,796
57704,792
57712,791
57720,793
57727,794
57735,795
57742,795
57750,796
57758,803
57765,814
57773,819
57781,827
57788,834
57796,840
57804,841
57811,835
57819,825
57826,814
57834,801
57842,784
57849,771
57857,753
57865,742
57872,732
57880,726
57888,723
57895,723
58025,788
58033,790
58040,792
58048,797
58056,800
58066,801
58073,794
58081,787
58089,784
58096,784
58104,776
58111,776
58119,777
58127,777
58148,786
58155,791
58163,798
58171,803
58178,813
58186,812
58194,825
58201,951
58209,1154
58217,1248
58224,1132
58232,821
58239,730
58247,745
58255,769
58262,784
58270,793
58278,809
58285,817
58293,822
58301,827
58430,919
58438,912
58446,905
58453,891
58461,875
58469,859
58476,841
58484,827
58491,811
58499,800
58507,793
58514,795
58522,793
58530,791
58537,793
58545,796
58552,798
58562,800
58570,793
58578,790
58585,791
58593,792
58601,796
58608,797
58616,801
58623,801
58631,803
58652,807
58660,803
58668,798
58675,792
58683,792
58691,790
58698,799
58706,800
58714,800
58844,792
58851,855
58859,1016
58867,1192
58875,1147
58882,941
58890,715
58897,701
58905,725
58913,739
58920,743
58928,753
58936,759
58943,766
58951,772
58958,772
58966,775
58974,777
58981,781
58989,785
58997,790
59004,792
59012,797
59020,802
59027,808
59035,816
59042,825
59052,840
59060,842
59068,846
59075,850
59083,852
59226,814
59234,818
59241,821
59249,825
59256,827
59264,834
59272,836
59280,840
59287,842
59295,844
59303,847
59310,847
59318,846
59325,844
59333,845
59341,837
59348,835
59356,843
59364,855
59371,863
59379,867
59386,867
59394,865
59402,862
59409,858
59417,857
59425,853
59432,848
59440,842
59448,838
59455,838
59463,839
59471,838
59478,835
59608,817
59616,823
59623,822
59631,824
59639,824
59646,826
59654,823
59664,825
59672,815
59679,812
59687,811
59694,815
59702,822
59710,829
59731,856
59738,862
59746,863
59754,863
59761,857
59769,848
59777,834
59785,818
59792,803
59800,786
59807,766
59815,751
59823,738
59830,730
59838,725
59846,722
59853,721
59861,723
59869,726
59876,729
59884,731
59891,731
