Tempo(ms),Leitura(ECG)
8,728
16,703
23,703
31,715
39,725
46,733
54,745
62,747
69,754
77,758
84,764
92,766
100,769
112,770
119,756
127,730
134,704
142,677
150,654
157,632
165,618
173,604
180,589
201,924
209,871
217,650
224,449
232,460
240,497
247,528
255,559
263,602
270,644
278,684
285,725
293,759
301,792
308,820
316,849
324,872
331,895
339,916
346,937
354,958
362,975
369,993
377,1010
385,1030
392,1046
400,1060
408,1068
415,1074
423,1074
430,1066
438,1059
446,1048
453,1033
461,1016
469,1000
476,984
484,973
492,966
622,949
630,947
637,943
645,937
652,932
660,926
668,918
678,909
685,897
707,876
714,867
722,859
729,861
737,865
745,866
752,863
760,859
768,853
775,842
783,838
790,830
798,823
806,813
814,806
821,805
829,800
836,795
844,793
852,792
859,789
867,791
875,796
882,791
890,813
897,920
905,1081
913,1126
920,1005
928,712
936,665
943,698
951,733
959,742
966,747
974,753
981,759
989,764
997,766
1004,768
1012,770
1020,774
1027,776
1035,779
1043,784
1050,789
1058,794
1065,801
1073,810
1081,819
1088,829
1096,839
1104,849
1114,859
1121,854
1129,846
1136,842
1144,832
1152,821
1295,812
1302,820
1310,822
1318,825
1325,825
1333,829
1340,829
1348,832
1356,832
1364,831
1371,832
1379,831
1386,830
1394,829
1402,828
1409,826
1417,829
1425,832
1432,840
1440,854
1448,854
1455,851
1463,851
1470,850
1478,845
1486,842
1493,839
1501,833
1509,829
1516,829
1524,827
1531,826
1539,826
1547,830
1554,832
1562,827
1570,830
1577,828
1585,860
1593,971
1600,1113
1608,1113
1615,965
1623,653
1631,654
1641,726
1770,881
1778,886
1799,905
1807,906
1815,904
1822,894
1830,881
1837,869
1845,852
1853,838
1860,819
1868,801
1876,781
1884,767
1891,754
1899,747
1906,737
1914,731
1922,727
1929,727
1937,729
1945,727
1952,729
1960,732
1967,736
1975,739
1983,741
1990,746
1998,751
2006,750
2013,746
2021,750
2029,751
2036,748
2044,743
2051,747
2059,749
2067,756
2074,761
2082,771
2090,777
2097,777
2105,777
2113,779
2120,777
2128,774
2135,772
2143,768
2273,625
2281,693
2304,782
2312,793
2319,807
2327,814
2335,823
2342,830
2350,837
2358,843
2365,852
2373,858
2380,867
2388,874
2396,882
2404,890
2411,896
2419,904
2426,910
2434,922
2442,932
2449,940
2457,943
2465,940
2472,934
2480,923
2487,911
2495,896
2503,880
2510,862
2518,846
2526,831
2533,822
2541,814
2549,811
2556,808
2564,805
2571,805
2579,805
2587,808
2594,808
2602,811
2610,815
2617,822
2625,823
2633,822
2640,821
2648,822
2778,836
2786,833
2807,819
2814,813
2822,809
2832,801
2840,787
2847,779
2855,778
2863,778
2870,855
2878,1010
2886,1083
2893,1010
2901,714
2908,601
2916,647
2924,679
2931,713
2939,727
2947,736
2954,750
2962,757
2970,759
2977,762
2985,767
2992,773
3000,777
3008,780
3015,785
3023,788
3031,793
3038,798
3046,803
3054,813
3061,821
3069,833
3076,843
3084,853
3092,860
3099,864
3107,861
3115,849
3122,840
3130,827
3138,812
3145,795
3153,781
3283,810
3290,811
3311,809
3319,814
3326,815
3334,816
3342,813
3349,815
3359,820
3367,821
3375,824
3382,833
3390,840
3398,846
3405,846
3413,843
3420,843
3428,841
3436,840
3443,837
3451,840
3459,841
3466,842
3474,842
3482,843
3489,843
3497,839
3505,844
3512,846
3520,840
3527,926
3535,1110
3543,1244
3550,1166
3558,896
3566,739
3573,745
3581,770
3589,788
3596,790
3604,800
3611,807
3619,816
3627,817
3634,819
3642,822
3650,825
3657,829
3787,877
3795,861
3816,812
3823,795
3831,781
3839,772
3846,765
3854,761
3862,756
3869,757
3877,756
3887,757
3895,746
3902,740
3910,737
3918,741
3925,741
3933,745
3940,748
3948,749
3956,749
3963,750
3971,753
3979,753
3986,752
3994,753
4002,756
4009,758
4017,760
4024,760
4032,760
4040,757
4047,759
4055,766
4063,773
4070,782
4078,785
4086,792
4093,792
4101,794
4108,793
4116,792
4124,788
4131,785
4139,782
4147,784
4154,788
4162,787
4169,788
4299,809
4320,821
4328,824
4335,829
4343,835
4351,840
4358,844
4366,850
4374,855
4381,862
4389,869
4396,874
4404,883
4414,893
4422,895
4429,898
4437,905
4445,909
4452,911
4460,910
4468,905
4475,895
4483,886
4490,872
4498,857
4506,843
4513,830
4521,822
4529,817
4536,816
4544,815
4552,818
4559,818
4567,821
4574,821
4582,824
4590,825
4597,826
4605,828
4613,827
4620,829
4628,829
4636,830
4643,829
4651,829
4658,827
4666,826
4674,826
4803,858
4825,849
4832,837
4840,826
4848,817
4855,808
4863,802
4871,798
4878,792
4886,787
4893,780
4901,779
4909,779
4916,784
4924,782
4932,792
4939,881
4949,1095
4957,1096
4964,958
4972,692
4980,660
4987,691
4995,717
5003,727
5010,732
5018,742
5025,748
5033,753
5041,755
5048,759
5056,765
5064,770
5071,774
5079,778
5087,783
5094,787
5102,793
5109,800
5117,809
5125,816
5132,824
5140,838
5148,848
5155,855
5163,858
5171,860
5300,800
5308,801
5329,805
5337,811
5344,814
5352,819
5360,820
5367,825
5375,827
5383,831
5390,834
5398,835
5405,835
5413,837
5421,838
5428,839
5436,839
5444,841
5451,843
5459,842
5466,844
5476,841
5484,835
5492,828
5499,825
5507,823
5515,829
5522,839
5530,847
5537,853
5545,856
5553,861
5560,858
5568,858
5576,856
5583,852
5591,849
5599,842
5606,839
5614,840
5621,841
5629,838
5637,838
5644,835
5652,838
5660,839
5667,847
5675,840
5683,885
5812,845
5833,850
5841,848
5849,845
5856,845
5864,846
5872,846
5879,847
5887,853
5894,855
5902,861
5910,861
5918,859
5925,850
5933,840
5940,826
5948,812
5956,795
5963,776
5971,761
5979,749
5986,740
5994,732
6004,725
6011,715
6019,714
6027,716
6034,722
6042,727
6050,731
6057,739
6065,745
6072,750
6080,753
6088,760
6095,760
6103,760
6111,765
6118,770
6126,771
6134,771
6141,771
6149,773
6157,775
6164,776
6172,779
6179,780
6187,783
6318,839
6339,825
6346,826
6354,830
6361,831
6369,834
6377,838
6384,840
6392,843
6400,846
6407,850
6415,862
6422,948
6430,1102
6438,1170
6446,1088
6453,816
6461,732
6468,770
6476,808
6484,823
6491,826
6499,835
6507,842
6514,844
6522,848
6532,851
6539,844
6547,842
6555,843
6562,846
6570,848
6578,851
6585,860
6593,864
6600,871
6608,878
6616,887
6623,897
6631,906
6639,912
6646,915
6654,914
6662,908
6669,902
6677,888
6685,875
6814,829
6822,830
6843,828
6851,823
6859,815
6866,809
6874,799
6882,793
6889,789
6897,784
6905,781
6912,771
6920,768
6927,767
6935,766
6943,761
6950,758
6958,754
6966,754
6973,757
6981,761
6989,773
6996,776
7004,778
7011,781
7019,779
7027,773
7034,774
7042,771
7050,763
7060,762
7067,756
7075,752
7082,754
7090,756
7098,759
7105,764
7113,767
7121,778
7128,775
7136,835
7143,970
7151,1091
7159,1068
7166,864
7174,656
7182,680
7189,722
7319,867
7327,874
7348,898
7355,906
7363,910
7371,910
7378,904
7386,898
7394,887
7401,877
7409,864
7417,850
7424,835
7432,824
7440,818
7447,814
7455,818
7462,815
7470,811
7478,814
7485,822
7493,826
7501,827
7508,831
7516,835
7524,837
7531,840
7539,840
7546,840
7554,842
7562,842
7569,842
7577,840
7587,839
7595,831
7602,826
7610,823
7617,824
7625,823
7633,824
7640,823
7648,819
7656,821
7663,826
7671,832
7678,838
7686,845
7694,849
7701,853
7832,988
7853,1045
7861,723
7868,656
7876,709
7884,750
7891,777
7899,781
7907,783
7914,787
7922,792
7930,791
7937,791
7945,791
7953,789
7960,789
7968,789
7976,792
7983,795
7991,798
7998,804
8006,812
8014,820
8021,830
8029,839
8037,850
8044,859
8052,864
8060,859
8067,853
8075,847
8082,838
8090,827
8098,815
8105,803
8115,785
8123,768
8131,757
8138,749
8146,744
8154,744
8161,745
8169,748
8176,750
8184,758
8192,764
8199,769
8207,776
8337,840
8358,830
8366,828
8374,822
8381,823
8389,828
8397,830
8404,833
8412,832
8419,838
8427,840
8435,841
8442,843
8450,848
8458,852
8465,863
8473,968
8481,1122
8488,1122
8496,1016
8504,709
8511,654
8519,728
8526,769
8534,807
8542,825
8549,833
8557,842
8565,852
8572,858
8580,861
8588,861
8595,861
8603,865
8610,866
8618,871
8626,872
8633,875
8643,879
8651,880
8659,882
8666,886
8674,894
8681,904
8689,910
8697,908
8704,906
8834,813
8842,818
8863,816
8871,812
8879,808
8886,801
8894,793
8901,790
8909,785
8917,781
8924,774
8932,765
8940,759
8947,754
8955,755
8963,760
8970,763
8978,765
8986,767
8993,764
9001,761
9008,758
9016,756
9024,751
9031,743
9039,742
9047,742
9054,746
9062,745
9069,748
9077,750
9085,756
9092,759
9100,760
9108,766
9115,860
9123,1039
9131,1136
9138,1045
9146,739
9153,642
9161,671
9171,714
9179,721
9186,728
9194,739
9202,747
9209,754
9339,895
9347,891
9368,868
9375,857
9383,849
9390,836
9398,824
9406,816
9414,808
9421,805
9429,804
9436,808
9444,808
9452,810
9459,815
9467,822
9475,826
9482,830
9490,833
9498,834
9505,838
9513,836
9520,840
9528,842
9536,844
9543,841
9551,844
9559,841
9566,836
9574,835
9581,831
9589,828
9597,828
9604,835
9612,840
9620,849
9627,851
9635,854
9643,852
9650,847
9658,841
9665,838
9673,832
9681,828
9688,828
9698,826
9706,819
9714,813
9721,813
9851,818
9872,829
9880,826
9887,822
9895,820
9902,819
9910,815
9918,813
9925,811
9933,811
9941,812
9948,818
9956,822
9964,828
9971,834
9979,840
9987,844
9994,838
10002,834
10009,826
10017,813
10025,798
10032,783
10040,770
10048,755
10055,744
10063,735
10071,733
10078,729
10086,729
10093,727
10101,731
10109,736
10116,739
10124,743
10132,746
10139,751
10147,755
10155,758
10284,824
10292,826
10300,825
10307,823
10315,819
10322,819
10332,808
10340,795
10348,787
10355,787
10376,795
10384,797
10391,805
10399,814
10407,826
10414,825
10422,852
10430,977
10437,1158
10445,1214
10453,1098
10460,800
10468,746
10476,773
10483,801
10491,813
10499,822
10506,831
10514,836
10522,843
10529,847
10537,850
10544,850
10552,853
10560,857
10567,860
10697,876
10704,861
10712,844
10720,831
10727,818
10735,812
10743,807
10750,803
10758,801
10766,802
10773,805
10781,805
10788,808
10796,806
10804,808
10811,810
10821,811
10829,802
10837,797
10844,796
10852,795
10859,797
10881,800
10888,795
10896,787
10903,782
10911,778
10919,779
10927,782
10934,791
10942,792
10949,791
10957,788
10965,784
10972,783
10980,780
11110,1146
11118,985
11126,702
11133,690
11141,726
11149,750
11156,755
11164,759
11172,767
11179,772
11187,775
11194,780
11202,784
11210,785
11217,787
11225,792
11233,795
11240,798
11248,802
11256,808
11263,812
11271,821
11278,828
11286,838
11294,848
11301,860
11311,871
11319,861
11327,852
11334,844
11342,836
11349,827
11492,827
11500,829
11508,833
11515,838
11523,841
11531,842
11538,847
11546,849
11554,851
11561,847
11569,844
11577,845
11584,841
11592,845
11599,853
11607,865
11615,869
11622,869
11630,867
11638,864
11645,863
11653,863
11661,857
11668,848
11676,842
11683,842
11691,843
11699,843
11706,841
11714,841
11722,844
11729,843
11737,843
11745,850
11875,855
11882,857
11890,855
11897,855
11905,857
11913,859
11920,859
11930,862
11938,859
11946,856
11953,864
11961,872
11968,883
11976,889
11997,889
12005,880
12013,867
12020,854
12028,834
12036,816
12043,799
12051,780
12059,765
12066,753
12074,748
12081,742
12089,740
12097,739
12104,741
12112,743
12120,747
12127,747
12135,749
12143,751
12150,752
12158,753
12288,804
12296,797
12303,789
12311,788
12319,789
12326,792
12334,791
12342,787
12349,786
12357,787
12364,787
12372,790
12380,791
12387,793
12395,805
12403,911
12410,1076
12420,1086
12428,895
12435,603
12443,628
12451,681
12458,722
12466,753
12474,768
12481,779
12502,801
12510,809
12517,820
12525,831
12533,837
12541,845
12548,853
12556,863
12563,872
12571,880
12701,840
12708,835
12716,829
12723,822
12731,816
12739,813
12746,811
12754,814
12762,814
12769,817
12777,819
12785,820
12792,820
12800,819
12807,821
12815,819
12823,819
12830,818
12838,818
12846,815
12853,813
12861,809
12869,807
12876,806
12884,805
12891,809
12899,815
12907,820
12917,820
12924,810
12932,802
12940,799
13083,748
13091,690
13098,720
13106,745
13113,758
13121,761
13129,765
13137,770
13144,769
13152,770
13159,774
13167,768
13175,765
13182,766
13190,770
13198,766
13205,769
13213,775
13220,780
13228,784
13236,789
13243,796
13251,808
13259,821
13266,830
13274,833
13282,833
13289,830
13297,818
13304,807
13312,794
13320,782
13327,766
13335,752
13465,799
13473,802
13480,801
13488,804
13496,802
13503,802
13511,799
13518,795
13528,791
13536,781
13544,771
13551,772
13559,781
13567,791
13587,808
13595,815
13603,816
13610,819
13618,824
13626,827
13634,824
13641,826
13649,831
13656,837
13664,840
13672,844
13679,847
13687,845
13695,848
13702,852
13710,855
13717,856
13725,946
13733,1121
13740,1229
13870,874
13878,876
13885,878
13893,880
13901,881
13908,886
13916,891
13924,897
13931,904
13939,912
13947,915
13954,913
13962,907
13970,898
13977,889
13985,874
13992,856
14000,839
14008,822
14015,806
14025,792
14033,777
14041,770
14048,764
14056,768
14063,772
14071,776
14092,788
14100,786
14107,786
14115,780
14123,779
14131,776
14138,773
14146,772
14154,771
14161,771
14291,807
14299,800
14306,795
14314,789
14322,790
14329,788
14337,790
14345,790
14352,788
14360,787
14367,787
14375,787
14383,789
14390,789
14398,798
14406,894
14413,1063
14421,1148
14429,1054
14436,762
14444,675
14451,706
14459,742
14467,757
14474,762
14482,771
14490,780
14497,786
14505,789
14515,792
14522,789
14666,883
14673,870
14681,857
14689,845
14696,832
14704,827
14712,823
14719,822
14727,825
14734,828
14742,829
14750,830
14758,835
14765,838
14773,841
14780,842
14788,845
14796,848
14803,850
14811,849
14819,851
14826,854
14834,850
14842,844
14849,845
14857,847
14864,843
14872,843
14880,840
14887,839
14895,836
14903,832
14910,831
14918,832
15048,843
15056,840
15063,840
15071,843
15078,841
15086,836
15094,909
15101,1061
15109,1137
15117,1071
15127,695
15134,642
15142,691
15149,731
15171,785
15178,794
15186,796
15193,797
15201,797
15209,799
15216,793
15224,798
15232,799
15239,801
15247,803
15255,806
15262,810
15270,814
15278,820
15285,826
15293,833
15301,845
15308,857
15316,858
15324,860
15453,764
15461,769
15468,771
15476,773
15484,776
15491,776
15499,776
15507,780
15514,779
15522,780
15530,780
15537,780
15545,776
15552,773
15560,775
15568,777
15575,784
15583,787
15591,795
15598,798
15606,802
15613,799
15623,795
15631,784
15639,776
15646,771
15654,772
15675,780
15682,786
15690,794
15698,800
15705,806
15713,815
15721,821
15729,829
15736,829
15867,873
15874,874
15882,876
15889,879
15897,878
15905,879
15912,882
15920,885
15928,891
15935,896
15943,901
15951,908
15958,915
15966,918
15974,917
15981,910
15989,900
15996,883
16004,869
16012,853
16019,833
16027,811
16035,798
16042,788
16050,781
16058,777
16065,778
16073,779
16080,776
16088,775
16096,778
16103,780
16113,782
16257,815
16265,808
16273,804
16280,801
16288,804
16295,811
16303,810
16311,807
16318,800
16326,796
16334,791
16341,786
16349,779
16357,774
16364,768
16372,768
16380,765
16387,763
16395,758
16402,759
16410,760
16418,761
16425,767
16433,760
16441,793
16448,917
16456,1097
16463,1131
16471,1006
16479,720
16486,668
16494,691
16502,714
16632,846
16640,854
16648,862
16655,872
16663,877
16670,879
16678,878
16686,871
16693,866
16701,856
16709,841
16716,825
16724,807
16734,789
16741,771
16762,755
16770,759
16778,767
16785,775
16793,782
16801,788
16808,797
16816,807
16823,814
16831,819
16839,828
16847,829
16854,833
16862,836
16869,841
16877,841
16885,844
16892,848
16900,846
16908,847
16915,846
17046,873
17053,869
17061,861
17069,859
17076,857
17084,851
17091,849
17099,845
17107,847
17114,846
17122,845
17130,845
17137,833
17145,883
17153,1020
17160,1183
17168,1163
17175,982
17183,733
17191,722
17198,752
17206,780
17214,785
17224,793
17231,791
17239,792
17246,796
17268,799
17275,797
17283,799
17290,800
17298,805
17306,809
17313,809
17321,810
17329,815
17459,759
17467,757
17474,758
17482,755
17490,757
17497,755
17505,755
17513,759
17520,763
17528,765
17536,766
17543,772
17551,770
17558,772
17566,777
17574,777
17581,776
17589,778
17597,779
17604,783
17612,784
17619,784
17627,785
17635,787
17642,784
17650,787
17658,791
17665,790
17673,794
17681,793
17688,791
17696,794
17839,843
17849,850
17857,842
17865,838
17872,924
17880,1091
17887,1168
17895,1101
17903,809
17910,695
17918,741
17926,781
17933,816
17941,833
17949,843
17956,859
17964,867
17971,862
17979,862
17987,866
17994,867
18002,868
18010,874
18017,880
18025,884
18033,886
18040,885
18048,888
18055,897
18063,904
18071,914
18078,924
18086,934
18215,816
18223,816
18231,817
18238,813
18246,815
18254,818
18261,816
18269,814
18277,816
18284,814
18292,814
18300,813
18307,812
18315,810
18322,804
18346,785
18354,788
18361,792
18369,789
18376,789
18384,790
18392,785
18399,779
18407,776
18415,769
18422,764
18430,759
18438,757
18445,756
18453,756
18461,756
18468,755
18476,756
18484,755
18491,757
18499,759
18629,797
18637,802
18644,806
18652,806
18660,814
18667,817
18675,817
18683,820
18690,824
18698,826
18705,833
18713,842
18721,851
18728,864
18736,875
18744,884
18751,886
18759,882
18767,873
18774,864
18782,848
18789,835
18797,816
18805,797
18812,782
18822,766
18830,754
18851,745
18859,751
18866,756
18874,765
18881,774
18889,783
18897,793
18904,802
18912,811
19041,875
19049,878
19057,880
19065,868
19072,856
19080,851
19087,848
19095,843
19103,840
19110,839
19118,834
19126,831
19133,828
19141,825
19149,826
19156,827
19164,825
19171,811
19179,924
19187,1152
19194,1281
19202,1190
19209,898
19217,727
19225,721
19233,732
19240,746
19248,755
19255,768
19263,775
19271,780
19414,870
19422,859
19430,845
19437,827
19447,799
19455,771
19463,748
19470,732
19478,724
19486,719
19493,718
19501,718
19508,720
19516,721
19524,727
19531,729
19539,733
19547,738
19554,738
19562,739
19570,741
19577,744
19585,747
19592,749
19600,750
19608,751
19615,753
19623,753
19631,754
19638,756
19646,756
19654,758
19661,762
19669,761
19799,818
19806,820
19814,819
19821,821
19829,821
19837,826
19844,811
19852,861
19860,1031
19867,1233
19875,1216
19883,1041
19890,763
19898,728
19919,764
19926,776
19934,788
19944,804
19952,804
19959,809
19967,813
19975,819
19982,827
19990,836
19998,844
20005,850
20013,858
20020,861
20028,869
20036,878
20043,888
20051,897
20059,909
20066,917
20074,922
20204,851
20211,856
20219,853
20227,852
20234,851
20242,850
20250,848
20257,844
20265,843
20273,841
20280,839
20288,837
20295,836
20303,831
20311,823
20318,819
20326,821
20334,821
20341,830
20349,837
20357,839
20364,841
20372,842
20379,840
20387,836
20395,833
20402,828
20423,816
20434,807
20441,797
20449,790
20456,788
20464,783
20472,786
20479,785
20487,778
20495,783
20625,803
20632,806
20640,807
20648,807
20655,811
20663,817
20671,821
20678,825
20686,829
20693,835
20701,842
20709,850
20716,858
20724,864
20732,864
20739,855
20747,845
20754,832
20762,819
20770,805
20777,789
20785,776
20793,763
20800,753
20808,752
20816,749
20823,744
20831,745
20839,750
20846,754
20854,755
20861,760
21005,827
21012,825
21020,824
21028,825
21035,825
21043,827
21053,828
21061,823
21068,823
21076,827
21083,827
21091,830
21099,839
21106,833
21114,915
21122,1087
21129,1174
21137,1128
21145,829
21152,674
21160,727
21167,758
21175,792
21183,814
21190,826
21198,837
21206,845
21213,850
21221,852
21229,856
21236,862
21244,861
21251,861
21259,866
21389,866
21397,850
21404,834
21412,821
21419,809
21427,802
21435,798
21442,793
21450,786
21458,785
21465,790
21473,790
21481,792
21488,796
21509,800
21517,797
21525,787
21532,783
21542,780
21550,775
21558,772
21565,771
21573,771
21581,770
21588,763
21596,759
21603,758
21611,752
21619,743
21626,738
21634,740
21642,743
21649,745
21657,745
21665,745
21672,749
21802,790
21810,796
21818,801
21825,807
21833,806
21841,807
21848,809
21856,813
21864,818
21871,823
21879,827
21886,834
21894,841
21902,849
21909,860
21917,869
21925,873
21932,878
21940,879
21948,872
21955,859
21963,851
21970,842
21978,828
21986,814
21993,800
22014,777
22022,778
22029,782
22040,787
22047,783
22055,782
22062,790
22070,796
22078,806
22085,813
22215,874
22223,867
22230,863
22238,862
22246,861
22253,856
22261,851
22268,849
22276,849
22284,847
22291,847
22299,847
22307,831
22314,885
22322,1036
22329,1165
22337,1163
22345,928
22352,706
22360,721
22368,745
22375,770
22383,783
22391,793
22398,803
22406,808
22413,813
22421,815
22429,816
22436,817
22444,821
22588,829
22595,810
22603,792
22611,776
22618,764
22626,757
22634,750
22641,744
22651,742
22659,734
22667,730
22674,730
22682,732
22690,734
22697,738
22705,741
22712,745
22720,745
22728,747
22735,749
22743,748
22751,746
22758,748
22766,750
22774,756
22781,760
22789,765
22796,770
22804,770
22812,771
22819,770
22827,770
22835,769
22842,764
22972,734
22980,720
22987,734
22995,755
23003,762
23010,770
23018,777
23025,783
23033,787
23041,791
23048,793
23056,796
23064,800
23071,802
23092,815
23100,822
23108,832
23115,844
23123,855
23130,866
23140,882
23148,886
23156,888
23163,891
23171,889
23179,886
23186,876
23194,869
23202,859
23209,847
23217,835
23224,823
23232,819
23240,815
23247,814
23255,814
23263,817
23393,849
23401,845
23408,845
23416,847
23423,855
23431,857
23439,854
23446,850
23454,844
23462,843
23469,838
23477,836
23485,827
23492,823
23500,823
23507,822
23515,820
23523,819
23530,818
23538,819
23546,819
23553,818
23561,823
23569,802
23576,860
23597,1233
23605,1079
23613,774
23620,718
23628,724
23638,731
23646,724
23653,727
23661,733
23669,736
23798,850
23806,851
23813,847
23821,838
23829,827
23836,814
23844,800
23852,785
23859,769
23867,753
23874,742
23882,735
23890,732
23897,735
23905,737
23913,742
23920,743
23928,746
23936,752
23943,757
23951,758
23958,760
23966,765
23974,764
23981,766
23989,770
23997,773
24004,777
24012,780
24019,780
24027,781
24035,785
24178,821
24186,822
24193,827
24201,833
24209,837
24216,840
24224,849
24231,849
24239,877
24249,1060
24257,1210
24264,1162
24272,938
24280,759
24287,771
24295,806
24303,805
24310,804
24318,814
24325,822
24333,831
24341,837
24348,843
24356,847
24364,851
24371,842
24379,846
24387,853
24394,857
24402,858
24409,866
24417,872
24425,878
24432,885
24562,817
24570,820
24577,821
24585,826
24593,828
24600,819
24608,817
24616,817
24623,816
24631,813
24639,819
24646,825
24654,844
24662,850
24683,789
24690,790
24698,793
24706,788
24713,785
24721,777
24729,766
24736,757
24746,752
24754,748
24762,740
24769,735
24777,734
24784,739
24792,744
24800,756
24807,764
24815,771
24823,774
24830,775
24838,777
24846,772
24976,988
24983,692
24991,679
24999,719
25006,746
25014,768
25022,772
25029,782
25037,790
25045,793
25052,797
25060,802
25067,805
25075,814
25083,817
25090,815
25098,818
25105,823
25113,830
25121,835
25128,845
25136,853
25144,859
25151,868
25159,877
25167,888
25188,884
25195,880
25203,871
25211,864
25218,856
25226,843
25236,825
25243,809
25251,799
25259,796
25388,870
25396,871
25404,867
25411,859
25419,854
25426,854
25434,853
25442,854
25449,860
25457,859
25465,864
25472,862
25480,856
25488,847
25495,843
25503,835
25510,831
25518,829
25526,831
25533,830
25541,829
25549,828
25556,825
25564,825
25572,825
25579,828
25587,809
25594,877
25602,1038
25610,1137
25617,1111
25761,860
25769,860
25777,860
25784,864
25792,870
25799,875
25807,875
25815,874
25822,870
25830,864
25838,849
25848,829
25855,806
25863,788
25871,764
25878,746
25886,736
25893,728
25901,723
25909,719
25916,719
25924,720
25932,725
25939,728
25947,732
25955,736
25962,742
25970,746
25977,749
25985,755
25993,758
26000,762
26008,764
26016,769
26145,803
26153,805
26161,803
26168,805
26176,806
26184,805
26191,804
26199,807
26207,810
26214,793
26222,834
26229,975
26237,1125
26245,1144
26266,686
26273,720
26281,750
26289,779
26296,792
26304,808
26312,821
26319,831
26327,839
26334,846
26344,850
26352,846
26360,844
26367,850
26375,854
26383,863
26390,870
26398,880
26406,887
26413,897
26421,908
26429,920
26559,826
26567,831
26574,835
26582,830
26590,828
26597,832
26605,830
26612,830
26620,833
26628,832
26635,832
26643,830
26651,826
26658,821
26666,819
26674,819
26681,816
26689,817
26696,819
26704,821
26712,824
26719,827
26727,825
26735,820
26742,816
26750,812
26771,798
26779,796
26786,794
26794,789
26802,784
26809,783
26817,781
26825,779
26835,764
26842,768
26973,792
26980,798
26988,801
26995,803
27003,806
27011,810
27018,815
27026,819
27034,827
27041,835
27049,844
27057,853
27064,862
27072,863
27079,858
27087,852
27095,839
27102,826
27110,811
27118,801
27125,782
27133,768
27141,759
27148,751
27156,747
27163,748
27171,748
27179,750
27186,750
27194,754
27202,756
27209,760
27353,834
27360,836
27368,842
27376,841
27383,841
27391,840
27399,838
27406,833
27414,835
27421,836
27429,839
27437,839
27444,839
27454,846
27462,837
27470,840
27477,816
27485,856
27492,999
27500,1159
27508,1190
27515,1003
27523,743
27531,745
27538,766
27546,794
27554,807
27561,817
27569,829
27576,834
27584,836
27592,838
27599,841
27607,844
27737,900
27745,887
27752,873
27760,854
27768,837
27775,821
27783,809
27790,798
27798,794
27806,793
27813,790
27821,789
27829,788
27836,792
27857,792
27865,791
27873,786
27880,782
27888,781
27896,779
27903,779
27911,775
27918,772
27926,768
27934,764
27944,760
27951,745
27959,736
27967,737
27974,737
27982,743
27990,753
27997,763
28005,766
28012,771
28020,774
28150,1182
28158,1125
28166,827
28173,714
28181,723
28189,744
28196,760
28204,766
28212,777
28219,786
28227,787
28234,792
28242,797
28250,798
28257,800
28265,804
28273,806
28280,808
28288,812
28296,816
28303,825
28311,831
28318,840
28326,845
28334,856
28341,866
28362,877
28370,879
28378,875
28385,870
28393,861
28400,852
28408,839
28416,826
28423,816
28556,863
28563,865
28571,865
28579,861
28586,859
28594,854
28602,851
28609,842
28617,843
28624,846
28632,849
28640,851
28647,858
28655,860
28663,852
28670,849
28678,843
28686,843
28693,837
28701,832
28708,828
28716,827
28724,825
28731,825
28739,825
28747,826
28754,823
28762,818
28770,823
28777,803
28785,847
28792,985
28936,836
28944,835
28951,833
28959,833
28967,837
28974,834
28982,840
28990,845
28997,849
29005,852
29012,850
29020,845
29028,835
29035,823
29043,808
29053,790
29061,764
29068,743
29076,727
29083,720
29091,713
29099,709
29106,710
29114,714
29122,719
29129,723
29137,731
29145,733
29152,738
29160,740
29167,747
29175,749
29183,753
29190,757
29320,820
29328,820
29335,820
29343,821
29351,819
29358,814
29366,808
29374,805
29381,803
29389,804
29397,805
29404,808
29412,803
29419,804
29440,799
29448,822
29456,940
29463,1109
29471,1178
29479,1058
29486,770
29494,739
29502,764
29509,792
29517,805
29525,812
29532,822
29542,831
29550,828
29557,827
29565,832
29573,837
29580,840
29588,845
29596,851
29603,856
29734,859
29741,845
29749,833
29757,823
29764,819
29772,816
29780,813
29787,811
29795,810
29803,813
29810,813
29818,813
29825,813
29833,815
29841,815
29848,815
29856,814
29864,815
29871,814
29879,813
29887,812
29894,807
29902,809
29909,801
29917,798
29925,793
29946,793
29954,796
29961,797
29969,798
29977,798
29984,794
29992,788
29999,783
30007,778
30137,817
30144,700
30152,712
30162,732
30170,731
30177,737
30185,742
30193,746
30200,753
30208,758
30216,763
30223,767
30231,771
30238,778
30246,781
30254,784
30261,789
30269,794
30277,799
30284,810
30292,818
30300,829
30307,838
30315,848
30322,855
30330,855
30338,853
30345,849
30353,839
30361,828
30368,817
30376,805
30384,793
30527,826
30535,827
30542,829
30550,834
30558,834
30566,838
30573,840
30581,839
30588,837
30596,833
30604,840
30611,846
30619,854
30627,862
30634,866
30642,864
30652,865
30659,855
30667,848
30675,845
30682,842
30690,841
30698,841
30705,840
30713,840
30720,844
30728,845
30736,847
30743,851
30751,858
30759,845
30766,857
30774,968
30782,1141
30911,859
30919,860
30927,861
30934,862
30942,867
30950,871
30957,875
30965,881
30973,888
30980,893
30988,899
30995,898
31003,891
31011,880
31032,847
31039,831
31047,810
31055,791
31063,774
31070,760
31078,748
31085,744
31093,741
31101,739
31108,741
31116,743
31124,745
31131,744
31139,745
31149,745
31156,740
31164,735
31172,737
31179,738
31187,739
31195,741
31325,807
31333,803
31340,799
31348,799
31356,799
31363,798
31371,797
31378,797
31386,796
31394,797
31401,800
31409,781
31417,825
31424,973
31432,1148
31439,1174
31447,967
31455,715
31462,703
31470,727
31478,744
31485,752
31493,761
31501,771
31508,778
31516,784
31537,800
31544,805
31552,813
31560,821
31567,829
31575,837
31583,843
31590,852
31598,864
31728,836
31736,835
31743,831
31751,831
31761,832
31769,828
31776,824
31784,821
31792,822
31799,823
31807,824
31814,824
31822,826
31830,826
31837,826
31845,826
31853,826
31860,824
31868,822
31876,814
31883,810
31891,806
31898,809
31906,820
31914,829
31921,831
31929,829
31937,829
31944,824
31952,821
31959,818
31967,813
31975,805
32119,778
32126,775
32134,777
32142,781
32149,778
32157,778
32165,777
32172,776
32180,774
32188,775
32195,775
32203,778
32211,779
32218,780
32226,781
32233,785
32241,792
32249,801
32259,812
32266,812
32274,813
32282,813
32289,813
32297,809
32305,804
32312,796
32320,788
32327,776
32335,766
32343,755
32350,747
32358,743
32366,739
32373,739
32503,795
32511,793
32518,796
32526,800
32533,806
32541,815
32549,819
32556,821
32564,822
32572,819
32579,815
32587,812
32595,806
32602,807
32623,806
32631,808
32638,816
32646,818
32654,823
32661,833
32669,845
32677,828
32684,882
32692,1034
32700,1196
32707,1207
32715,983
32723,737
32730,751
32738,788
32748,816
32755,812
32763,819
32771,827
32778,831
32786,839
32916,937
32924,931
32932,917
32939,905
32947,890
32955,875
32962,857
32970,843
32978,828
32985,820
32993,810
33001,803
33008,800
33016,799
33023,799
33031,802
33039,804
33046,804
33054,807
33062,807
33069,808
33077,807
33085,809
33092,807
33100,802
33107,794
33129,789
33136,791
33144,793
33152,794
33159,794
33167,795
33175,790
33182,781
33190,776
33320,999
33327,682
33335,641
33342,688
33350,720
33358,745
33368,756
33375,757
33383,761
33391,765
33398,767
33406,773
33414,776
33421,784
33429,788
33436,796
33444,804
33452,811
33459,817
33467,823
33475,832
33482,842
33490,854
33498,863
33505,870
33513,873
33520,875
33528,870
33536,860
33543,851
33551,844
33559,834
33566,813
33710,818
33718,820
33725,824
33733,826
33741,836
33748,842
33756,850
33764,853
33771,856
33779,854
33786,852
33794,849
33802,842
33809,837
33817,836
33825,837
33832,839
33840,842
33847,842
33857,844
33865,836
33873,837
33880,827
33888,836
33896,939
33903,1104
33911,1173
33918,1085
33926,773
33934,719
33941,753
33949,780
33957,800
33964,809
34094,915
34102,921
34109,921
34117,915
34125,906
34132,893
34140,879
34148,864
34155,853
34163,837
34171,819
34178,806
34186,796
34193,789
34215,774
34222,770
34230,767
34238,767
34245,767
34253,766
34261,765
34268,763
34276,766
34283,765
34291,764
34299,760
34306,757
34314,749
34322,750
34329,749
34337,754
34347,757
34355,752
34362,750
34370,756
34378,754
34508,1166
34515,1151
34523,880
34531,702
34538,712
34546,735
34554,753
34561,759
34569,767
34577,772
34584,779
34592,784
34599,786
34607,787
34615,788
34622,792
34630,795
34638,799
34645,802
34653,810
34661,817
34668,824
34676,831
34683,839
34691,849
34699,857
34720,863
34727,861
34735,859
34743,853
34750,844
34758,835
34766,826
34773,818
34781,811
34911,858
34919,852
34926,850
34934,850
34941,854
34949,856
34957,861
34967,856
34974,847
34982,842
34990,835
34997,832
35005,828
35012,821
35020,819
35028,818
35035,818
35043,821
35051,820
35058,821
35066,822
35074,826
35081,827
35089,811
35096,882
35104,1064
35112,1232
35119,1199
35127,917
35135,740
35142,744
35150,761
35293,876
35301,878
35309,877
35316,872
35324,863
35331,849
35339,836
35347,822
35354,808
35362,789
35370,773
35377,758
35385,746
35393,735
35400,728
35408,726
35416,725
35423,727
35431,730
35438,734
35446,740
35456,744
35464,738
35471,732
35479,732
35487,737
35494,741
35502,744
35509,747
35517,745
35525,746
35532,750
35540,759
35548,767
35677,818
35685,809
35693,821
35700,937
35708,1130
35716,1228
35723,1120
35731,803
35738,730
35746,743
35754,756
35762,759
35769,766
35777,774
35798,791
35805,798
35813,807
35821,815
35828,823
35836,828
35844,834
35851,843
35859,851
35867,859
35874,871
35882,879
35890,889
35897,901
35905,910
35912,916
35920,917
35928,911
35935,905
35945,890
35953,872
35961,857
36091,858
36099,859
36106,857
36114,849
36122,842
36129,841
36137,842
36144,844
36152,849
36160,855
36167,854
36175,851
36183,843
36190,838
36198,830
36206,826
36213,821
36221,817
36228,814
36236,812
36244,812
36251,811
36259,810
36267,810
36274,816
36282,815
36303,1019
36311,1196
36318,1189
36326,944
36334,717
36341,712
36349,728
36357,737
36364,736
36494,838
36502,850
36509,855
36517,853
36525,845
36532,834
36540,827
36548,815
36555,806
36565,790
36573,771
36580,750
36588,741
36596,736
36603,735
36611,738
36619,739
36626,743
36634,750
36641,757
36649,761
36657,768
36664,770
36672,774
36680,779
36687,783
36695,785
36703,787
36710,789
36718,789
36725,784
36733,786
36876,834
36884,839
36892,825
36899,859
36907,991
36914,1161
36922,1218
36930,1053
36937,756
36945,751
36953,783
36960,810
36968,819
36976,826
36983,834
36991,843
36999,850
37006,854
37014,854
37021,858
37029,860
37037,860
37044,865
37054,870
37062,866
37070,864
37077,871
37085,877
37092,889
37100,898
37108,903
37115,909
37123,912
37131,906
37260,827
37268,829
37276,831
37283,830
37291,828
37299,827
37306,826
37314,820
37322,813
37329,808
37337,808
37344,808
37352,806
37360,810
37381,818
37389,814
37396,806
37404,800
37412,789
37419,779
37427,772
37434,770
37442,769
37450,763
37457,760
37465,761
37473,762
37480,761
37488,762
37496,743
37503,821
37511,991
37519,1090
37526,1058
37534,763
37667,838
37674,846
37682,851
37690,863
37697,868
37705,876
37713,883
37720,887
37728,883
37735,878
37743,870
37751,859
37758,849
37766,832
37774,818
37781,805
37789,792
37797,783
37804,777
37812,771
37819,767
37827,766
37835,765
37842,770
37850,774
37858,778
37865,780
37886,795
37894,800
37901,805
37909,807
37917,807
37924,812
37932,816
37940,823
37947,829
38077,865
38085,856
38092,864
38100,971
38108,1139
38115,1178
38123,1073
38131,751
38138,711
38146,744
38156,772
38163,787
38171,794
38179,802
38186,814
38194,822
38202,825
38209,828
38217,832
38224,837
38232,838
38240,842
38247,847
38255,852
38263,857
38270,864
38278,871
38286,877
38293,886
38301,894
38309,900
38316,899
38459,801
38467,797
38475,797
38483,792
38490,789
38498,786
38505,778
38513,772
38521,763
38528,759
38536,757
38544,757
38551,760
38559,763
38567,761
38574,764
38582,762
38589,759
38597,756
38605,754
38612,747
38620,744
38628,742
38635,745
38643,746
38653,745
38660,741
38668,742
38676,747
38683,731
38691,759
38699,883
38706,1057
38714,1124
38844,826
38851,831
38859,839
38867,845
38874,852
38882,857
38890,867
38897,877
38905,883
38913,886
38920,881
38928,872
38935,857
38943,847
38964,814
38972,804
38979,795
38987,791
38995,789
39002,789
39010,793
39018,798
39025,801
39033,809
39040,819
39048,820
39056,824
39063,830
39071,836
39079,839
39086,841
39094,842
39102,843
39109,844
39117,841
39247,847
39254,847
39264,842
39272,833
39280,827
39287,830
39295,820
39303,821
39310,914
39318,1094
39325,1221
39333,1147
39341,831
39348,731
39356,747
39364,767
39371,777
39379,783
39387,793
39394,800
39402,802
39410,806
39417,809
39425,811
39432,811
39440,817
39448,820
39469,830
39477,831
39484,834
39492,836
39500,841
39507,847
39515,850
39522,855
39530,856
39660,767
39668,770
39676,774
39683,774
39691,778
39699,777
39706,778
39714,777
39722,778
39729,778
39737,776
39744,776
39752,775
39762,770
39770,759
39777,757
39785,758
39793,767
39800,775
39808,786
39815,791
39823,795
39831,797
39838,797
39846,800
39854,799
39861,792
39869,789
39877,791
39884,792
39892,795
39900,798
40042,817
40050,820
40058,825
40065,831
40073,837
40081,843
40088,851
40096,857
40104,862
40111,871
40119,877
40127,889
40134,896
40142,907
40149,914
40157,923
40165,923
40172,920
40180,915
40188,903
40195,887
40203,873
40211,861
40218,845
40226,832
40233,820
40241,813
40251,808
40259,797
40266,795
40274,799
40282,801
40289,808
40297,810
40427,846
40434,845
40442,839
40449,833
40457,837
40465,838
40472,843
40480,845
40488,848
40495,847
40503,842
40511,840
40518,833
40526,828
40547,811
40555,808
40562,805
40570,800
40578,796
40585,793
40593,795
40601,780
40608,788
40616,892
40624,1074
40631,1164
40639,1062
40646,757
40654,679
40662,696
40669,715
40677,721
40685,724
40692,732
40700,739
40830,858
40837,860
40845,859
40853,852
40863,835
40870,819
40878,802
40886,786
40893,771
40901,758
40908,755
40916,749
40924,745
40931,746
40939,750
40947,752
40954,758
40962,765
40970,771
40977,775
40985,774
40992,780
41000,781
41008,781
41015,784
41023,788
41031,791
41051,795
41059,801
41067,809
41075,814
41082,820
41090,825
41098,824
41105,825
41113,825
41243,873
41251,869
41259,868
41266,870
41274,873
41282,873
41289,857
41297,914
41304,1075
41312,1253
41320,1220
41327,979
41335,762
41343,764
41350,785
41360,796
41368,791
41375,799
41383,802
41391,806
41398,810
41406,815
41414,819
41421,822
41429,824
41436,828
41444,834
41452,839
41459,847
41467,852
41475,855
41482,863
41626,799
41633,797
41641,793
41648,790
41656,784
41664,783
41672,783
41679,780
41687,775
41694,772
41702,770
41710,769
41717,768
41725,766
41733,764
41740,765
41748,761
41755,759
41763,760
41771,756
41778,757
41786,758
41794,753
41801,750
41809,750
41817,756
41824,763
41832,773
41839,781
41849,784
41857,779
41865,772
41872,771
41880,771
42010,660
42017,709
42025,748
42033,775
42040,788
42048,797
42056,803
42063,812
42071,816
42079,818
42086,818
42094,821
42101,823
42109,826
42130,838
42138,847
42145,856
42153,868
42161,882
42168,895
42176,909
42184,917
42191,926
42199,927
42207,925
42214,915
42222,905
42229,897
42237,885
42245,871
42252,854
42260,838
42268,826
42275,819
42283,813
42291,811
42420,845
42428,843
42435,837
42443,832
42451,832
42458,830
42468,831
42476,828
42484,824
42491,826
42499,827
42506,824
42514,821
42522,818
42529,811
42537,808
42545,810
42552,808
42560,809
42568,808
42575,808
42583,806
42590,810
42598,815
42606,800
42613,878
42635,1135
42642,889
42650,646
42658,676
42665,707
42673,733
42680,746
42688,754
42696,762
42703,764
42834,871
42841,869
42849,862
42857,851
42864,839
42872,825
42880,810
42887,792
42895,774
42903,760
42910,752
42918,745
42925,740
42933,736
42941,737
42948,739
42958,744
42966,739
42974,740
42981,743
42989,750
42996,757
43004,762
43012,766
43019,772
43027,777
43035,776
43042,777
43050,779
43058,781
43065,783
43073,784
43216,821
43223,825
43231,828
43239,831
43246,839
43254,820
43262,868
43269,1020
43277,1207
43285,1229
43292,1019
43300,752
43308,747
43315,773
43323,798
43331,805
43338,815
43346,825
43353,830
43361,832
43369,832
43376,836
43384,842
43392,847
43399,849
43407,854
43415,859
43422,860
43430,866
43437,871
43447,881
43455,882
43463,884
43593,812
43600,813
43608,817
43616,817
43623,820
43631,822
43639,821
43646,823
43654,823
43662,823
43669,822
43677,823
43684,821
43692,818
43700,816
43721,809
43728,805
43736,798
43744,790
43751,779
43759,775
43767,772
43774,775
43782,776
43790,782
43797,782
43805,783
43813,783
43820,776
43828,773
43835,768
43843,765
43851,761
43858,764
43866,765
43874,766
44003,783
44011,790
44018,794
44026,796
44034,797
44041,799
44049,802
44057,805
44067,806
44074,802
44082,803
44089,807
44097,815
44105,821
44112,834
44120,843
44128,856
44135,866
44143,871
44150,868
44158,867
44166,862
44173,851
44181,838
44189,826
44196,812
44204,799
44225,781
44232,780
44240,782
44248,788
44256,794
44263,802
44271,810
44278,818
44286,822
44416,870
44423,866
44431,866
44439,869
44446,874
44454,877
44461,879
44469,875
44477,871
44484,866
44492,864
44500,859
44507,850
44515,844
44523,843
44530,842
44538,841
44545,841
44553,839
44563,841
44571,834
44578,812
44586,849
44594,987
44601,1170
44609,1202
44616,1031
44624,752
44632,731
44639,758
44647,780
44655,784
44798,903
44806,898
44813,894
44821,883
44828,871
44836,857
44844,842
44851,825
44859,808
44867,787
44874,769
44882,757
44890,747
44897,740
44905,735
44913,735
44920,735
44928,735
44936,736
44943,740
44951,742
44959,744
44966,745
44974,745
44981,749
44989,751
44997,753
45004,753
45012,754
45020,753
45027,752
45035,750
45042,755
45052,755
45182,811
45190,815
45197,822
45205,799
45213,850
45220,998
45228,1148
45236,1156
45243,938
45251,667
45259,689
45266,726
45274,755
45281,767
45302,798
45310,804
45318,811
45325,820
45333,828
45341,835
45348,844
45356,850
45364,855
45371,862
45379,870
45386,876
45394,886
45402,897
45409,908
45417,919
45425,929
45432,936
45440,935
45448,930
45455,920
45585,834
45593,838
45601,841
45608,837
45616,833
45623,833
45631,830
45639,827
45646,824
45654,818
45664,813
45672,806
45679,800
45687,796
45695,802
45702,808
45710,813
45717,818
45725,817
45733,813
45740,810
45748,805
45756,801
45763,802
45771,805
45779,805
45786,804
45807,807
45815,806
45823,799
45830,787
45838,874
45846,1055
45853,1170
45861,1087
45869,752
45999,806
46007,813
46014,821
46022,824
46029,833
46037,841
46045,848
46052,852
46060,854
46068,845
46075,836
46083,826
46091,817
46098,801
46106,788
46113,775
46121,757
46129,749
46136,745
46144,743
46154,739
46162,732
46169,729
46177,732
46185,737
46192,745
46200,750
46207,756
46215,762
46223,768
46230,774
46238,779
46381,831
46389,828
46396,832
46404,832
46412,834
46419,839
46427,842
46434,847
46442,851
46450,855
46457,861
46465,838
46473,886
46480,1057
46488,1253
46496,1270
46503,1045
46511,783
46519,766
46526,788
46534,804
46541,811
46549,818
46557,822
46564,829
46572,833
46580,835
46587,837
46595,840
46603,843
46610,847
46618,850
46625,852
46756,838
46763,823
46773,809
46781,796
46789,783
46796,780
46804,780
46812,784
46819,786
46827,792
46835,794
46842,799
46850,796
46858,798
46865,803
46886,800
46894,798
46902,794
46909,791
46917,786
46925,781
46932,771
46940,762
46947,762
46955,765
46963,767
46970,770
46978,777
46986,779
46993,782
47001,778
47009,773
47016,769
47024,765
47031,763
47039,764
47169,758
47177,761
47185,771
47192,781
47200,785
47208,789
47215,794
47223,797
47231,797
47238,799
47246,804
47253,805
47263,807
47271,806
47279,808
47286,813
47294,827
47302,836
47309,845
47317,860
47324,868
47332,870
47340,868
47347,864
47355,858
47363,851
47370,841
47391,804
47399,797
47407,793
47414,794
47422,794
47429,794
47437,799
47445,805
47453,809
47583,879
47591,880
47598,884
47606,880
47613,872
47621,864
47629,859
47636,854
47644,850
47652,849
47659,846
47667,843
47675,841
47682,843
47690,846
47697,845
47705,845
47713,824
47720,864
47728,1005
47736,1158
47743,1178
47753,863
47761,667
47768,704
47776,739
47784,771
47791,784
47799,790
47807,802
47814,811
47822,817
47965,906
47973,886
47981,867
47988,846
47996,823
48004,800
48011,784
48019,770
48027,756
48034,745
48042,737
48049,733
48057,731
48065,731
48072,733
48080,736
48088,736
48095,740
48103,741
48111,744
48118,748
48126,748
48133,746
48141,743
48149,742
48156,744
48164,745
48172,750
48179,757
48187,762
48194,766
48202,771
48210,771
48217,765
48347,1137
48355,911
48363,659
48373,698
48380,716
48388,737
48396,752
48403,763
48411,774
48418,784
48426,790
48434,796
48441,798
48449,802
48470,820
48478,832
48485,837
48493,846
48501,860
48508,875
48516,885
48524,900
48531,915
48539,925
48546,932
48554,929
48562,924
48569,918
48577,903
48585,891
48592,877
48600,858
48608,843
48615,836
48623,829
48630,822
48761,850
48769,851
48776,853
48784,854
48792,857
48799,853
48807,848
48814,841
48822,836
48830,832
48837,828
48845,821
48853,817
48863,816
48870,806
48878,803
48885,803
48893,801
48901,803
48908,808
48916,810
48924,801
48931,889
48939,1067
48946,1176
48954,1121
48975,707
48983,730
48991,752
48998,756
49006,765
49014,774
49021,773
49029,774
49036,775
49166,864
49174,854
49182,842
49189,827
49197,811
49204,791
49212,772
49220,759
49227,754
49235,750
49243,747
49250,744
49258,742
49265,743
49273,752
49281,757
49288,759
49296,766
49304,770
49311,776
49319,779
49327,781
49334,785
49342,786
49349,785
49359,783
49367,771
49375,770
49382,775
49390,782
49398,789
49405,796
49413,801
49557,1223
49564,1118
49572,793
49580,740
49587,763
49595,791
49603,809
49610,819
49618,834
49625,844
49633,850
49641,855
49648,861
49656,864
49664,867
49671,870
49679,876
49687,881
49694,883
49702,889
49709,891
49717,897
49725,903
49732,916
49740,922
49748,928
49755,926
49763,930
49771,930
49778,923
49786,909
49793,899
49801,886
49931,842
49939,841
49947,840
49954,833
49962,827
49972,819
49979,806
49987,802
49995,799
50002,804
50010,809
50018,816
50025,819
50033,825
50040,821
50062,811
50069,806
50077,797
50085,796
50092,798
50100,786
50108,787
50115,786
50123,768
50131,762
50138,768
50146,756
50153,765
50161,886
50169,1076
50176,1171
50184,1062
50192,713
50199,649
50207,667
50215,688
50345,844
50352,854
50360,864
50368,872
50375,877
50383,875
50391,871
50398,864
50406,853
50414,843
50421,829
50429,813
50437,796
50444,784
50452,773
50462,768
50469,758
50477,752
50485,751
50492,754
50500,759
50508,766
50515,770
50523,773
50531,776
50538,779
50546,787
50567,792
50575,800
50582,806
50590,807
50597,810
50605,818
50613,824
50620,832
50628,842
50757,865
50765,854
50773,854
50780,975
50788,1173
50796,1240
50803,1135
50811,802
50819,717
50826,734
50834,759
50842,782
50849,791
50857,802
50864,813
50872,818
50880,820
50887,821
50895,823
50903,823
50910,828
50918,828
50926,830
50933,832
50941,839
50948,846
50958,856
50966,853
50974,859
50981,868
50989,877
50997,883
51140,797
51147,795
51155,790
51163,786
51170,784
51178,784
51186,778
51193,774
51201,770
51209,768
51216,766
51224,761
51232,757
51239,753
51247,751
51254,750
51262,747
51270,744
51277,741
51285,739
51293,740
51300,745
51308,757
51316,766
51323,769
51331,771
51338,773
51346,774
51354,773
51361,768
51369,761
51377,757
51384,757
51392,758
51522,761
51530,772
51537,781
51545,787
51552,793
51560,794
51570,798
51578,791
51585,788
51593,790
51600,797
51608,802
51616,807
51623,813
51644,838
51652,855
51660,870
51667,883
51675,895
51683,903
51690,904
51698,902
51706,896
51713,888
51721,876
51729,861
51736,845
51744,834
51751,824
51759,816
51767,811
51774,811
51782,812
51790,814
51797,818
51805,820
51935,857
51943,856
51951,856
51958,851
51966,847
51974,844
51981,837
51989,837
51997,843
52004,850
52012,853
52019,854
52027,851
52035,848
52042,845
52050,839
52058,837
52068,825
52075,813
52083,806
52090,806
52098,806
52106,807
52113,808
52121,808
52129,813
52150,839
52157,961
52165,1158
52173,1179
52180,1032
52188,740
52196,695
52203,719
52211,745
52341,840
52348,849
52356,859
52363,869
52371,875
52379,878
52386,874
52394,868
52402,854
52409,842
52417,828
52425,810
52432,792
52440,776
52447,763
52455,753
52463,749
52470,747
52478,745
52486,746
52493,751
52501,757
52509,760
52516,761
52524,767
52531,771
52539,770
52547,772
52557,778
52564,770
52572,765
52580,767
52587,771
52731,848
52739,849
52746,844
52754,842
52762,841
52769,844
52777,847
52785,849
52792,852
52800,854
52808,855
52815,858
52823,853
52830,862
52838,958
52846,1128
52853,1187
52861,1080
52869,749
52876,699
52884,748
52891,788
52899,812
52907,820
52914,828
52922,839
52930,848
52937,851
52945,851
52953,853
52960,855
52968,861
52976,863
53106,881
53113,862
53121,844
53129,828
53136,815
53144,808
53152,801
53159,793
53169,791
53177,784
53184,781
53192,782
53200,783
53207,786
53215,788
53236,793
53244,791
53251,789
53259,785
53267,784
53275,779
53282,771
53290,765
53297,764
53305,764
53313,767
53320,768
53328,771
53336,772
53343,770
53351,767
53358,767
53366,766
53374,760
53381,755
53389,753
53519,705
53527,737
53535,758
53542,769
53550,778
53557,788
53565,792
53573,793
53581,797
53588,801
53596,803
53603,805
53611,806
53619,809
53626,816
53634,825
53642,831
53649,842
53657,850
53667,865
53674,865
53682,867
53690,873
53697,875
53705,871
53713,859
53720,849
53741,819
53749,807
53756,798
53764,794
53772,794
53780,792
53787,792
53795,795
53802,798
53810,806
53940,858
53948,860
53955,863
53963,867
53971,867
53978,865
53986,861
53994,856
54001,850
54009,840
54017,834
54024,827
54032,826
54040,828
54047,826
54055,824
54062,825
54070,828
54078,833
54085,833
54093,824
54101,900
54108,1060
54116,1164
54124,1111
54131,809
54139,679
54146,714
54156,755
54164,771
54172,775
54315,913
54323,911
54331,898
54338,886
54346,872
54353,858
54361,834
54369,810
54376,790
54384,772
54392,759
54399,748
54407,740
54415,735
54422,730
54430,730
54438,732
54445,735
54453,734
54460,736
54468,741
54476,741
54483,744
54491,744
54499,747
54506,750
54514,754
54522,756
54529,758
54537,757
54544,754
54552,754
54560,749
54567,750
54697,805
54705,808
54713,813
54720,815
54728,804
54736,871
54743,1031
54751,1168
54758,1133
54768,762
54776,675
54784,695
54791,725
54799,747
54820,777
54827,788
54835,800
54843,811
54850,819
54858,828
54866,837
54874,847
54881,855
54889,860
54896,865
54904,874
54912,884
54919,892
54927,903
54935,913
54942,924
54950,933
54957,937
54965,936
54973,929
55103,842
55110,844
55118,845
55125,842
55133,843
55141,843
55148,840
55156,834
55164,834
55171,833
55179,828
55187,821
55194,811
55202,812
55209,812
55217,816
55225,819
55232,828
55240,829
55248,831
55255,828
55265,821
55273,809
55280,800
55288,792
55296,791
55303,796
55324,797
55332,797
55340,798
55347,796
55355,800
55363,781
55370,819
55378,968
55386,1158
55516,796
55524,800
55531,804
55539,808
55547,812
55554,820
55562,827
55570,835
55577,844
55585,849
55593,853
55600,851
55608,847
55615,839
55623,828
55631,816
55638,801
55646,784
55654,770
55661,759
55669,749
55677,747
55684,744
55692,746
55699,748
55707,752
55715,757
55722,757
55730,762
55738,766
55745,767
55755,772
55763,767
55907,848
55914,846
55922,846
55929,846
55937,841
55945,838
55952,842
55960,846
55968,847
55975,848
55983,851
55991,853
55998,861
56006,866
56014,853
56021,920
56029,1098
56036,1280
56044,1238
56052,1007
56059,786
56067,776
56075,799
56082,811
56090,817
56098,830
56105,838
56113,843
56120,843
56128,844
56136,851
56143,852
56151,855
56281,887
56289,870
56297,852
56304,834
56312,820
56320,811
56327,805
56335,801
56342,798
56350,800
56358,798
56365,802
56375,801
56383,793
56391,795
56412,787
56419,786
56427,785
56435,781
56442,775
56450,771
56458,771
56465,770
56473,771
56481,769
56488,770
56496,774
56504,780
56511,781
56519,778
56527,770
56534,768
56542,770
56549,763
56557,762
56565,761
56695,746
56702,764
56710,767
56718,778
56725,782
56733,787
56741,793
56748,797
56756,799
56764,799
56771,802
56779,805
56787,810
56794,815
56802,819
56809,824
56817,830
56825,838
56832,847
56840,861
56848,873
56855,878
56865,879
56873,864
56880,851
56888,841
56896,829
56917,792
56924,785
56932,782
56940,781
56947,779
56955,781
56962,784
56970,791
56978,798
57108,874
57116,874
57124,870
57131,864
57139,859
57147,853
57154,844
57162,838
57169,836
57177,835
57185,834
57192,833
57200,830
57208,830
57215,830
57223,833
57231,813
57238,860
57246,1013
57253,1156
57261,1160
57269,946
57276,680
57284,699
57292,727
57299,750
57307,777
57315,790
57322,804
57330,814
57337,818
57345,823
57491,886
57498,868
57506,848
57514,823
57521,802
57529,783
57537,769
57544,762
57552,757
57559,749
57567,748
57575,746
57582,747
57590,746
57598,749
57605,750
57613,752
57621,756
57628,756
57636,758
57644,758
57651,755
57659,754
57666,754
57674,756
57682,761
57689,764
57697,769
57705,769
57712,771
57720,767
57728,765
57735,763
57743,760
57873,677
57881,705
57888,727
57896,754
57904,769
57911,777
57919,787
57927,795
57934,798
57942,802
57949,805
57957,808
57965,811
57975,818
57996,819
58003,830
58011,843
58019,858
58026,871
58034,885
58041,899
58049,911
58057,914
58064,913
58072,906
58080,897
58087,888
58095,875
58103,864
58110,848
58118,836
58126,827
58133,821
58141,816
58148,814
58156,819
58286,870
58294,871
58302,873
58309,874
58317,870
58325,860
58332,856
58340,848
58348,838
58355,833
58363,829
58370,831
58378,829
58386,827
58393,826
58401,826
58409,824
58416,828
58424,808
58432,830
58439,963
58447,1144
58454,1204
58464,956
58472,707
58480,700
58501,751
58508,759
58516,768
58524,770
58531,774
58539,776
58547,777
58554,778
58562,781
58570,782
58700,804
58708,789
58715,776
58723,761
58731,751
58738,746
58746,743
58753,742
58761,742
58769,744
58776,747
58784,749
58792,753
58799,755
58807,758
58815,764
58822,766
58830,765
58837,765
58845,769
58853,770
58860,761
58868,761
58876,765
58883,771
58891,776
58899,783
58906,791
58914,791
58921,788
58929,786
58937,788
59080,729
59088,731
59098,763
59105,773
59113,778
59121,793
59128,805
59136,814
59144,820
59151,825
59159,832
59166,839
59174,847
59182,851
59189,856
59197,861
59205,869
59212,876
59220,885
59228,898
59235,907
59243,912
59250,919
59258,923
59266,922
59273,916
59281,906
59289,896
59296,882
59304,868
59312,855
59319,839
59327,826
59334,816
59464,836
59472,833
59479,828
59487,827
59495,825
59502,827
59510,832
59518,838
59525,838
59533,839
59541,834
59548,829
59556,822
59563,816
59587,793
59595,787
59602,782
59610,778
59618,773
59625,773
59633,772
59640,775
59648,752
59656,794
59663,943
59671,1131
59679,1164
59686,953
59694,693
59702,678
59709,694
59717,711
59725,717
59732,728
59740,736
59747,742
59878,863
59885,865
59893,857
59901,850
59908,842
59916,828
59924,811
59931,795
59939,783
59947,772
59954,764
59962,760
59969,764
59977,763
59985,763
59992,768
60000,770
