Tempo(ms),Leitura(ECG)
21,807
42,845
50,867
58,892
65,916
73,940
81,960
88,981
96,996
103,1013
111,1026
119,1037
126,1046
138,1054
146,1034
154,1005
161,972
169,942
176,908
184,875
192,847
199,820
207,796
215,776
222,757
230,736
238,721
245,712
253,727
260,748
268,777
276,802
283,827
291,849
298,871
306,893
314,910
321,928
329,943
336,955
344,963
352,971
359,976
367,985
375,988
382,989
390,991
398,993
405,997
413,994
420,995
428,992
436,989
443,988
451,987
459,981
466,975
474,964
481,959
489,959
497,961
504,961
512,955
519,951
527,942
548,926
556,917
564,902
571,885
581,870
589,852
597,836
604,828
612,820
619,816
627,811
635,792
642,793
650,875
657,1034
665,1124
673,1062
680,781
688,696
696,705
826,763
833,770
841,777
848,787
856,797
864,804
871,809
879,809
887,807
894,796
902,786
909,772
917,755
925,733
932,712
940,696
948,683
955,675
963,668
970,667
978,665
986,667
993,667
1001,670
1009,671
1016,673
1024,676
1032,679
1052,688
1060,692
1068,698
1075,706
1083,714
1091,721
1098,726
1106,733
1113,737
1121,743
1129,747
1139,750
1146,744
1154,743
1162,744
1169,749
1177,753
1184,757
1192,760
1200,766
1207,770
1215,774
1222,778
1230,780
1238,783
1246,785
1253,788
1261,789
1268,794
1276,795
1406,823
1413,819
1421,820
1429,823
1436,831
1444,832
1451,830
1459,827
1467,827
1474,827
1482,821
1490,817
1497,814
1505,807
1513,800
1520,800
1528,799
1535,798
1557,801
1565,792
1572,784
1580,842
1587,997
1595,1128
1603,1087
1610,831
1618,695
1626,694
1633,702
1641,708
1648,708
1656,714
1666,719
1674,714
1681,713
1689,715
1696,716
1704,719
1712,721
1719,726
1727,732
1735,739
1742,745
1750,754
1757,762
1765,773
1773,785
1780,798
1788,815
1918,767
1926,768
1934,771
1941,775
1949,777
1956,779
1964,780
1972,783
1979,785
1987,788
1995,785
2002,785
2010,785
2017,787
2025,788
2033,788
2040,791
2061,797
2069,804
2076,808
2084,814
2092,819
2100,822
2107,828
2115,831
2122,836
2130,839
2138,844
2145,847
2153,852
2160,855
2168,858
2176,859
2183,861
2193,862
2201,856
2208,851
2216,849
2224,852
2231,853
2239,856
2246,859
2254,860
2262,860
2269,864
2277,863
2285,864
2292,865
2300,866
2430,869
2437,871
2445,869
2453,869
2460,869
2468,856
2475,889
2483,1010
2491,1199
2498,1203
2506,1035
2514,812
2521,784
2529,787
2537,791
2544,786
2565,794
2573,795
2581,791
2588,789
2596,785
2603,783
2611,779
2619,779
2627,777
2634,775
2642,776
2649,779
2657,784
2665,788
2672,796
2680,806
2687,818
2695,828
2703,838
2710,840
2720,838
2728,822
2736,808
2743,792
2751,775
2759,757
2766,740
2774,729
2781,723
2789,719
2797,716
2804,720
2934,806
2942,808
2949,809
2957,807
2965,804
2972,804
2980,801
2987,800
2995,798
3003,797
3010,797
3018,800
3025,798
3033,797
3041,799
3048,800
3069,803
3077,806
3085,812
3092,817
3100,822
3108,828
3115,831
3123,837
3130,841
3138,845
3146,845
3153,848
3161,849
3169,847
3176,847
3184,854
3192,863
3199,870
3207,876
3214,879
3222,880
3230,880
3237,879
3247,872
3255,861
3263,847
3270,842
3278,844
3285,842
3293,843
3301,846
3308,849
3316,855
3324,847
3454,858
3461,859
3469,860
3477,860
3484,860
3492,859
3500,859
3507,862
3515,865
3522,872
3530,878
3538,886
3545,896
3553,904
3574,898
3582,885
3590,869
3597,847
3605,823
3613,798
3620,776
3628,756
3635,741
3643,729
3651,722
3658,718
3666,717
3673,717
3681,715
3689,716
3696,718
3704,719
3712,719
3719,721
3727,722
3735,726
3742,728
3750,731
3757,731
3765,733
3775,735
3783,729
3790,726
3798,725
3806,728
3813,733
3821,733
3828,735
3836,739
3844,742
3974,814
3981,825
3989,829
3997,831
4004,833
4012,831
4019,831
4027,826
4035,821
4042,818
4050,810
4057,809
4078,808
4086,812
4094,816
4101,827
4109,820
4117,862
4124,984
4132,1155
4140,1154
4147,980
4155,767
4162,770
4170,799
4178,817
4185,821
4193,826
4201,834
4208,839
4216,845
4224,847
4231,851
4239,855
4246,858
4254,863
4262,862
4269,865
4277,868
4285,873
4292,878
4302,887
4310,889
4317,892
4325,904
4333,915
4340,925
4348,930
4478,826
4485,831
4493,831
4500,832
4508,832
4516,833
4524,833
4531,830
4539,830
4546,828
4554,827
4562,824
4583,814
4590,811
4598,805
4606,801
4613,792
4621,784
4628,779
4636,776
4644,771
4652,767
4659,759
4667,750
4674,749
4682,752
4690,760
4697,766
4705,769
4713,769
4720,767
4728,768
4735,767
4743,763
4751,759
4758,754
4766,752
4774,754
4781,753
4789,756
4796,758
4804,760
4812,763
4819,769
4827,756
4837,815
4845,962
4852,1106
4860,1058
4990,838
4998,842
5005,845
5013,852
5021,863
5028,870
5036,879
5043,889
5051,897
5059,904
5066,904
5087,889
5095,880
5103,868
5110,855
5118,840
5126,828
5133,817
5141,812
5148,808
5156,807
5164,807
5171,811
5179,812
5187,816
5194,822
5202,826
5209,830
5217,834
5225,836
5232,836
5240,838
5248,841
5255,845
5263,847
5271,848
5278,846
5286,845
5293,845
5301,843
5309,844
5316,844
5324,845
5331,840
5339,836
5347,833
5354,835
5364,838
5372,836
5380,838
5510,851
5518,929
5525,1107
5533,1216
5540,1159
5548,845
5556,699
5563,748
5571,780
5592,807
5600,809
5608,812
5615,809
5623,806
5630,801
5638,800
5646,797
5653,795
5661,793
5668,792
5676,792
5684,795
5692,801
5699,804
5707,811
5714,822
5722,831
5730,838
5737,846
5745,849
5752,844
5760,837
5768,825
5775,815
5783,803
5791,788
5798,771
5806,758
5814,743
5821,737
5829,730
5836,725
5844,723
5852,722
5859,725
5867,729
5875,734
5885,740
6014,813
6022,821
6029,827
6037,827
6045,824
6052,820
6060,814
6067,808
6075,806
6096,805
6104,808
6111,812
6119,819
6127,826
6134,831
6142,839
6150,824
6157,894
6165,1059
6172,1160
6180,1122
6188,872
6195,682
6203,738
6211,772
6218,798
6226,819
6234,826
6241,837
6249,844
6256,850
6264,852
6272,857
6279,857
6287,861
6295,864
6302,866
6310,872
6318,877
6325,883
6333,887
6340,894
6348,901
6356,910
6363,921
6371,932
6379,939
6386,936
6516,819
6524,821
6534,821
6541,815
6549,810
6557,811
6564,809
6572,809
6580,806
6601,797
6608,796
6616,793
6624,794
6631,795
6639,792
6647,791
6654,789
6662,783
6670,777
6677,772
6685,766
6692,761
6700,758
6708,755
6715,753
6723,754
6731,752
6738,752
6746,754
6754,755
6761,757
6769,741
6776,786
6784,929
6792,1065
6799,1062
6807,889
6814,622
6822,645
6830,679
6837,699
6845,724
6853,734
6860,743
6868,752
6876,759
6883,763
6891,769
6898,773
7029,888
7036,877
7044,862
7052,842
7062,820
7069,793
7077,777
7084,768
7105,764
7113,768
7121,775
7128,781
7136,790
7144,799
7151,808
7159,817
7166,822
7174,828
7182,832
7189,836
7197,837
7205,835
7212,836
7220,841
7228,841
7235,846
7243,852
7250,856
7258,860
7266,861
7273,862
7281,858
7289,856
7296,855
7304,850
7312,845
7319,843
7327,846
7334,845
7342,844
7350,845
7357,850
7365,849
7373,850
7380,848
7388,838
7395,909
7403,1071
7411,1153
7540,857
7548,860
7555,861
7563,866
7571,870
7578,874
7588,884
7609,892
7617,889
7625,883
7632,871
7640,861
7648,845
7655,828
7663,808
7670,786
7678,768
7686,750
7693,742
7701,734
7709,731
7716,728
7724,727
7732,724
7739,728
7747,730
7754,733
7762,735
7770,737
7777,741
7785,741
7792,742
7800,747
7808,753
7815,750
7823,749
7831,747
7838,749
7846,750
7853,752
7861,758
7869,763
7876,770
7884,774
7892,778
7899,778
7907,776
7915,772
7922,772
8053,856
8060,719
8068,739
8076,752
8083,767
8091,775
8112,794
8119,798
8127,804
8137,811
8145,810
8152,811
8160,817
8168,822
8175,832
8183,841
8190,853
8198,863
8206,877
8213,889
8221,903
8229,914
8236,926
8244,936
8252,934
8259,929
8267,920
8274,910
8282,896
8290,881
8297,863
8305,851
8312,835
8320,825
8328,821
8335,816
8343,817
8351,816
8358,817
8366,818
8374,819
8381,820
8389,824
8396,825
8404,822
8412,824
8419,823
8427,826
8435,825
8442,827
8572,859
8580,861
8588,858
8595,852
8617,834
8624,824
8632,819
8639,815
8647,808
8655,803
8665,795
8672,782
8680,773
8688,774
8695,752
8703,773
8710,897
8718,1048
8726,1096
8733,984
8741,701
8749,675
8756,693
8764,711
8772,724
8779,733
8787,739
8795,749
8802,753
8810,756
8817,755
8825,758
8833,760
8840,766
8848,769
8856,774
8863,780
8871,784
8878,792
8886,801
8894,809
8901,821
8909,834
8916,846
8924,856
8932,858
8939,857
8947,851
8955,845
9085,802
9093,805
9100,803
9121,808
9129,812
9136,818
9144,822
9152,826
9159,830
9167,831
9174,833
9182,835
9192,836
9200,830
9207,825
9215,826
9223,831
9230,833
9238,838
9245,842
9253,843
9261,846
9268,847
9276,849
9284,849
9291,850
9299,849
9307,854
9314,858
9322,867
9330,868
9337,867
9345,868
9352,867
9360,864
9368,860
9375,857
9383,852
9391,848
9398,847
9406,849
9413,847
9421,844
9429,844
9436,843
9444,845
9451,846
9459,846
9467,847
9596,846
9604,848
9625,845
9633,845
9641,840
9648,836
9656,838
9663,836
9671,835
9679,839
9686,844
9694,855
9701,860
9709,861
9719,852
9727,838
9735,823
9742,806
9750,790
9757,779
9765,758
9773,743
9780,733
9788,725
9795,722
9803,723
9811,724
9818,726
9826,727
9834,728
9841,735
9849,735
9857,742
9864,742
9872,745
9879,746
9887,748
9895,753
9902,755
9910,759
9918,761
9925,765
9933,765
9941,767
9948,767
9956,769
9963,770
9971,771
9979,772
10108,824
10129,831
10137,832
10145,833
10153,835
10160,842
10168,847
10175,850
10183,850
10191,855
10198,855
10206,858
10213,858
10221,860
10229,861
10239,863
10246,856
10254,851
10262,849
10269,848
10277,849
10285,852
10292,859
10300,865
10307,865
10315,869
10323,872
10330,874
10338,873
10346,871
10353,869
10361,864
10369,857
10376,858
10384,855
10514,829
10521,830
10529,834
10537,834
10544,833
10552,831
10559,834
10567,834
10575,831
10582,829
10590,831
10597,836
10605,835
10613,837
10634,850
10642,855
10649,857
10657,866
10665,870
10672,869
10680,863
10688,854
10695,846
10703,830
10710,815
10718,795
10728,770
10736,744
10743,728
10751,713
10759,705
10766,700
10774,701
10781,703
10789,706
10797,709
10804,712
10934,789
10942,793
10950,792
10958,792
10965,790
10973,790
10980,788
10988,786
10996,788
11003,788
11011,787
11018,787
11026,788
11034,788
11041,791
11049,791
11057,791
11064,791
11072,793
11079,796
11087,798
11095,798
11102,796
11110,799
11118,798
11139,803
11146,806
11154,810
11162,816
11169,822
11177,828
11184,832
11192,837
11200,840
11207,846
11338,897
11348,892
11355,877
11363,869
11371,866
11378,865
11386,863
11393,864
11401,864
11409,864
11416,845
11424,890
11432,1033
11439,1194
11447,1193
11455,998
11462,790
11470,779
11477,784
11485,793
11493,796
11500,798
11508,805
11515,807
11523,809
11531,811
11538,814
11546,816
11554,817
11561,818
11569,818
11576,820
11720,815
11728,800
11735,785
11743,771
11751,764
11758,758
11766,753
11773,752
11781,746
11789,743
11796,742
11804,741
11812,740
11819,739
11827,738
11837,736
11844,728
11852,723
11860,723
11867,723
11875,727
11883,730
11890,733
11898,734
11905,736
11913,740
11921,742
11928,744
11936,745
11944,746
11951,747
11959,749
11966,753
11974,755
12104,815
12112,818
12119,817
12127,818
12135,815
12142,814
12150,813
12158,811
12165,810
12173,811
12180,810
12188,809
12196,811
12203,810
12224,811
12232,810
12240,811
12247,819
12255,828
12263,842
12270,850
12278,856
12285,860
12293,863
12301,865
12308,866
12316,864
12324,863
12334,856
12341,849
12349,846
12356,847
12364,848
12372,851
12379,861
12387,849
12517,861
12524,862
12532,861
12540,862
12547,862
12555,861
12563,863
12570,864
12578,868
12585,872
12593,879
12601,887
12608,899
12616,908
12624,914
12631,916
12639,913
12647,907
12654,897
12662,882
12669,864
12677,843
12685,822
12692,805
12700,792
12707,782
12729,770
12736,766
12744,764
12752,760
12759,757
12767,755
12775,753
12782,750
12790,749
12797,747
12927,776
12935,775
12945,773
12952,764
12960,760
12968,760
12975,761
12983,762
12990,764
12998,767
13006,769
13013,773
13021,773
13028,776
13036,777
13044,779
13051,780
13059,782
13067,783
13074,783
13082,784
13090,786
13097,786
13105,787
13112,789
13120,789
13128,792
13135,793
13143,796
13151,794
13158,794
13166,794
13309,840
13317,847
13324,842
13332,858
13340,939
13347,1130
13355,1206
13363,1125
13370,869
13378,799
13386,805
13393,816
13401,815
13408,817
13416,825
13424,830
13434,835
13441,830
13449,828
13457,830
13464,833
13472,836
13479,840
13487,844
13495,851
13502,856
13510,863
13518,869
13525,876
13533,886
13541,899
13548,911
13556,921
13563,928
13693,821
13701,822
13709,823
13716,823
13724,824
13731,822
13739,821
13747,822
13754,820
13762,819
13770,818
13777,818
13785,817
13792,813
13814,810
13821,805
13829,800
13837,792
13844,787
13852,782
13860,778
13867,773
13875,768
13882,763
13890,762
13898,760
13905,760
13913,759
13920,757
13930,758
13938,747
13946,742
13953,740
13961,743
13969,743
13976,746
14106,821
14113,826
14121,827
14129,826
14136,823
14144,820
14152,817
14159,812
14167,804
14175,801
14182,800
14190,799
14197,799
14205,800
14213,806
14220,797
14228,836
14236,949
14243,1118
14251,1108
14259,944
14266,738
14274,732
14281,751
14289,762
14297,761
14318,773
14325,781
14333,788
14341,795
14348,804
14356,812
14364,818
14371,822
14379,830
14509,895
14517,876
14524,859
14532,844
14542,829
14549,815
14557,805
14565,802
14572,801
14580,802
14588,803
14595,808
14603,810
14610,813
14618,815
14626,817
14633,819
14641,821
14649,821
14656,821
14664,822
14671,823
14679,823
14687,819
14694,818
14702,818
14710,817
14717,815
14725,816
14733,815
14740,813
14748,813
14891,830
14899,819
14907,814
14914,813
14922,812
14929,812
14937,810
14945,806
14953,800
14960,795
14968,789
14975,783
14983,776
14991,768
14998,763
15006,760
15013,757
15021,756
15029,757
15039,760
15046,744
15054,763
15062,850
15069,1007
15077,1052
15084,933
15092,682
15100,662
15107,694
15115,720
15123,726
15130,729
15138,738
15146,745
15276,891
15283,901
15291,904
15298,903
15306,896
15314,885
15321,868
15329,853
15337,833
15344,815
15352,798
15359,785
15367,775
15375,768
15396,766
15403,770
15411,775
15419,780
15426,789
15434,798
15442,806
15449,812
15457,816
15465,820
15472,825
15480,830
15487,835
15495,840
15503,841
15510,843
15518,844
15528,846
15535,841
15543,836
15551,834
15558,835
15688,895
15696,896
15703,894
15711,892
15719,889
15726,886
15734,879
15742,869
15749,859
15757,854
15764,850
15772,846
15780,845
15787,844
15795,844
15802,843
15810,831
15818,887
15825,1026
15833,1135
15841,1094
15848,851
15856,675
15864,724
15871,760
15879,786
15900,799
15908,802
15915,802
15923,800
15931,797
15938,799
15946,800
15954,797
15961,796
16091,831
16099,812
16106,794
16114,778
16122,761
16129,752
16137,746
16147,743
16155,732
16162,727
16170,726
16177,727
16185,732
16193,738
16200,743
16208,746
16215,753
16223,759
16231,763
16238,766
16246,767
16254,768
16261,770
16269,771
16277,772
16284,775
16292,774
16299,774
16307,771
16315,771
16322,770
16330,771
16473,834
16481,832
16488,855
16496,974
16504,1129
16511,1112
16519,994
16527,700
16534,690
16542,758
16550,792
16557,820
16565,835
16572,842
16580,851
16588,857
16595,862
16603,864
16611,868
16618,870
16626,872
16636,876
16643,871
16651,868
16659,870
16666,876
16674,885
16682,896
16689,906
16697,921
16704,933
16712,943
16720,946
16727,948
16857,819
16865,824
16873,822
16880,821
16888,820
16896,824
16903,824
16911,821
16918,817
16926,816
16934,813
16941,808
16949,802
16957,800
16978,800
16985,801
16993,804
17001,802
17008,801
17016,796
17024,789
17031,780
17039,772
17047,765
17054,761
17062,760
17069,757
17077,757
17085,755
17092,755
17100,756
17108,755
17115,756
17125,743
17133,786
17140,923
17270,811
17278,817
17285,822
17293,825
17300,830
17308,835
17316,841
17323,847
17331,860
17339,873
17346,885
17354,892
17362,895
17369,893
17377,885
17384,877
17392,866
17400,852
17407,835
17415,817
17423,800
17430,785
17438,772
17446,765
17453,760
17461,758
17482,762
17489,766
17497,776
17505,781
17512,790
17520,798
17528,805
17535,810
17543,814
17673,868
17681,864
17688,860
17696,860
17704,858
17711,855
17719,853
17726,852
17734,850
17744,850
17752,837
17759,826
17767,915
17775,1084
17782,1145
17790,1093
17797,790
17805,691
17813,736
17820,756
17828,781
17836,793
17843,801
17851,811
17859,815
17866,817
17874,817
17881,822
17889,826
17897,828
17904,827
17912,834
18055,820
18063,801
18071,788
18078,774
18086,767
18094,761
18101,757
18109,751
18116,747
18124,744
18132,746
18139,744
18147,743
18155,742
18162,744
18170,742
18178,744
18185,741
18193,740
18200,741
18208,736
18216,740
18223,739
18233,747
18241,741
18248,745
18256,749
18264,753
18271,753
18279,754
18286,754
18294,755
18302,755
18309,751
18440,719
18447,741
18455,757
18463,776
18470,781
18478,788
18485,797
18493,799
18501,801
18508,802
18516,805
18524,803
18531,808
18539,811
18560,821
18568,832
18575,842
18583,858
18590,871
18598,886
18606,900
18613,915
18621,924
18628,926
18636,922
18644,919
18652,910
18659,899
18667,883
18674,867
18682,851
18690,836
18697,828
18705,822
18712,822
18720,823
18852,860
18860,859
18867,855
18875,851
18883,851
18890,850
18898,852
18906,857
18913,856
18921,853
18928,854
18936,854
18944,849
18951,844
18959,835
18967,828
18974,826
18982,827
18989,826
18997,826
19005,822
19012,822
19020,819
19028,819
19035,822
19043,798
19064,1108
19072,1147
19079,1023
19087,724
19095,696
19102,712
19110,724
19117,734
19125,736
19255,832
19263,845
19270,852
19278,854
19286,855
19293,850
19301,841
19309,831
19316,816
19324,798
19331,779
19341,758
19349,740
19357,727
19364,722
19372,718
19380,720
19387,725
19395,731
19402,734
19410,740
19418,746
19425,748
19433,756
19441,759
19448,762
19456,763
19464,765
19471,768
19479,772
19486,774
19494,776
19502,776
19645,826
19652,834
19660,844
19668,852
19675,855
19683,860
19691,864
19698,866
19706,867
19713,870
19721,867
19729,862
19736,859
19744,861
19752,863
19759,862
19767,862
19774,860
19782,866
19790,866
19797,871
19805,854
19813,877
19820,981
19828,1125
19838,1175
19845,1004
19853,765
19861,763
19868,780
19876,798
19884,805
19891,810
19899,819
20029,936
20037,944
20044,945
20052,944
20060,937
20067,926
20075,910
20082,891
20090,870
20098,846
20105,825
20113,813
20121,802
20128,791
20150,781
20157,780
20165,776
20172,770
20180,768
20188,766
20195,765
20203,763
20211,761
20218,758
20226,753
20234,751
20241,751
20249,750
20256,748
20264,747
20272,747
20279,748
20287,746
20295,744
20302,746
20432,794
20440,795
20450,796
20457,788
20465,784
20473,780
20480,781
20488,784
20496,783
20503,787
20511,787
20518,792
20526,795
20534,795
20541,795
20549,795
20557,791
20564,790
20572,795
20580,798
20587,805
20595,807
20602,811
20610,814
20618,813
20625,814
20633,817
20654,810
20662,811
20669,815
20677,818
20684,823
20692,825
20700,832
20707,835
20715,839
20845,865
20852,868
20860,869
20868,872
20875,869
20883,869
20891,869
20898,871
20906,872
20913,876
20921,879
20929,881
20939,890
20946,892
20954,895
20961,902
20969,910
20977,912
20984,908
20992,900
21000,892
21007,879
21015,863
21022,845
21030,831
21038,816
21045,804
21053,797
21061,790
21068,788
21076,786
21083,788
21091,789
21234,819
21242,811
21249,807
21257,799
21265,793
21273,790
21280,783
21288,777
21295,771
21303,768
21311,764
21318,763
21326,760
21334,757
21341,755
21349,755
21357,754
21364,754
21372,752
21379,754
21387,755
21395,755
21402,754
21410,754
21417,756
21425,757
21435,758
21443,750
21450,749
21458,752
21466,754
21473,757
21481,760
21488,764
21618,819
21626,820
21634,823
21641,824
21649,825
21657,825
21664,820
21672,817
21680,882
21687,1028
21695,1146
21702,1118
21710,872
21718,741
21739,772
21746,779
21754,786
21762,796
21769,806
21777,814
21785,822
21792,825
21800,829
21807,835
21815,842
21823,846
21830,847
21838,852
21846,856
21853,862
21861,871
21868,879
21876,888
21884,901
21891,913
22022,829
22029,832
22037,831
22047,828
22054,820
22062,814
22070,813
22077,810
22085,811
22093,811
22100,810
22108,811
22115,813
22123,815
22131,816
22138,817
22146,819
22154,818
22161,816
22169,815
22176,815
22184,817
22192,813
22199,811
22207,809
22215,809
22222,809
22244,808
22251,807
22259,802
22266,799
22274,794
22282,791
22289,787
22297,783
22304,780
22434,797
22442,796
22450,793
22457,794
22465,791
22472,785
22480,782
22488,781
22495,789
22503,797
22511,798
22518,800
22526,797
22533,799
22543,795
22551,787
22559,782
22566,776
22574,774
22582,776
22589,779
22597,781
22604,783
22612,785
22620,792
22627,778
22635,808
22643,922
22650,1124
22658,1169
22666,1057
22673,795
22816,840
22824,848
22831,860
22839,873
22847,887
22855,901
22862,914
22870,924
22877,929
22885,929
22893,924
22900,916
22908,905
22915,889
22923,870
22931,850
22938,836
22946,826
22954,821
22961,819
22969,818
22976,818
22984,818
22992,821
22999,823
23007,824
23015,827
23022,827
23032,826
23040,819
23047,815
23055,816
23063,817
23070,821
23200,857
23208,858
23216,855
23223,853
23231,850
23238,850
23246,846
23254,843
23261,840
23269,837
23277,836
23284,833
23292,831
23300,827
23321,823
23328,816
23336,812
23344,805
23352,799
23359,795
23367,790
23374,786
23382,780
23390,776
23397,774
23405,770
23412,759
23420,757
23428,757
23435,766
23443,770
23451,771
23458,774
23466,771
23474,771
23481,772
23611,764
23618,745
23626,749
23634,748
23641,745
23651,748
23659,744
23666,743
23674,746
23682,751
23689,756
23697,760
23705,764
23712,768
23720,772
23727,776
23735,782
23743,787
23751,794
23758,801
23766,811
23773,823
23781,836
23789,848
23796,859
23804,870
23825,878
23832,870
23840,862
23848,850
23855,836
23863,823
23871,812
23878,802
23886,797
23894,797
24023,866
24031,865
24039,866
24046,862
24054,859
24062,854
24069,853
24077,854
24084,851
24092,848
24100,846
24107,845
24115,842
24122,841
24130,840
24140,838
24148,829
24155,822
24163,819
24171,821
24178,821
24186,820
24194,823
24201,823
24209,823
24216,824
24224,825
24232,827
24239,827
24247,827
24255,828
24262,827
24406,835
24413,828
24421,823
24429,820
24436,821
24444,806
24452,828
24459,918
24467,1082
24474,1105
24482,991
24490,753
24497,715
24505,725
24513,733
24520,730
24528,729
24535,733
24543,736
24551,740
24558,743
24566,745
24574,748
24581,750
24589,752
24596,753
24604,756
24612,759
24619,763
24627,768
24637,776
24645,778
24652,782
24660,792
24790,771
24797,773
24805,776
24813,777
24820,782
24828,786
24836,788
24843,791
24851,791
24859,791
24866,791
24874,791
24881,790
24889,793
24910,796
24918,800
24925,804
24933,806
24940,809
24948,813
24956,818
24964,820
24971,823
24979,825
24986,829
24994,833
25002,837
25009,839
25017,841
25025,842
25032,845
25040,848
25048,849
25055,847
25063,846
25193,863
25201,864
25208,865
25216,867
25223,858
25231,881
25239,973
25249,1162
25256,1125
25264,927
25271,735
25279,744
25287,770
25294,787
25302,789
25310,795
25317,802
25325,805
25332,810
25340,814
25348,817
25355,818
25363,820
25371,822
25378,823
25386,826
25394,829
25415,839
25422,843
25430,847
25438,854
25445,861
25453,869
25461,874
25468,874
25476,871
25605,758
25613,759
25621,761
25628,763
25636,764
25644,764
25651,762
25659,764
25667,762
25674,763
25682,763
25690,764
25697,765
25705,765
25712,765
25720,766
25728,767
25738,765
25745,760
25753,756
25760,756
25768,758
25776,762
25783,762
25791,764
25798,762
25806,761
25814,768
25821,778
25829,792
25837,799
25844,801
25988,1170
25995,1095
26003,839
26010,733
26018,765
26026,799
26033,816
26041,821
26048,829
26056,837
26064,842
26072,848
26079,853
26087,858
26094,862
26102,863
26110,866
26117,871
26125,873
26132,876
26140,880
26148,885
26155,891
26163,898
26171,906
26178,915
26186,928
26194,937
26201,943
26209,943
26216,935
26224,926
26234,908
26242,884
26372,843
26379,843
26387,843
26395,843
26402,843
26410,841
26417,837
26425,836
26433,831
26441,828
26448,824
26456,821
26463,821
26471,818
26492,812
26500,803
26507,796
26515,785
26523,780
26530,779
26538,782
26546,789
26553,787
26561,782
26569,781
26576,778
26584,774
26592,770
26599,765
26607,757
26614,754
26622,753
26630,753
26637,754
26645,755
26775,779
26782,784
26790,785
26798,788
26805,790
26813,790
26821,792
26828,795
26836,798
26846,802
26853,799
26861,799
26869,804
26876,811
26884,822
26891,836
26899,848
26907,862
26914,870
26922,873
26930,873
26937,868
26945,858
26953,844
26960,833
26968,816
26975,802
26996,777
27004,775
27012,777
27019,782
27027,788
27035,794
27042,801
27050,808
27058,813
27187,872
27195,870
27203,869
27210,862
27218,853
27225,854
27233,857
27241,862
27248,869
27256,870
27264,870
27271,869
27279,868
27286,865
27294,861
27302,852
27309,845
27317,842
27325,842
27332,839
27342,837
27350,828
27357,822
27365,821
27373,824
27380,816
27388,885
27395,1049
27403,1179
27411,1115
27418,840
27426,708
27570,870
27577,874
27585,876
27593,882
27600,886
27608,889
27615,886
27623,879
27631,871
27638,855
27646,839
27654,823
27661,808
27669,791
27677,773
27684,758
27692,749
27699,739
27707,733
27715,729
27722,729
27730,731
27737,732
27745,737
27753,739
27760,740
27768,740
27776,744
27783,746
27791,748
27799,750
27806,753
27814,753
27821,754
27954,816
27962,818
27969,814
27977,811
27984,810
27992,811
28000,810
28007,811
28015,810
28023,811
28030,812
28038,815
28046,816
28053,825
28074,1141
28082,1065
28089,762
28097,653
28105,722
28112,766
28120,798
28127,814
28135,819
28143,831
28150,839
28158,845
28166,849
28173,854
28181,858
28189,863
28196,868
28204,869
28211,874
28219,879
28227,886
28357,857
28365,845
28372,836
28380,828
28387,820
28395,817
28403,815
28410,816
28418,816
28426,816
28433,816
28441,817
28451,818
28458,811
28466,806
28474,805
28481,804
28489,804
28497,804
28504,803
28512,799
28519,798
28527,800
28535,797
28542,803
28550,811
28558,814
28579,819
28586,811
28594,804
28602,794
28609,785
28617,781
28625,776
28632,771
28640,772
28648,767
28778,768
28785,777
28793,781
28801,783
28808,784
28816,789
28824,788
28831,791
28839,794
28847,799
28854,802
28862,809
28869,814
28877,822
28885,831
28892,841
28900,851
28908,863
28915,871
28923,874
28930,875
28940,864
28948,847
28956,830
28963,818
28971,804
28978,792
28986,777
28994,767
29001,760
29009,753
29017,749
29160,825
29168,831
29175,838
29183,843
29191,848
29198,849
29206,849
29214,849
29221,845
29229,842
29236,839
29244,844
29252,845
29259,846
29267,847
29275,849
29282,851
29290,853
29297,856
29305,851
29313,866
29320,972
29328,1131
29336,1146
29343,1042
29351,739
29359,711
29366,760
29374,785
29381,809
29389,821
29397,828
29404,836
29534,935
29542,942
29552,937
29559,919
29567,899
29574,884
29582,869
29590,853
29597,836
29605,818
29613,805
29620,796
29628,790
29635,783
29643,782
29664,781
29672,781
29680,781
29687,779
29695,779
29703,776
29710,772
29718,770
29725,765
29733,761
29741,758
29748,755
29756,753
29764,752
29771,753
29779,758
29786,762
29794,764
29802,766
29809,770
29817,765
29947,1103
29955,1098
29963,867
29970,661
29978,695
29986,716
29993,738
30001,754
30009,761
30016,772
30024,780
30031,784
30039,786
30049,786
30057,785
30064,784
30072,782
30079,784
30087,791
30095,800
30102,808
30110,817
30118,829
30125,840
30133,852
30141,865
30148,877
30169,887
30177,885
30184,880
30192,875
30200,865
30207,854
30215,840
30223,830
30230,822
30360,868
30368,864
30375,862
30383,861
30390,861
30398,864
30406,867
30413,868
30421,868
30429,866
30436,859
30444,857
30452,852
30459,846
30467,838
30474,834
30482,833
30490,832
30497,830
30505,824
30513,823
30520,826
30528,826
30538,828
30545,801
30553,849
30561,1005
30568,1135
30576,1144
30583,923
30591,697
30735,866
30743,871
30750,874
30758,877
30766,883
30773,886
30781,883
30789,874
30796,864
30804,850
30812,838
30819,820
30827,800
30834,781
30842,761
30850,743
30857,734
30865,727
30873,720
30880,720
30888,719
30896,720
30903,723
30911,728
30918,728
30926,727
30934,728
30941,734
30949,737
30957,740
30964,742
30972,742
30979,745
30987,747
31117,810
31125,809
31132,808
31140,806
31148,807
31158,805
31165,798
31173,791
31181,789
31188,789
31196,794
31203,795
31211,773
31219,834
31240,1146
31247,1003
31255,726
31263,727
31270,747
31278,770
31286,786
31293,797
31301,809
31308,822
31316,828
31324,832
31331,841
31339,847
31347,851
31354,854
31362,860
31370,864
31377,866
31385,872
31392,881
31522,844
31530,838
31538,832
31545,829
31553,825
31561,823
31568,824
31576,826
31583,823
31591,821
31599,819
31606,816
31614,817
31622,817
31629,818
31637,818
31647,817
31654,810
31662,805
31670,801
31677,799
31685,800
31692,799
31700,800
31708,802
31715,805
31723,806
31744,807
31752,804
31760,800
31767,800
31775,796
31782,790
31790,784
31798,781
31805,774
31813,772
31943,789
31951,790
31959,791
31966,790
31974,788
31981,775
31989,839
31997,990
32004,1095
32012,1087
32020,859
32027,691
32035,707
32042,723
32050,743
32058,745
32065,751
32073,757
32081,765
32088,769
32096,772
32103,776
32111,776
32119,778
32126,780
32136,789
32144,787
32152,785
32159,789
32167,799
32174,809
32182,822
32325,805
32333,810
32341,811
32348,818
32356,825
32364,834
32371,838
32379,840
32387,840
32394,843
32402,844
32409,847
32417,849
32425,845
32432,844
32440,847
32447,849
32455,850
32463,846
32470,846
32478,848
32486,848
32493,846
32501,846
32509,847
32516,848
32524,850
32531,850
32539,848
32547,849
32554,847
32562,847
32570,846
32577,849
32707,853
32715,862
32723,863
32730,858
32738,858
32746,856
32756,852
32763,840
32771,832
32778,822
32786,815
32794,809
32801,810
32809,812
32830,812
32838,810
32845,807
32853,809
32861,786
32868,813
32876,927
32884,1064
32891,1099
32899,981
32906,709
32914,692
32922,707
32929,721
32937,733
32945,736
32952,740
32960,746
32968,751
32975,750
32983,753
33113,880
33120,876
33128,868
33135,855
33143,839
33151,822
33158,801
33166,786
33174,771
33181,761
33189,754
33197,752
33204,752
33212,755
33219,759
33227,761
33235,761
33245,765
33252,759
33260,752
33267,753
33275,756
33283,760
33290,763
33298,767
33305,772
33313,774
33334,785
33342,790
33350,799
33357,803
33365,810
33372,816
33380,820
33388,825
33395,829
33525,880
33533,880
33540,878
33548,879
33556,874
33563,870
33571,864
33579,857
33586,856
33594,857
33601,859
33609,861
33617,862
33624,861
33632,860
33640,858
33647,858
33655,854
33662,849
33670,843
33678,837
33685,836
33693,836
33700,834
33708,831
33716,831
33723,831
33731,831
33741,816
33749,831
33756,920
33764,1064
33772,1119
33915,850
33922,849
33930,848
33938,847
33945,847
33953,854
33961,860
33968,865
33976,869
33984,870
33991,867
33999,862
34006,851
34014,839
34022,822
34029,801
34037,779
34045,758
34052,741
34060,727
34068,719
34075,713
34083,711
34090,710
34098,713
34106,714
34113,717
34121,719
34128,720
34136,721
34144,724
34151,729
34159,731
34167,734
34297,796
34304,797
34312,799
34320,799
34327,795
34335,796
34343,795
34353,797
34360,789
34368,784
34376,784
34383,783
34391,785
34398,789
34419,798
34427,803
34435,809
34442,816
34450,823
34458,828
34465,830
34473,829
34481,836
34488,843
34496,852
34503,862
34511,864
34519,867
34526,867
34534,871
34542,871
34549,869
34557,866
34564,864
34572,860
34580,860
34709,834
34717,837
34725,842
34732,842
34740,841
34747,843
34755,844
34763,844
34770,842
34778,839
34786,839
34793,839
34801,839
34808,843
34816,846
34824,848
34831,853
34839,861
34849,871
34857,874
34864,880
34872,887
34880,889
34887,888
34895,885
34902,876
34924,831
34931,809
34939,788
34947,771
34954,759
34962,753
34970,747
34977,745
34985,744
34992,743
35123,779
35131,780
35138,779
35146,778
35153,777
35161,776
35169,778
35176,778
35184,777
35192,777
35199,777
35207,777
35215,777
35222,778
35230,778
35237,778
35245,778
35253,779
35260,780
35268,782
35276,781
35283,784
35291,784
35298,786
35306,789
35314,790
35321,792
35329,792
35339,792
35347,785
35354,783
35362,782
35369,783
35512,848
35520,854
35528,859
35535,854
35543,900
35550,1050
35558,1235
35566,1220
35573,1024
35581,834
35589,812
35596,817
35604,821
35612,818
35619,824
35627,830
35634,835
35642,837
35650,839
35657,839
35665,842
35673,846
35680,848
35688,850
35695,851
35703,854
35711,856
35718,860
35726,866
35734,870
35741,878
35749,887
35757,898
35887,812
35895,813
35902,814
35910,813
35918,813
35925,811
35933,811
35940,809
35950,807
35958,797
35966,793
35973,794
35981,794
35989,794
35996,797
36017,799
36025,796
36033,792
36040,787
36048,783
36056,780
36063,775
36071,771
36079,769
36086,765
36094,765
36102,764
36109,763
36117,761
36124,760
36132,759
36140,759
36147,759
36155,759
36163,758
36170,759
36301,814
36308,813
36316,810
36324,805
36331,797
36339,792
36346,791
36354,792
36362,790
36369,792
36377,793
36385,798
36392,791
36400,833
36407,955
36415,1135
36423,1125
36430,955
36438,756
36448,744
36456,750
36463,747
36471,745
36478,752
36486,759
36494,765
36501,770
36522,785
36530,794
36538,804
36545,812
36553,820
36561,826
36568,836
36576,845
36583,853
36713,841
36721,837
36728,831
36736,830
36744,827
36751,827
36759,826
36767,827
36774,826
36782,826
36789,827
36797,827
36805,827
36812,824
36820,823
36828,824
36835,823
36843,823
36851,822
36858,823
36866,825
36873,824
36881,821
36889,821
36896,819
36904,818
36912,817
36919,818
36927,814
36937,811
36945,804
36952,799
37096,842
37103,843
37111,838
37118,835
37126,828
37134,824
37141,817
37149,807
37157,798
37164,787
37172,779
37180,775
37187,772
37195,769
37203,768
37210,768
37218,771
37225,762
37233,787
37241,874
37248,1035
37256,1080
37264,967
37271,718
37279,687
37286,707
37294,726
37302,726
37309,726
37317,732
37325,734
37332,738
37340,744
37470,894
37478,896
37486,892
37493,883
37501,871
37508,856
37516,836
37524,816
37531,799
37539,784
37546,771
37556,764
37564,754
37572,749
37579,747
37600,757
37608,763
37616,774
37623,782
37631,789
37638,798
37646,805
37654,812
37662,818
37669,823
37677,828
37684,833
37692,836
37700,841
37707,841
37715,843
37722,845
37730,846
37738,847
37745,845
37753,846
37883,884
37890,884
37898,885
37906,881
37913,878
37921,874
37929,867
37936,860
37944,853
37951,849
37959,846
37967,844
37974,842
37982,840
37990,840
37997,845
38005,841
38013,852
38020,930
38028,1084
38035,1166
38045,994
38053,736
38061,723
38068,753
38076,777
38084,782
38105,795
38112,798
38120,797
38128,794
38135,794
38143,796
38151,796
38158,797
38166,793
38296,829
38304,810
38312,791
38319,775
38327,763
38334,755
38342,750
38350,747
38357,746
38365,745
38373,747
38380,749
38388,751
38396,754
38403,757
38411,759
38418,762
38426,763
38434,765
38441,767
38449,770
38457,773
38464,771
38472,773
38480,773
38487,775
38495,776
38502,777
38510,778
38518,779
38525,780
38533,782
38543,781
38686,838
38693,840
38701,846
38709,851
38716,858
38724,847
38731,919
38739,1078
38747,1175
38754,1129
38762,857
38770,698
38777,758
38785,798
38793,827
38800,842
38808,846
38816,854
38823,859
38831,862
38838,864
38846,864
38854,867
38861,868
38869,870
38877,871
38884,875
38892,878
38899,880
38907,884
38915,890
38922,899
38930,908
39061,816
39068,815
39076,813
39083,811
39091,810
39099,809
39106,812
39114,812
39122,813
39129,813
39137,815
39144,813
39154,811
39162,801
39170,794
39191,789
39198,781
39206,774
39214,769
39221,767
39229,765
39237,768
39244,772
39252,774
39260,773
39267,775
39275,771
39283,766
39290,765
39298,760
39305,754
39313,750
39321,752
39328,753
39336,754
39344,752
39474,780
39482,791
39489,793
39497,795
39505,796
39512,797
39520,798
39527,802
39535,805
39543,809
39550,812
39558,819
39566,825
39573,830
39581,838
39589,848
39596,858
39604,870
39611,881
39619,888
39627,887
39634,884
39644,871
39652,852
39660,832
39667,815
39675,798
39696,764
39703,762
39711,763
39719,768
39726,773
39734,778
39741,784
39749,792
39757,802
39887,866
39894,868
39902,871
39909,870
39917,866
39925,860
39932,854
39940,846
39948,841
39955,836
39963,837
39971,838
39978,836
39986,834
39993,833
40001,831
40009,836
40016,835
40024,827
40031,903
40039,1067
40047,1150
40054,1103
40062,809
40070,683
40077,727
40085,753
40092,777
40100,790
40108,796
40115,804
40259,921
40266,917
40276,898
40284,874
40291,850
40299,830
40307,809
40314,786
40322,767
40330,752
40337,739
40345,728
40352,726
40360,721
40368,719
40375,719
40383,720
40391,722
40398,726
40406,728
40413,730
40421,731
40429,735
40436,737
40444,738
40452,740
40459,740
40467,738
40475,736
40482,735
40490,740
40497,741
40505,748
40513,753
40643,812
40650,801
40658,817
40666,924
40673,1089
40681,1161
40689,1052
40696,747
40704,710
40711,730
40719,750
40727,764
40734,768
40742,775
40765,782
40773,787
40780,796
40788,804
40796,809
40803,819
40811,829
40819,836
40826,849
40834,860
40841,868
40849,880
40857,896
40865,910
40872,922
40880,932
40887,939
40895,940
40903,939
40910,933
40918,926
40925,913
41055,859
41063,860
41071,857
41078,855
41086,853
41093,850
41101,848
41109,840
41116,833
41124,831
41132,828
41139,833
41147,836
41155,838
41162,838
41170,842
41177,843
41185,838
41193,832
41200,827
41208,823
41215,818
41223,816
41231,815
41241,815
41248,807
41269,802
41277,801
41285,801
41292,778
41300,831
41308,986
41315,1113
41323,1112
41330,870
41460,808
41468,815
41476,822
41483,826
41491,834
41499,842
41506,854
41514,860
41522,867
41529,869
41537,869
41544,864
41552,854
41560,842
41567,828
41575,812
41583,795
41590,780
41598,764
41605,755
41613,749
41621,748
41628,748
41636,749
41644,748
41651,752
41659,754
41667,755
41674,757
41682,761
41689,766
41697,766
41840,825
41848,819
41856,818
41863,821
41873,827
41881,824
41889,821
41896,820
41904,826
41912,831
41919,838
41927,842
41934,823
41942,880
41950,1039
41957,1175
41965,1179
41973,957
41980,741
41988,762
41996,779
42003,799
42011,811
42018,818
42026,826
42034,834
42041,838
42049,840
42057,844
42064,844
42072,843
42079,844
42087,846
42095,850
42225,858
42232,842
42240,826
42247,815
42255,806
42263,803
42270,800
42278,795
42286,795
42293,793
42301,795
42308,796
42316,796
42324,796
42345,795
42353,793
42363,787
42370,775
42378,765
42386,761
42393,757
42401,755
42408,754
42416,753
42424,753
42431,749
42439,747
42446,748
42454,749
42462,747
42470,748
42477,747
42485,741
42492,741
42500,746
42508,754
42638,795
42646,801
42653,782
42661,828
42669,973
42676,1138
42684,1132
42692,941
42699,722
42707,714
42715,729
42722,746
42730,751
42737,758
42745,767
42753,773
42760,776
42768,779
42776,782
42783,784
42791,786
42798,790
42806,794
42814,797
42821,801
42829,806
42852,818
42860,829
42867,845
42875,863
42883,880
42890,892
42898,900
42906,903
42913,899
43043,859
43051,863
43059,863
43066,863
43074,862
43082,861
43089,859
43097,854
43104,852
43112,849
43120,847
43127,843
43135,842
43143,839
43150,836
43158,833
43166,833
43173,832
43181,830
43188,829
43196,829
43204,828
43211,827
43219,825
43227,824
43234,823
43242,824
43250,822
43257,820
43265,817
43272,812
43280,810
43424,832
43431,832
43439,815
43446,822
43454,899
43462,1091
43472,1159
43479,1007
43487,754
43495,710
43502,715
43510,718
43517,715
43525,720
43533,727
43540,731
43548,733
43556,736
43563,740
43571,742
43579,743
43586,745
43594,747
43601,750
43609,755
43617,761
43624,766
43632,773
43639,782
43647,793
43655,805
43662,817
43670,828
43678,837
43808,782
43815,787
43823,789
43831,790
43838,790
43846,789
43853,788
43861,789
43869,789
43876,790
43884,791
43892,791
43899,791
43907,792
43928,795
43936,799
43943,805
43951,810
43961,816
43969,812
43976,813
43984,818
43991,823
43999,829
44007,833
44014,837
44022,840
44029,844
44037,847
44045,851
44052,853
44060,856
44068,859
44075,860
44083,860
44091,857
44220,872
44228,871
44235,868
44243,868
44251,874
44258,858
44266,886
44274,995
44281,1183
44289,1197
44297,1058
44304,814
44312,780
44319,793
44327,800
44335,796
44342,797
44350,801
44358,803
44365,807
44373,811
44381,814
44388,816
44396,817
44403,819
44411,819
44432,823
44440,823
44447,824
44458,827
44465,822
44473,823
44480,828
44488,837
44496,843
44625,755
44633,758
44641,762
44648,761
44656,765
44664,765
44671,767
44679,766
44687,766
44694,766
44702,768
44709,769
44717,771
44725,771
44732,769
44740,769
44748,769
44755,768
44763,769
44771,769
44778,768
44786,769
44793,769
44801,771
44809,774
44816,773
44824,774
44832,776
44839,778
44847,780
44855,781
44862,782
45005,845
45013,843
45021,840
45028,835
45036,836
45044,839
45051,841
45059,843
45069,850
45077,844
45084,847
45092,837
45099,871
45107,984
45115,1153
45122,1173
45130,1031
45138,797
45145,783
45153,805
45161,819
45168,820
45176,823
45183,829
45191,834
45199,838
45206,840
45214,841
45221,843
45229,845
45237,848
45244,849
45252,853
45260,856
45390,862
45397,844
45405,828
45413,816
45420,806
45428,800
45435,798
45443,799
45451,796
45458,797
45466,800
45474,801
45481,801
45489,801
45510,799
45518,796
45525,793
45533,789
45540,786
45548,781
45558,775
45566,763
45573,754
45581,749
45589,748
45596,748
45604,748
45612,748
45619,748
45627,749
45634,749
45642,751
45650,752
45657,753
45665,755
45673,756
45802,812
45810,814
45817,813
45825,812
45833,807
45840,803
45848,796
45855,795
45863,796
45871,793
45878,792
45886,793
45894,796
45901,799
45909,797
45917,857
45924,997
45932,1120
45939,1067
45947,826
45955,701
45962,726
45970,753
45978,766
45985,767
45993,774
46014,790
46022,797
46029,807
46037,814
46044,822
46055,831
46062,830
46070,832
46077,840
46207,887
46215,870
46223,855
46230,844
46238,839
46245,834
46253,832
46261,831
46269,829
46276,830
46284,831
46291,831
46299,833
46307,833
46314,830
46322,831
46329,831
46337,832
46345,832
46352,831
46360,829
46368,827
46375,825
46383,822
46391,821
46398,820
46406,817
46413,816
46421,815
46429,815
46436,815
46444,814
46588,831
46595,825
46603,816
46611,808
46618,803
46626,795
46633,790
46641,787
46649,787
46656,772
46666,854
46674,995
46682,1076
46689,982
46697,709
46704,644
46712,680
46720,711
46727,724
46735,726
46742,734
46750,741
46758,747
46766,752
46773,755
46781,758
46788,763
46796,765
46804,770
46811,774
46819,777
46826,784
46834,789
46842,797
46972,786
46979,782
46987,779
46995,777
47002,776
47010,773
47017,773
47025,774
47033,776
47040,782
47048,781
47056,782
47063,785
47071,789
47092,794
47100,799
47107,804
47115,808
47122,814
47130,818
47138,824
47145,828
47153,831
47163,833
47171,828
47178,825
47186,826
47193,830
47201,832
47209,834
47216,829
47224,831
47232,838
47239,849
47247,858
47255,863
47384,879
47392,962
47400,1118
47407,1201
47415,1094
47422,810
47430,749
47438,784
47445,813
47453,820
47461,817
47468,821
47476,824
47484,824
47491,826
47499,830
47506,829
47514,829
47522,830
47529,831
47537,832
47545,832
47552,836
47560,841
47567,844
47575,849
47596,871
47604,877
47611,881
47619,881
47627,875
47634,865
47642,851
47652,832
47660,807
47790,770
47797,774
47805,775
47812,775
47820,775
47828,775
47835,777
47843,778
47850,778
47858,778
47866,775
47873,767
47881,764
47889,766
47896,770
47904,777
47912,785
47919,790
47927,796
47934,797
47942,796
47950,795
47957,795
47965,790
47973,789
47980,790
47988,790
47995,791
48003,792
48011,794
48018,796
48026,797
48170,837
48177,842
48185,846
48193,852
48200,859
48208,867
48216,874
48223,881
48231,890
48238,899
48246,911
48254,922
48261,931
48271,941
48279,936
48287,928
48294,921
48302,915
48309,905
48317,892
48325,878
48332,864
48340,852
48347,841
48355,832
48363,826
48370,824
48378,823
48386,822
48393,822
48401,824
48409,825
48416,828
48424,831
48554,861
48562,864
48569,863
48577,857
48584,849
48592,844
48600,835
48607,830
48615,828
48623,827
48630,826
48638,823
48645,821
48653,820
48674,822
48682,812
48690,895
48697,1057
48705,1107
48713,1022
48720,712
48728,615
48735,677
48743,711
48751,734
48761,744
48768,740
48776,742
48784,744
48791,749
48799,751
48806,755
48814,759
48822,765
48829,770
48837,774
48968,823
48975,809
48983,794
48990,783
48998,772
49006,763
49013,756
49021,755
49028,754
49036,755
49044,758
49051,760
49059,764
49067,767
49074,770
49082,773
49090,773
49097,774
49105,776
49112,775
49120,774
49128,774
49135,774
49143,774
49151,779
49158,783
49179,800
49187,806
49195,809
49202,810
49210,809
49217,807
49225,810
49233,812
49240,818
49250,825
49380,852
49388,862
49395,870
49403,875
49410,876
49418,874
49426,876
49433,876
49441,877
49449,878
49456,881
49464,885
49472,886
49479,887
49487,892
49494,896
49502,900
49510,908
49517,918
49525,926
49532,929
49540,929
49548,922
49555,912
49563,901
49571,890
49578,874
49586,858
49594,843
49601,824
49609,808
49616,797
49760,806
49768,805
49776,806
49783,802
49791,799
49799,794
49806,784
49814,778
49821,772
49829,763
49837,754
49844,750
49852,750
49860,747
49870,744
49877,738
49885,734
49892,736
49900,736
49908,745
49915,733
49923,784
49930,925
49938,1038
49946,1027
49953,827
49961,603
49969,647
49976,684
49984,709
49991,730
49999,735
50007,747
50014,756
50144,901
50152,907
50160,905
50167,898
50175,889
50183,877
50190,863
50198,845
50205,828
50213,811
50221,795
50228,784
50236,777
50244,773
50265,770
50272,777
50280,781
50288,791
50295,801
50303,808
50311,814
50318,816
50326,822
50333,826
50341,827
50349,827
50359,831
50366,826
50374,821
50381,826
50389,835
50397,844
50404,847
50412,851
50420,855
50427,852
50557,1188
50565,1150
50572,847
50580,741
50588,778
50595,795
50603,807
50610,818
50618,818
50626,825
50633,829
50641,833
50648,834
50656,835
50664,832
50671,834
50679,836
50687,837
50694,840
50702,842
50710,844
50717,851
50725,857
50732,865
50740,875
50748,888
50769,902
50777,894
50784,884
50792,869
50799,851
50807,832
50815,812
50822,795
50830,774
50960,766
50968,766
50978,767
50985,754
50993,745
51001,745
51008,745
51016,751
51024,760
51031,766
51039,769
51046,771
51054,769
51062,768
51069,768
51077,769
51085,769
51092,766
51100,766
51107,772
51115,772
51123,772
51130,773
51138,778
51146,780
51153,785
51161,765
51169,802
51176,941
51184,1091
51191,1128
51199,963
51342,855
51350,864
51357,876
51365,886
51373,902
51381,916
51388,927
51396,932
51403,935
51411,930
51419,924
51426,917
51434,904
51441,888
51449,870
51457,856
51467,838
51474,821
51482,810
51490,806
51497,804
51505,808
51512,814
51520,818
51528,823
51535,826
51543,829
51551,832
51558,833
51566,832
51574,834
51581,834
51589,836
51596,836
51726,864
51734,865
51742,865
51749,861
51757,857
51765,850
51772,845
51780,838
51787,833
51795,833
51803,829
51810,828
51818,824
51825,826
51847,827
51854,810
51862,815
51870,911
51877,1059
51885,1121
51893,1039
51900,748
51908,693
51915,708
51923,726
51931,736
51938,740
51946,742
51956,750
51964,750
51971,746
51979,746
51986,750
51994,753
52002,754
52009,757
52139,842
52146,824
52154,809
52162,791
52169,778
52177,771
52185,765
52192,763
52200,761
52208,764
52215,763
52223,763
52230,766
52238,768
52246,770
52253,772
52261,771
52269,772
52276,775
52284,775
52291,778
52299,779
52307,779
52314,780
52322,780
52329,779
52350,784
52358,788
52366,793
52373,803
52381,807
52389,812
52396,817
52404,822
52412,828
52542,879
52550,877
52557,876
52565,872
52575,870
52582,855
52590,846
52598,846
52605,847
52613,855
52620,857
52628,858
52636,858
52643,854
52651,853
52659,855
52666,849
52674,844
52682,839
52689,837
52697,838
52704,834
52712,831
52720,832
52727,833
52735,834
52742,826
52750,826
52758,908
52765,1057
52773,1145
52781,1098
52924,845
52932,844
52940,846
52947,846
52955,851
52962,853
52970,855
52978,859
52986,861
52993,857
53001,851
53008,842
53016,830
53024,817
53031,801
53039,784
53046,765
53054,748
53064,733
53072,717
53079,708
53087,705
53095,707
53102,710
53110,713
53117,716
53125,719
53133,723
53140,726
53148,732
53156,740
53163,743
53171,746
53179,746
53309,801
53316,803
53324,804
53331,804
53339,803
53347,803
53354,803
53362,802
53370,801
53377,802
53385,801
53392,802
53400,801
53408,802
53429,806
53436,808
53444,814
53451,819
53459,823
53467,828
53474,834
53482,837
53490,840
53497,842
53505,841
53513,842
53520,850
53528,855
53535,864
53543,866
53551,869
53561,871
53568,864
53576,861
53584,858
53591,858
53721,816
53729,824
53736,833
53744,831
53751,833
53759,837
53767,839
53775,841
53782,841
53790,843
53797,841
53805,840
53813,839
53820,839
53828,839
53835,840
53843,845
53851,846
53858,849
53866,855
53874,861
53881,870
53889,880
53896,891
53904,899
53912,901
53933,881
53941,868
53948,849
53956,824
53964,801
53971,780
53979,762
53987,748
53994,739
54002,734
54131,768
54139,772
54147,772
54154,774
54162,772
54172,769
54180,761
54187,757
54195,754
54202,757
54210,758
54218,760
54225,762
54233,764
54240,767
54248,769
54256,772
54263,774
54271,778
54279,780
54286,782
54294,784
54301,787
54309,790
54317,790
54324,793
54332,795
54340,797
54347,799
54355,800
54363,801
54370,801
54513,838
54521,836
54529,840
54536,844
54544,847
54552,851
54559,857
54567,861
54575,859
54582,912
54590,1068
54598,1235
54605,1210
54613,987
54620,820
54628,811
54636,819
54643,820
54651,819
54661,826
54669,820
54676,818
54684,820
54691,825
54699,828
54707,833
54714,837
54722,838
54730,842
54737,846
54745,850
54753,855
54760,863
54768,868
54898,816
54905,811
54913,807
54921,805
54928,807
54936,805
54943,803
54951,803
54959,804
54966,802
54974,801
54982,799
54989,800
54997,799
55018,796
55026,795
55033,792
55041,787
55049,784
55056,782
55064,778
55072,773
55079,768
55087,763
55095,762
55102,760
55110,757
55117,757
55125,757
55133,757
55140,757
55148,758
55158,759
55165,750
55173,743
55181,741
55311,808
55319,805
55326,802
55334,806
55342,815
55349,820
55357,822
55365,822
55372,822
55380,821
55388,820
55395,817
55403,812
55410,808
55418,802
55426,800
55433,799
55441,800
55448,801
55456,802
55464,809
55471,799
55479,826
55487,923
55494,1112
55502,1150
55523,748
55530,758
55538,773
55546,779
55553,785
55561,794
55569,802
55576,811
55584,819
55714,955
55722,958
55730,954
55737,948
55745,934
55752,916
55760,895
55770,866
55778,838
55785,816
55793,803
55801,793
55808,788
55816,787
55823,787
55831,788
55839,792
55846,796
55854,798
55862,799
55869,800
55877,801
55885,803
55892,804
55900,803
55907,805
55915,807
55923,808
55930,809
55938,808
55945,807
55953,809
56097,829
56104,825
56112,819
56120,813
56127,807
56135,801
56142,795
56150,788
56158,785
56165,782
56173,778
56181,771
56188,761
56196,761
56204,763
56211,770
56219,775
56226,776
56234,776
56242,773
56249,774
56257,772
56267,769
56275,759
56282,747
56290,745
56297,748
56305,749
56313,751
56320,755
56328,762
56336,761
56343,780
56351,847
56481,807
56488,811
56496,814
56504,816
56511,821
56519,824
56527,828
56534,833
56542,842
56549,852
56557,863
56565,876
56573,887
56580,891
56601,887
56609,880
56616,871
56624,859
56632,843
56639,830
56647,819
56654,810
56662,802
56670,799
56677,800
56685,801
56693,804
56700,809
56708,813
56716,817
56723,822
56731,826
56738,831
56746,833
56756,834
56764,829
56893,863
56901,862
56909,860
56916,858
56924,858
56931,857
56939,854
56947,853
56954,850
56962,850
56970,850
56977,848
56985,845
56993,839
57000,832
57008,831
57015,834
57023,842
57031,843
57038,844
57046,845
57054,843
57061,842
57069,838
57077,832
57084,828
57105,814
57113,810
57121,805
57128,802
57136,800
57143,800
57151,788
57159,835
57167,956
57174,1090
57304,791
57311,798
57319,798
57327,800
57334,805
57342,808
57350,815
57357,823
57365,832
57375,846
57382,848
57390,851
57398,852
57405,850
57413,846
57421,837
57428,826
57436,812
57443,794
57451,778
57459,763
57466,754
57474,747
57482,744
57489,743
57497,743
57505,745
57512,747
57520,752
57527,756
57535,759
57543,761
57686,823
57694,825
57701,828
57709,834
57716,837
57724,840
57732,838
57739,835
57747,836
57754,843
57762,851
57770,860
57777,867
57785,869
57793,872
57800,874
57808,874
57816,872
57823,869
57831,864
57838,861
57846,861
57854,858
57864,857
57871,849
57879,848
57887,850
57894,843
57902,861
57909,954
57917,1112
57925,1177
57932,1051
58062,876
58069,880
58077,884
58085,887
58092,891
58100,896
58108,902
58115,910
58123,916
58130,922
58138,925
58146,926
58153,918
58161,906
58169,893
58190,841
58198,820
58205,800
58213,784
58220,772
58228,762
58236,754
58243,748
58251,744
58258,744
58266,743
58274,740
58282,740
58289,740
58297,740
58304,741
58312,744
58320,745
58327,743
58335,742
58342,743
58472,802
58482,803
58490,791
58497,783
58505,776
58513,773
58520,775
58528,779
58536,781
58543,783
58551,784
58558,789
58566,793
58574,800
58581,793
58589,879
58597,1051
58604,1123
58612,1047
58619,737
58627,625
58635,696
58642,737
58650,768
58658,784
58665,789
58673,797
58694,816
58702,821
58709,828
58717,837
58724,847
58732,855
58740,863
58747,869
58877,897
58885,881
58893,864
58900,850
58908,840
58916,836
58923,831
58931,826
58938,824
58946,827
58954,828
58961,830
58971,827
58979,822
58986,816
58994,817
59002,818
59009,818
59017,819
59025,818
59032,817
59040,813
59047,813
59055,816
59063,814
59070,818
59078,826
59086,830
59093,833
59101,835
59108,832
59116,827
59124,823
59267,696
59275,737
59282,756
59290,774
59298,778
59305,778
59313,783
59321,781
59328,779
59336,777
59343,779
59351,780
59359,780
59366,779
59374,778
59382,780
59389,785
59397,793
59405,799
59412,806
59420,815
59427,825
59435,837
59443,850
59450,855
59458,853
59468,847
59476,829
59483,814
59491,801
59498,787
59506,770
59514,753
59521,740
59651,792
59659,794
59666,797
59674,797
59682,802
59689,806
59697,810
59705,810
59712,809
59720,804
59728,801
59735,800
59743,795
59750,788
59771,789
59779,794
59787,800
59794,804
59802,807
59810,815
59817,822
59825,826
59833,836
59840,931
59848,1094
59855,1132
59863,1064
59871,764
59878,703
59886,756
59894,781
59901,808
59909,822
59917,830
59924,841
