Tempo(ms),Leitura(ECG)
8,763
16,730
23,721
31,721
39,721
46,725
54,725
62,732
69,738
77,747
98,768
106,772
113,776
125,781
133,746
141,768
148,882
156,958
164,897
171,665
179,411
186,434
194,452
202,462
209,468
217,467
225,469
232,468
240,467
248,473
255,498
263,532
270,567
278,603
286,640
293,678
301,711
309,743
438,944
446,938
454,934
461,934
469,929
477,928
484,929
492,932
500,933
507,933
515,934
522,935
530,935
538,935
545,935
553,931
561,926
568,923
576,920
584,921
605,928
612,932
620,935
627,936
635,936
643,933
650,927
658,922
666,919
673,918
681,922
688,922
698,920
706,909
714,904
721,909
729,909
737,904
744,985
752,1153
760,1217
767,1167
775,869
782,768
790,804
798,827
805,850
813,862
821,870
828,878
836,879
844,881
851,883
859,883
866,880
874,880
882,882
889,881
897,883
905,885
912,888
920,891
928,897
935,901
943,909
950,916
958,920
966,919
973,918
981,910
989,897
996,883
1004,872
1011,856
1019,834
1027,819
1171,799
1178,795
1186,791
1194,790
1201,787
1209,782
1216,778
1224,771
1232,760
1239,753
1247,745
1257,733
1265,719
1272,711
1280,710
1287,710
1295,713
1303,715
1310,717
1318,721
1326,716
1333,719
1341,811
1349,978
1356,1060
1364,1000
1372,691
1379,630
1387,655
1394,674
1402,691
1410,702
1417,716
1425,729
1433,733
1440,738
1448,741
1456,747
1463,753
1471,760
1478,765
1486,768
1494,773
1501,780
1509,786
1517,791
1647,775
1654,773
1675,774
1683,776
1691,784
1698,788
1706,795
1714,800
1721,805
1729,811
1736,818
1744,821
1752,827
1759,826
1767,821
1775,821
1785,823
1792,821
1800,824
1807,826
1815,831
1823,837
1830,839
1838,839
1846,837
1853,835
1861,837
1868,835
1876,837
1884,837
1891,839
1899,840
1907,842
1914,841
1922,840
1930,843
1937,843
1945,829
1952,900
1960,1069
1968,1195
1975,1183
1983,903
1991,739
1998,747
2006,761
2014,780
2021,788
2151,901
2159,911
2180,914
2188,904
2195,889
2203,872
2211,855
2218,835
2226,812
2234,792
2241,775
2249,762
2257,751
2264,745
2272,738
2279,736
2287,737
2295,738
2302,739
2312,740
2320,734
2328,729
2335,728
2343,728
2350,730
2358,732
2366,734
2373,739
2381,744
2389,743
2396,747
2404,751
2412,753
2419,753
2427,755
2434,757
2442,758
2450,759
2457,761
2465,761
2473,759
2480,759
2488,764
2495,775
2503,783
2511,787
2518,789
2526,791
2534,794
2664,1162
2685,737
2693,758
2700,779
2708,797
2716,806
2723,816
2731,827
2739,832
2746,839
2754,845
2762,849
2769,852
2777,855
2785,856
2792,858
2800,864
2807,867
2815,872
2823,880
2830,887
2840,898
2848,897
2856,902
2863,910
2871,916
2878,917
2886,913
2894,905
2901,894
2909,883
2917,868
2924,851
2932,836
2940,823
2947,815
2955,809
2962,806
2970,803
2978,804
2985,806
2993,808
3001,808
3008,808
3016,809
3023,811
3031,813
3039,814
3169,833
3191,831
3198,826
3206,820
3213,812
3221,806
3229,800
3236,796
3244,790
3252,788
3259,782
3267,775
3275,765
3282,765
3290,769
3298,774
3305,777
3313,778
3320,779
3328,776
3336,775
3343,774
3351,771
3359,768
3369,761
3376,750
3384,745
3391,743
3399,746
3407,748
3414,751
3422,758
3430,752
3437,759
3445,844
3452,1024
3460,1133
3468,1057
3475,782
3483,708
3491,717
3498,734
3506,736
3514,739
3521,747
3529,754
3536,762
3666,897
3674,901
3695,888
3703,877
3711,865
3718,849
3726,834
3733,822
3741,814
3749,809
3756,805
3764,806
3772,809
3779,814
3787,819
3795,822
3802,824
3810,827
3817,828
3825,832
3833,835
3840,836
3848,837
3856,838
3863,839
3871,840
3878,842
3886,842
3896,841
3904,831
3911,826
3919,827
3927,829
3934,829
3942,829
3949,828
3957,828
3965,832
3972,834
3980,836
3988,836
3995,837
4003,840
4011,841
4018,842
4026,844
4033,845
4041,843
4049,842
4178,861
4200,840
4207,836
4215,829
4222,822
4230,816
4238,811
4246,812
4253,797
4261,813
4268,900
4276,1086
4284,1130
4291,1015
4299,760
4307,717
4314,730
4322,737
4330,735
4337,739
4345,742
4352,745
4360,747
4368,749
4375,753
4383,755
4391,758
4398,761
4406,766
4413,771
4423,776
4431,773
4439,773
4446,777
4454,785
4462,797
4469,812
4477,826
4484,839
4492,847
4500,851
4507,849
4515,844
4523,835
4530,824
4538,811
4546,796
4675,813
4683,813
4704,816
4712,818
4719,818
4727,822
4735,825
4742,828
4750,833
4758,834
4765,836
4773,839
4780,843
4788,843
4796,845
4803,846
4811,850
4819,851
4826,849
4834,848
4842,848
4849,848
4857,850
4865,850
4872,848
4880,847
4887,843
4895,846
4903,851
4910,860
4918,861
4926,862
4933,861
4941,860
4951,860
4958,847
4966,839
4974,835
4981,828
4989,824
4997,823
5004,821
5012,824
5019,827
5027,834
5035,832
5042,844
5050,920
5058,1086
5188,842
5209,845
5217,846
5225,846
5232,846
5240,846
5248,849
5255,858
5263,862
5270,866
5278,863
5286,856
5293,847
5301,839
5309,826
5316,808
5324,786
5332,764
5339,747
5347,731
5355,721
5362,719
5370,714
5377,718
5385,718
5393,720
5400,727
5408,732
5416,732
5423,732
5431,734
5439,738
5446,744
5454,743
5461,743
5469,747
5479,752
5487,748
5494,743
5502,742
5510,746
5517,753
5525,749
5532,755
5540,756
5548,759
5555,763
5563,766
5693,854
5714,856
5721,855
5729,852
5737,849
5744,856
5752,857
5760,859
5767,857
5775,854
5782,857
5790,862
5798,854
5805,905
5813,1033
5821,1109
5828,1050
5836,824
5844,723
5851,773
5859,814
5867,835
5874,834
5882,839
5889,852
5897,858
5905,862
5912,863
5920,868
5928,870
5935,873
5943,875
5951,878
5958,878
5966,883
5973,889
5981,894
5989,898
5996,904
6006,920
6014,921
6021,928
6029,936
6037,933
6044,928
6052,914
6060,904
6190,837
6197,843
6218,838
6226,833
6234,829
6242,823
6249,813
6257,808
6264,801
6272,796
6280,794
6287,788
6295,784
6303,777
6310,778
6318,775
6325,772
6333,768
6341,765
6348,756
6356,752
6364,754
6371,762
6379,767
6387,771
6394,777
6402,776
6409,776
6417,780
6425,777
6432,777
6440,774
6448,771
6455,769
6463,770
6471,776
6478,776
6486,777
6493,779
6501,785
6509,788
6516,788
6524,868
6532,1014
6542,990
6549,856
6557,609
6564,623
6572,679
6702,895
6722,905
6730,923
6738,938
6745,951
6753,955
6761,949
6769,940
6776,932
6784,921
6791,907
6799,886
6807,859
6814,842
6822,824
6830,812
6837,801
6845,788
6852,787
6860,786
6868,785
6875,787
6883,795
6891,795
6898,802
6906,808
6914,810
6921,818
6929,818
6936,818
6944,824
6952,826
6959,823
6967,816
6975,808
6982,805
6990,809
6998,808
7005,804
7013,807
7020,819
7028,829
7036,824
7043,824
7051,818
7059,820
7069,814
7076,815
7207,825
7228,965
7235,1119
7243,1112
7251,950
7258,726
7266,716
7274,731
7281,741
7289,740
7297,739
7304,745
7312,749
7320,750
7327,750
7335,754
7343,754
7350,755
7358,759
7365,760
7373,762
7381,768
7388,777
7396,783
7404,792
7411,798
7419,806
7426,817
7434,830
7442,841
7449,844
7457,847
7465,841
7472,835
7480,826
7488,815
7495,796
7503,781
7511,767
7518,756
7526,750
7533,748
7541,748
7549,748
7556,751
7564,757
7572,758
7702,820
7709,822
7733,804
7740,808
7748,819
7756,830
7763,840
7771,846
7778,856
7786,861
7794,863
7801,867
7809,864
7817,862
7824,863
7832,866
7840,867
7847,869
7855,871
7863,872
7870,871
7878,872
7885,873
7893,869
7901,951
7908,1115
7916,1138
7924,1062
7931,783
7939,723
7946,777
7954,802
7962,824
7969,838
7977,844
7985,851
7992,857
8000,863
8008,866
8015,869
8023,870
8031,869
8038,869
8046,869
8053,870
8061,872
8069,877
8199,832
8207,822
8214,813
8236,805
8243,804
8251,793
8261,783
8269,770
8276,761
8284,757
8291,754
8299,751
8307,753
8314,752
8322,751
8330,750
8337,748
8345,746
8353,745
8360,742
8368,741
8375,742
8383,748
8391,753
8398,757
8406,761
8414,762
8421,757
8429,757
8436,753
8444,751
8452,752
8459,755
8467,754
8475,756
8482,759
8490,762
8498,767
8505,772
8513,773
8520,772
8528,773
8536,871
8543,1025
8551,1018
8559,957
8566,695
8574,645
8582,699
8712,868
8719,876
8740,901
8748,911
8755,919
8763,924
8771,922
8778,915
8788,908
8796,890
8804,873
8811,858
8819,841
8827,832
8834,824
8842,824
8850,822
8857,825
8865,826
8872,826
8880,832
8888,833
8895,833
8903,834
8911,840
8918,838
8926,836
8934,835
8941,844
8949,846
8957,844
8964,844
8972,837
8980,837
8987,843
8995,844
9002,846
9010,853
9018,848
9025,849
9033,855
9041,851
9048,849
9056,848
9063,842
9071,836
9079,830
9086,828
9094,835
9224,828
9246,847
9253,840
9261,835
9268,834
9276,828
9284,820
9291,821
9299,819
9307,816
9317,817
9324,808
9332,803
9340,812
9347,816
9355,821
9363,831
9370,841
9378,847
9385,844
9393,838
9401,827
9408,821
9416,810
9424,798
9431,782
9439,770
9447,764
9454,755
9462,751
9469,750
9477,751
9485,750
9492,755
9500,758
9508,756
9515,759
9523,764
9531,767
9538,765
9546,767
9553,770
9561,780
9569,782
9576,788
9584,790
9592,791
9599,795
9730,831
9751,836
9758,838
9766,849
9774,838
9781,875
9789,979
9796,1032
9804,1023
9812,893
9819,760
9827,780
9835,805
9845,838
9852,838
9860,837
9868,842
9875,850
9883,855
9891,858
9898,860
9906,859
9913,872
9921,873
9929,872
9936,872
9944,880
9952,882
9959,884
9967,888
9975,894
9982,904
9990,902
9998,910
10005,911
10013,906
10020,896
10028,893
10036,882
10043,872
10051,858
10059,843
10066,827
10074,823
10204,832
10211,834
10219,838
10227,840
10234,832
10255,819
10263,809
10271,801
10279,795
10286,788
10294,784
10301,775
10309,770
10317,769
10324,762
10332,764
10340,759
10350,752
10357,743
10365,740
10372,739
10380,735
10388,736
10395,739
10403,744
10411,743
10418,743
10426,749
10433,751
10441,745
10449,753
10456,757
10464,756
10472,757
10479,757
10487,758
10617,809
10625,809
10632,812
10640,809
10648,802
10655,810
10663,809
10671,807
10678,806
10686,803
10694,805
10701,806
10709,805
10717,808
10724,805
10732,803
10740,805
10760,808
10768,807
10776,815
10783,825
10791,825
10799,829
10806,830
10814,836
10822,841
10829,843
10837,844
10847,845
10855,841
10862,839
10870,838
10877,839
10885,841
10893,841
10900,848
11031,879
11038,879
11046,878
11054,874
11061,863
11069,908
11077,1014
11084,1074
11092,1081
11100,911
11107,783
11115,786
11122,791
11130,807
11138,809
11145,809
11153,814
11161,815
11168,817
11176,817
11184,817
11191,819
11199,821
11206,821
11214,823
11222,823
11229,824
11237,827
11245,833
11266,847
11273,845
11281,846
11289,845
11296,844
11304,836
11434,765
11442,767
11449,768
11459,766
11467,757
11475,750
11482,748
11490,751
11497,752
11505,754
11513,756
11520,760
11528,762
11536,762
11543,764
11551,764
11559,763
11566,764
11574,765
11581,766
11589,766
11597,766
11604,769
11612,772
11620,774
11627,774
11635,773
11643,775
11650,777
11658,779
11665,781
11673,783
11681,786
11824,829
11832,834
11840,836
11847,839
11855,843
11863,844
11870,849
11878,852
11886,856
11893,857
11901,858
11909,858
11916,856
11924,853
11931,854
11939,858
11947,867
11957,867
11964,861
11972,855
11980,852
11987,853
11995,854
12002,852
12010,851
12018,847
12025,846
12033,849
12041,854
12048,855
12056,856
12064,842
12071,887
12079,1048
12209,835
12216,836
12224,838
12231,837
12239,837
12247,838
12254,840
12262,842
12270,847
12277,850
12285,854
12293,860
12300,868
12308,871
12329,857
12337,845
12344,830
12352,812
12360,790
12367,769
12375,754
12383,743
12390,738
12398,736
12405,732
12413,731
12421,732
12428,732
12436,735
12446,736
12454,730
12461,727
12469,727
12477,727
12484,728
12492,731
12622,803
12630,804
12637,805
12645,806
12653,806
12660,807
12668,806
12676,805
12683,807
12691,807
12699,805
12706,804
12714,806
12721,808
12729,809
12737,811
12744,809
12752,807
12760,807
12767,808
12775,807
12783,806
12790,799
12798,798
12805,808
12813,819
12834,828
12842,833
12850,835
12857,839
12865,839
12872,842
12880,844
12888,844
12895,845
12903,849
13033,849
13040,853
13048,854
13055,855
13065,855
13073,846
13081,840
13088,840
13096,842
13104,845
13111,846
13119,851
13126,855
13134,859
13142,866
13149,875
13157,883
13165,892
13172,902
13180,904
13188,904
13195,902
13203,895
13210,884
13218,869
13226,854
13233,835
13241,816
13249,803
13256,793
13264,786
13272,783
13415,818
13422,814
13430,807
13438,802
13445,796
13453,789
13461,784
13468,779
13476,773
13484,772
13491,769
13499,765
13507,762
13514,761
13522,760
13530,759
13537,758
13545,758
13555,758
13562,751
13570,745
13578,744
13585,747
13593,749
13601,750
13608,752
13616,751
13623,748
13631,754
13639,762
13646,772
13654,778
13662,785
13669,788
13799,1134
13807,961
13814,771
13822,758
13830,774
13837,781
13845,779
13853,786
13860,789
13868,791
13875,790
13883,792
13891,792
13898,795
13919,802
13927,809
13934,817
13942,825
13950,832
13958,844
13965,854
13973,864
13980,878
13988,893
13996,904
14003,913
14011,920
14019,923
14026,919
14034,911
14041,899
14051,882
14059,856
14067,835
14074,821
14082,811
14212,864
14219,864
14227,862
14234,860
14242,859
14250,856
14257,851
14265,849
14273,846
14280,843
14288,842
14296,839
14303,839
14311,835
14319,831
14326,830
14334,828
14341,827
14349,829
14357,825
14364,825
14372,825
14380,827
14387,826
14395,820
14403,813
14424,821
14431,822
14439,819
14447,817
14454,814
14462,811
14470,804
14477,797
14485,789
14493,781
14623,753
14631,754
14638,759
14646,765
14654,766
14664,768
14671,762
14679,760
14686,759
14694,764
14702,768
14709,772
14717,776
14725,781
14732,789
14740,796
14747,806
14755,813
14763,824
14770,834
14778,843
14786,853
14793,857
14801,856
14809,852
14816,845
14824,836
14831,825
14839,808
14847,791
14854,779
14862,770
15005,827
15013,831
15020,836
15028,835
15036,839
15043,841
15051,842
15059,843
15066,846
15074,848
15082,849
15089,852
15097,854
15105,854
15112,854
15120,851
15127,847
15135,852
15143,859
15150,863
15160,866
15168,861
15176,862
15183,862
15191,863
15198,859
15206,857
15214,855
15221,855
15229,856
15237,857
15244,858
15252,861
15260,862
15389,862
15397,867
15405,869
15412,869
15420,868
15427,866
15435,866
15443,868
15450,870
15458,873
15466,876
15473,880
15481,889
15489,895
15510,910
15517,905
15525,895
15533,884
15540,868
15548,851
15556,835
15563,814
15571,792
15579,775
15586,763
15594,751
15602,743
15609,736
15617,733
15625,729
15632,730
15640,731
15650,734
15657,728
15665,727
15673,729
15680,730
15810,811
15818,814
15825,812
15833,808
15841,802
15848,798
15856,795
15864,793
15871,793
15879,792
15887,794
15894,794
15902,793
15909,796
15917,800
15925,814
15932,918
15940,1068
15948,1047
15955,934
15963,656
15971,646
15978,709
15986,739
15993,762
16014,793
16022,804
16030,815
16037,822
16045,829
16053,838
16060,843
16068,848
16076,856
16083,862
16213,880
16221,863
16229,849
16236,838
16244,828
16251,819
16259,815
16269,810
16277,803
16284,798
16292,800
16300,801
16307,803
16315,809
16322,812
16330,816
16338,816
16345,816
16353,817
16361,814
16368,812
16376,809
16384,810
16391,809
16399,813
16406,817
16414,817
16422,818
16429,822
16437,822
16445,817
16452,814
16596,724
16603,751
16611,767
16618,778
16626,777
16634,779
16641,782
16649,779
16657,778
16664,776
16672,774
16680,775
16687,775
16695,777
16703,780
16710,785
16718,788
16725,793
16733,800
16741,805
16748,815
16758,832
16766,833
16774,833
16781,836
16789,831
16796,825
16804,819
16812,810
16819,799
16827,786
16835,770
16842,757
16850,747
16980,797
16987,802
16995,804
17003,807
17010,809
17018,809
17026,811
17033,815
17041,814
17048,809
17056,804
17064,799
17071,795
17079,793
17100,796
17108,800
17115,806
17123,811
17131,819
17138,830
17146,823
17153,871
17161,1009
17169,1106
17177,1099
17184,916
17192,724
17199,758
17207,783
17215,802
17222,819
17230,827
17238,837
17247,848
17255,843
17263,841
17392,956
17400,948
17408,935
17415,921
17423,903
17430,884
17438,865
17446,848
17453,833
17461,824
17469,818
17476,814
17484,810
17492,805
17499,808
17507,805
17514,802
17522,803
17530,805
17537,805
17545,807
17553,807
17560,808
17568,805
17576,801
17583,802
17604,809
17612,808
17620,806
17627,802
17635,801
17643,793
17650,786
17658,779
17666,775
17795,688
17803,704
17811,715
17818,729
17826,737
17834,741
17841,752
17849,758
17856,760
17866,763
17874,759
17882,758
17889,759
17897,763
17905,769
17912,776
17920,784
17928,792
17935,799
17943,809
17950,818
17958,830
17966,843
17973,855
17981,862
17989,864
17996,860
18004,851
18012,844
18019,834
18027,821
18034,806
18042,791
18186,813
18194,813
18201,811
18209,816
18216,822
18224,829
18232,833
18239,841
18247,844
18255,848
18262,851
18270,851
18278,852
18285,849
18293,847
18301,844
18308,842
18316,843
18323,845
18331,845
18339,846
18346,845
18354,846
18364,850
18372,818
18379,848
18387,1001
18394,1172
18402,1203
18410,1033
18417,781
18425,765
18433,775
18563,878
18571,884
18578,890
18586,896
18593,903
18601,908
18609,907
18616,903
18624,894
18632,882
18639,869
18647,851
18655,831
18662,813
18670,799
18691,774
18699,769
18706,765
18714,760
18721,757
18729,754
18737,752
18744,752
18752,750
18760,748
18768,747
18775,744
18783,743
18790,743
18798,744
18806,744
18813,744
18821,744
18829,743
18836,743
18844,742
18854,742
18984,815
18991,815
18999,816
19007,815
19014,812
19022,809
19029,805
19037,803
19045,804
19052,804
19060,804
19068,804
19075,805
19083,806
19091,810
19098,797
19106,841
19113,990
19121,1171
19129,1153
19136,977
19144,772
19152,746
19159,751
19167,752
19175,750
19196,767
19203,776
19211,784
19218,792
19226,800
19234,809
19241,817
19249,824
19257,828
19387,879
19394,863
19402,849
19410,837
19417,830
19425,827
19433,826
19440,824
19448,825
19455,827
19465,828
19473,822
19481,814
19488,812
19496,810
19504,812
19511,812
19519,813
19526,811
19534,812
19542,812
19549,813
19557,814
19565,813
19572,814
19580,816
19588,817
19595,815
19603,814
19611,814
19618,815
19626,815
19769,846
19777,840
19785,839
19792,832
19800,823
19807,818
19815,811
19823,804
19830,797
19838,789
19846,781
19853,777
19861,773
19868,770
19876,769
19884,769
19891,769
19899,773
19907,760
19914,796
19922,941
19930,1140
19937,1125
19945,955
19955,718
19962,702
19970,707
19978,704
19985,703
19993,712
20001,722
20008,727
20016,733
20023,738
20153,886
20161,884
20169,880
20176,872
20184,858
20192,840
20199,822
20207,804
20215,792
20222,782
20230,776
20238,773
20245,772
20253,775
20274,786
20281,792
20289,798
20297,802
20304,808
20312,812
20320,819
20327,822
20335,825
20343,827
20350,829
20358,835
20366,838
20373,844
20381,847
20389,847
20396,850
20404,851
20411,853
20419,851
20427,852
20557,878
20564,880
20574,875
20582,865
20589,859
20597,856
20605,854
20612,852
20620,848
20628,845
20635,848
20643,852
20650,858
20658,860
20666,859
20673,858
20681,855
20689,854
20696,851
20704,845
20712,839
20719,833
20727,830
20735,829
20742,830
20750,832
20758,833
20779,821
20786,839
20794,940
20802,1080
20809,1109
20817,985
20825,719
20832,707
20840,727
20970,820
20978,827
20986,835
20993,844
21001,851
21009,862
21016,868
21024,871
21031,868
21039,861
21047,854
21054,842
21064,823
21072,796
21079,775
21087,759
21095,748
21102,743
21110,742
21118,742
21125,744
21133,746
21141,746
21148,748
21156,753
21164,758
21171,761
21179,766
21186,770
21194,773
21202,775
21209,778
21217,781
21361,829
21368,827
21376,832
21384,833
21391,833
21399,839
21407,844
21414,853
21422,858
21429,861
21437,864
21445,864
21452,865
21460,865
21468,863
21475,861
21483,855
21491,852
21498,854
21506,855
21513,855
21521,854
21529,855
21536,855
21544,857
21552,848
21562,953
21569,1075
21577,1061
21584,986
21592,726
21600,701
21607,756
21615,782
21745,907
21752,913
21760,923
21768,930
21775,937
21783,941
21791,940
21798,935
21806,925
21814,912
21821,896
21829,877
21836,855
21844,832
21865,784
21873,771
21881,761
21888,755
21896,747
21904,741
21911,736
21919,734
21927,733
21934,732
21942,734
21949,736
21957,738
21965,740
21972,742
21980,742
21988,744
21995,745
22003,747
22011,744
22018,744
22148,782
22155,782
22163,779
22173,783
22181,782
22188,782
22196,781
22204,787
22211,789
22219,789
22227,790
22234,793
22242,791
22249,788
22257,787
22265,788
22272,789
22280,789
22288,790
22295,793
22303,794
22311,799
22318,788
22326,842
22333,975
22341,1054
22349,1038
22370,718
22377,750
22385,776
22393,795
22400,805
22408,814
22416,823
22423,834
22431,842
22560,975
22568,971
22576,962
22583,950
22591,934
22599,915
22606,893
22614,869
22622,850
22629,836
22637,826
22645,820
22652,818
22660,816
22670,816
22677,807
22685,802
22693,802
22700,804
22708,809
22716,811
22723,814
22731,816
22738,818
22746,822
22754,826
22761,827
22769,827
22777,826
22784,823
22792,822
22800,820
22807,821
22951,825
22959,818
22966,814
22974,810
22982,811
22989,809
22997,805
23005,800
23012,794
23020,792
23028,786
23035,780
23043,776
23050,768
23058,761
23066,758
23073,757
23081,755
23089,755
23096,756
23104,763
23112,749
23119,764
23127,870
23134,1042
23142,1089
23150,985
23160,704
23167,686
23175,691
23183,701
23190,703
23198,710
23206,721
23335,864
23343,876
23351,885
23358,887
23366,884
23374,877
23381,868
23389,855
23396,838
23404,819
23412,798
23419,783
23427,770
23435,761
23455,759
23463,763
23471,773
23479,779
23486,786
23494,793
23501,800
23509,806
23517,810
23524,814
23532,817
23540,821
23547,824
23555,825
23562,828
23570,830
23578,834
23585,834
23593,836
23601,838
23608,839
23738,867
23746,869
23754,867
23761,864
23769,861
23779,856
23786,844
23794,834
23802,827
23809,824
23817,830
23825,838
23832,841
23840,843
23848,846
23855,843
23863,845
23871,843
23878,840
23886,836
23893,833
23901,828
23909,826
23916,825
23924,825
23932,826
23939,825
23960,819
23968,882
23976,1049
23984,1160
23991,1100
23999,854
24006,742
24014,737
24022,745
24152,816
24160,825
24167,832
24175,842
24183,853
24190,863
24198,867
24205,870
24213,866
24221,858
24228,849
24236,836
24244,818
24251,799
24259,783
24269,767
24276,749
24284,740
24292,738
24299,739
24307,743
24315,746
24322,751
24330,757
24337,763
24345,768
24353,771
24360,773
24368,775
24376,779
24383,780
24391,782
24534,832
24542,835
24549,838
24557,842
24565,847
24572,849
24580,851
24588,852
24595,850
24603,858
24611,867
24618,877
24626,878
24633,875
24641,876
24649,877
24656,879
24664,873
24672,869
24679,863
24687,859
24694,858
24702,859
24710,859
24717,860
24725,863
24733,863
24740,864
24748,858
24758,963
24766,1089
24773,1097
24781,994
24788,728
24918,890
24926,894
24933,897
24941,901
24949,904
24956,910
24964,920
24972,930
24979,937
24987,940
24995,935
25002,926
25010,915
25017,902
25039,849
25046,824
25054,804
25061,785
25069,768
25077,757
25085,754
25092,751
25100,746
25107,742
25115,740
25123,742
25130,741
25138,743
25146,743
25153,743
25161,744
25169,744
25176,745
25184,746
25191,746
25321,799
25329,801
25337,804
25344,808
25352,809
25359,807
25367,804
25377,795
25385,784
25392,780
25400,778
25407,780
25415,782
25423,786
25430,789
25438,788
25446,794
25453,780
25461,841
25469,986
25476,1022
25484,991
25492,777
25499,647
25507,707
25514,737
25522,764
25543,796
25551,807
25558,816
25566,825
25574,835
25581,843
25589,850
25597,855
25604,861
25734,929
25741,908
25749,886
25757,865
25764,847
25772,837
25780,831
25787,826
25795,821
25803,817
25810,814
25818,813
25825,814
25833,814
25841,815
25848,814
25856,815
25866,818
25874,810
25881,805
25889,808
25896,809
25904,807
25912,807
25919,808
25927,812
25935,811
25942,811
25950,812
25958,811
25965,806
25973,808
25980,808
26124,828
26132,813
26140,815
26147,902
26155,1030
26163,1028
26170,961
26178,692
26186,660
26193,696
26201,718
26209,735
26216,742
26224,746
26232,751
26239,755
26247,757
26254,757
26262,756
26270,759
26277,762
26285,764
26293,767
26300,771
26308,776
26316,782
26323,788
26331,795
26338,802
26346,814
26354,825
26364,840
26371,841
26379,840
26509,778
26516,780
26524,785
26532,787
26539,788
26547,789
26554,791
26562,793
26570,793
26577,793
26585,793
26593,797
26600,795
26608,792
26629,793
26637,796
26644,800
26652,806
26659,810
26667,814
26675,816
26683,818
26690,816
26698,817
26705,820
26713,827
26721,835
26728,840
26736,842
26744,847
26751,852
26759,852
26767,851
26774,851
26782,850
26912,790
26919,810
26927,823
26935,821
26942,825
26950,829
26958,831
26965,830
26975,830
26983,823
26991,819
26998,818
27006,818
27013,821
27021,825
27029,831
27036,833
27044,836
27052,844
27059,853
27067,861
27075,870
27082,878
27090,887
27097,890
27105,887
27113,880
27134,848
27141,829
27149,805
27157,782
27165,765
27172,753
27180,742
27187,736
27195,735
27203,733
27333,770
27340,773
27348,774
27355,774
27363,773
27371,771
27379,772
27386,772
27394,772
27401,769
27409,771
27417,771
27424,770
27432,770
27440,771
27447,766
27455,764
27462,773
27472,784
27480,779
27488,777
27495,781
27503,782
27510,784
27518,786
27526,784
27533,784
27541,782
27549,781
27556,784
27564,786
27572,787
27715,813
27722,818
27730,825
27738,829
27745,833
27753,839
27761,846
27768,851
27776,855
27784,860
27791,865
27799,873
27806,881
27814,890
27822,899
27829,911
27837,919
27845,927
27852,931
27860,928
27867,924
27875,916
27883,905
27890,890
27898,874
27906,858
27913,843
27921,831
27929,825
27936,819
27944,817
27951,817
27961,819
27969,813
28099,857
28107,856
28114,857
28122,855
28129,851
28137,849
28145,848
28152,845
28160,844
28168,842
28175,836
28183,831
28191,832
28198,838
28219,840
28227,836
28235,831
28242,826
28250,817
28258,808
28265,798
28273,785
28281,780
28288,774
28296,773
28303,770
28311,769
28319,765
28326,766
28334,772
28342,763
28349,780
28357,887
28365,1089
28372,1115
28502,792
28510,798
28517,804
28525,809
28533,815
28540,820
28548,827
28555,833
28563,841
28571,850
28581,859
28588,854
28596,848
28604,839
28611,832
28619,821
28626,810
28634,795
28642,779
28649,768
28657,760
28665,756
28672,755
28680,757
28688,758
28695,761
28703,764
28724,778
28731,784
28739,789
28747,794
28754,799
28762,806
28770,810
28777,814
28785,820
28793,828
28923,866
28931,875
28938,881
28946,886
28953,886
28961,888
28969,886
28976,882
28984,881
28992,876
28999,869
29007,860
29015,855
29022,853
29030,852
29037,851
29045,851
29053,850
29060,851
29070,855
29078,836
29086,847
29093,949
29101,1122
29108,1183
29116,1072
29124,795
29131,747
29139,766
29147,791
29154,800
29298,901
29306,908
29313,908
29321,904
29328,895
29336,882
29344,868
29351,851
29359,835
29367,817
29374,797
29382,778
29390,763
29397,752
29405,743
29412,737
29420,733
29428,735
29435,735
29443,738
29451,737
29458,737
29466,738
29474,742
29481,746
29489,745
29496,746
29504,749
29512,748
29519,750
29527,752
29535,753
29542,755
29550,755
29682,803
29690,807
29697,807
29705,806
29713,806
29720,807
29728,808
29736,809
29743,816
29751,800
29758,863
29766,1026
29774,1095
29781,1048
29802,687
29810,730
29818,759
29825,787
29833,801
29841,814
29848,826
29856,835
29863,840
29871,848
29879,853
29887,857
29894,860
29902,862
29909,868
29917,875
29925,879
29932,886
29940,893
29948,899
29955,909
30085,820
30093,817
30101,816
30108,813
30116,814
30123,815
30131,815
30139,817
30146,817
30154,816
30162,818
30169,817
30179,819
30187,809
30194,802
30202,800
30210,797
30217,793
30225,789
30233,790
30240,795
30248,801
30255,804
30263,808
30271,811
30278,813
30286,813
30307,807
30315,799
30322,791
30330,785
30338,778
30345,775
30353,771
30361,770
30368,768
30499,779
30506,782
30514,785
30522,786
30529,787
30537,788
30545,792
30552,793
30560,794
30567,800
30575,805
30583,809
30590,819
30598,828
30606,837
30613,847
30621,856
30629,864
30636,866
30644,861
30651,854
30659,846
30669,832
30677,809
30684,787
30692,773
30700,761
30707,752
30715,747
30722,744
30730,747
30738,749
30745,750
30888,835
30896,837
30904,843
30911,847
30919,846
30927,844
30934,844
30942,839
30949,838
30957,839
30965,840
30972,840
30980,842
30988,844
30995,847
31003,850
31011,851
31018,856
31026,838
31033,882
31041,1024
31049,1155
31056,1160
31064,939
31072,742
31079,762
31087,780
31095,799
31102,807
31110,813
31117,823
31125,828
31133,830
31263,924
31271,921
31281,906
31288,885
31296,866
31304,846
31311,828
31319,810
31327,798
31334,788
31342,781
31349,777
31357,775
31365,773
31372,774
31394,780
31401,780
31409,778
31417,775
31424,772
31432,769
31439,766
31447,766
31455,763
31462,761
31470,757
31478,750
31485,746
31493,746
31501,750
31508,754
31516,759
31524,761
31531,763
31539,765
31546,763
31677,1088
31685,1208
31692,1128
31700,836
31707,740
31715,736
31723,742
31730,740
31738,745
31746,755
31753,761
31761,766
31768,769
31778,771
31786,766
31794,765
31801,769
31809,775
31817,778
31824,783
31832,791
31839,799
31847,805
31855,814
31862,825
31870,835
31878,845
31899,859
31906,860
31914,857
31921,853
31929,847
31937,840
31944,832
31952,823
31960,815
32090,870
32098,872
32106,869
32113,862
32121,854
32129,848
32136,848
32144,853
32151,861
32159,864
32167,864
32174,863
32182,862
32190,860
32197,856
32205,853
32213,846
32220,838
32228,838
32235,836
32243,836
32251,834
32258,830
32268,829
32276,821
32284,818
32291,822
32299,807
32306,841
32314,981
32322,1188
32329,1207
32473,839
32480,838
32488,839
32496,842
32503,843
32511,845
32519,848
32526,849
32534,848
32542,841
32549,832
32557,821
32564,808
32572,792
32580,777
32587,760
32595,747
32603,735
32610,728
32618,723
32626,721
32633,721
32641,723
32648,727
32656,730
32664,733
32671,736
32679,739
32687,740
32694,742
32702,744
32710,746
32717,748
32725,750
32855,819
32862,818
32870,811
32878,807
32888,805
32895,798
32903,790
32911,787
32918,787
32926,790
32933,793
32941,799
32949,801
32956,797
32977,1180
32985,1151
32993,904
33000,754
33008,763
33016,785
33023,794
33031,799
33039,808
33046,818
33054,825
33061,831
33069,838
33077,843
33084,847
33092,850
33100,854
33107,857
33115,862
33123,864
33130,870
33260,840
33268,833
33275,830
33283,827
33291,824
33298,825
33306,824
33313,824
33321,825
33329,824
33336,822
33344,820
33352,818
33359,817
33367,816
33377,816
33384,807
33392,802
33400,801
33407,798
33415,799
33423,799
33430,796
33438,792
33445,795
33453,802
33461,812
33482,821
33490,817
33497,814
33505,807
33513,801
33520,795
33528,785
33535,780
33543,776
33551,774
33681,754
33689,758
33696,763
33704,768
33712,772
33719,774
33727,778
33734,779
33742,783
33750,786
33757,789
33765,790
33773,793
33780,799
33788,805
33796,808
33803,817
33811,826
33818,835
33826,842
33834,848
33841,850
33849,848
33857,843
33864,836
33874,820
33882,800
33889,781
33897,770
33905,761
33912,756
33920,754
34063,834
34070,834
34078,831
34086,828
34094,828
34101,832
34109,839
34117,848
34124,855
34132,862
34139,866
34147,866
34155,865
34162,863
34170,862
34178,854
34185,850
34193,851
34201,850
34208,849
34216,849
34223,850
34231,850
34239,849
34246,848
34254,852
34262,845
34269,913
34277,1081
34284,1203
34292,1151
34300,873
34307,759
34438,875
34445,881
34453,886
34461,891
34468,896
34476,902
34486,906
34493,898
34501,887
34509,877
34516,867
34524,854
34532,844
34539,832
34547,820
34568,795
34576,786
34584,779
34591,773
34599,769
34607,767
34614,768
34622,766
34629,767
34637,768
34645,767
34652,766
34660,765
34668,765
34675,763
34683,764
34691,763
34698,759
34706,755
34713,753
34721,754
34851,796
34859,795
34866,797
34874,801
34882,803
34889,796
34897,886
34905,1056
34912,1091
34920,1009
34928,707
34935,639
34943,700
34950,730
34958,755
34966,767
34976,779
34983,781
34991,784
34999,787
35006,790
35014,796
35021,802
35029,807
35037,811
35044,816
35052,824
35073,846
35081,859
35088,872
35096,886
35104,900
35111,912
35119,920
35127,924
35134,920
35264,854
35271,856
35279,855
35287,856
35294,855
35302,853
35310,846
35317,843
35325,837
35333,836
35340,833
35348,832
35355,831
35363,834
35371,833
35378,836
35386,839
35394,833
35401,826
35409,821
35417,813
35424,808
35432,809
35439,807
35447,804
35455,802
35462,803
35472,801
35480,796
35488,791
35495,796
35503,786
35646,846
35654,842
35661,836
35669,834
35677,832
35684,831
35692,833
35700,835
35707,835
35715,841
35723,845
35730,848
35738,848
35745,844
35753,834
35761,821
35768,810
35776,798
35784,783
35791,767
35799,751
35807,738
35814,733
35822,726
35829,721
35837,718
35845,718
35852,720
35860,726
35868,730
35875,731
35883,736
35891,743
35898,746
36028,808
36036,805
36043,800
36051,798
36059,794
36066,792
36074,794
36084,793
36092,785
36099,780
36107,781
36114,785
36122,783
36130,784
36151,1120
36158,1093
36166,820
36173,688
36181,733
36189,759
36197,783
36204,798
36212,809
36220,824
36227,833
36235,840
36242,845
36250,850
36258,853
36265,858
36273,861
36281,867
36288,871
36296,878
36304,882
36433,846
36441,837
36449,830
36456,824
36464,822
36471,820
36479,819
36487,819
36494,820
36502,823
36510,823
36517,823
36525,823
36533,824
36540,821
36548,820
36555,820
36563,817
36571,814
36581,807
36588,798
36596,795
36604,795
36611,801
36619,805
36626,811
36634,816
36655,813
36663,812
36670,804
36678,795
36686,789
36694,785
36701,784
36709,780
36717,776
36724,772
36854,772
36862,775
36869,780
36877,781
36885,782
36892,782
36900,785
36908,786
36915,789
36923,793
36931,798
36938,803
36946,810
36954,818
36961,826
36969,836
36977,845
36984,851
36992,855
36999,856
37007,850
37015,844
37022,835
37030,825
37038,811
37045,796
37053,782
37060,771
37070,763
37078,752
37086,745
37093,748
37236,823
37244,830
37251,838
37259,847
37267,854
37274,858
37282,859
37290,860
37298,859
37305,860
37313,858
37320,852
37328,853
37336,854
37343,851
37351,851
37359,852
37366,852
37374,853
37381,855
37389,858
37397,839
37404,879
37412,1028
37420,1198
37427,1205
37435,997
37443,784
37450,778
37458,790
37465,801
37473,802
37481,811
37611,905
37619,912
37626,914
37634,913
37642,907
37649,899
37657,886
37664,874
37672,859
37682,833
37690,806
37697,786
37705,775
37713,768
37720,765
37741,766
37749,768
37757,767
37764,766
37772,762
37780,760
37787,761
37795,759
37803,756
37810,754
37818,754
37826,750
37833,749
37841,746
37849,744
37856,745
37864,746
37871,746
37879,747
37887,745
37894,741
38025,795
38032,799
38040,799
38047,802
38055,806
38063,789
38070,796
38078,900
38086,1080
38093,1149
38101,1041
38109,768
38116,723
38124,735
38131,752
38139,754
38147,759
38154,768
38162,776
38170,779
38180,782
38187,776
38195,775
38202,777
38210,779
38218,784
38225,791
38246,813
38254,824
38261,837
38269,849
38277,865
38285,882
38292,895
38300,902
38307,905
38437,855
38445,857
38452,856
38460,856
38468,856
38475,854
38483,852
38491,850
38498,848
38506,847
38514,845
38521,843
38529,842
38536,840
38544,835
38552,835
38559,829
38567,824
38575,823
38582,827
38590,835
38598,841
38605,846
38613,847
38620,848
38628,846
38636,842
38643,841
38651,838
38659,831
38669,829
38676,820
38819,813
38827,816
38835,818
38842,818
38850,813
38858,810
38865,808
38873,803
38880,802
38888,800
38896,800
38904,799
38911,802
38919,805
38926,809
38934,815
38942,821
38949,828
38957,834
38965,841
38972,843
38980,843
38988,837
38995,829
39003,819
39010,806
39018,793
39026,777
39033,764
39041,752
39049,745
39056,737
39064,734
39071,733
39202,790
39209,792
39217,796
39224,797
39232,801
39240,806
39247,806
39255,807
39263,804
39270,801
39278,797
39288,791
39295,778
39303,773
39324,780
39332,785
39339,792
39347,800
39355,807
39362,817
39370,819
39377,820
39385,924
39393,1096
39401,1141
39408,1068
39416,768
39423,721
39431,766
39439,786
39446,809
39454,822
39462,830
39469,838
39477,847
39607,951
39614,950
39622,941
39630,928
39637,915
39645,900
39653,883
39660,862
39668,843
39675,828
39683,816
39691,806
39698,803
39706,799
39714,794
39721,791
39729,792
39737,792
39744,792
39752,794
39759,797
39767,798
39777,800
39785,795
39792,790
39800,792
39808,793
39829,793
39836,793
39844,792
39852,788
39859,781
39867,775
39875,769
39882,767
39890,764
40020,782
40028,785
40036,788
40043,768
40051,795
40058,913
40066,1048
40074,1065
40081,916
40089,661
40097,678
40104,708
40112,729
40120,744
40127,752
40135,760
40142,772
40150,776
40158,780
40165,784
40173,785
40181,790
40188,794
40196,799
40203,804
40211,811
40219,813
40226,820
40234,830
40242,837
40249,846
40257,856
40402,804
40410,811
40418,816
40425,822
40433,830
40441,833
40448,838
40456,842
40463,847
40471,850
40479,851
40486,852
40494,853
40502,853
40509,852
40517,851
40525,851
40532,852
40540,851
40548,849
40555,846
40563,842
40570,839
40578,839
40586,842
40593,848
40601,854
40609,858
40616,857
40624,856
40632,855
40639,852
40647,847
40654,840
40785,750
40792,772
40800,789
40808,804
40815,808
40823,810
40830,819
40838,822
40846,825
40853,825
40861,824
40869,825
40876,825
40886,826
40907,814
40915,815
40923,818
40930,821
40938,825
40946,832
40953,840
40961,847
40968,852
40976,854
40984,851
40992,841
40999,830
41007,815
41014,801
41022,783
41030,765
41037,751
41045,739
41053,730
41060,727
41068,728
41198,789
41206,788
41213,790
41221,789
41229,787
41236,786
41244,786
41252,784
41259,781
41267,779
41274,775
41282,778
41290,782
41297,790
41305,795
41313,798
41320,801
41328,801
41336,798
41343,800
41351,801
41358,799
41366,793
41376,795
41384,788
41391,784
41412,790
41420,794
41427,801
41435,812
41443,809
41450,820
41458,915
41466,1084
41473,1163
41481,1084
41612,894
41619,898
41627,900
41635,903
41642,907
41650,913
41657,921
41665,928
41673,932
41680,935
41688,933
41696,926
41703,915
41711,902
41719,889
41726,871
41734,850
41741,831
41749,817
41757,806
41764,798
41772,792
41780,792
41787,792
41795,794
41803,794
41810,796
41818,800
41825,802
41833,804
41841,805
41848,808
41992,813
42000,804
42010,799
42017,792
42025,788
42033,785
42040,782
42048,779
42055,776
42063,774
42071,771
42078,765
42086,759
42094,757
42101,757
42109,757
42117,758
42124,757
42132,757
42139,755
42147,756
42155,759
42162,757
42170,747
42178,812
42185,970
42193,1074
42201,1034
42208,778
42216,682
42223,698
42231,719
42239,734
42246,738
42376,864
42384,875
42391,883
42399,890
42407,893
42414,890
42422,881
42430,873
42437,861
42445,846
42453,830
42460,814
42468,796
42475,785
42499,758
42506,759
42514,766
42522,776
42529,786
42537,795
42545,804
42552,811
42560,816
42567,821
42575,828
42583,835
42590,841
42598,844
42606,843
42613,847
42621,848
42629,849
42636,851
42644,851
42652,851
42659,853
42790,864
42797,863
42805,861
42813,860
42820,858
42828,853
42836,851
42843,849
42851,848
42858,853
42866,833
42874,853
42881,961
42889,1114
42897,1150
42904,1011
42912,761
42920,747
42927,767
42935,786
42942,790
42950,795
42958,801
42965,808
42975,812
42983,805
43004,805
43012,805
43019,804
43027,805
43035,806
43042,805
43050,809
43057,814
43065,819
43195,759
43203,759
43210,758
43218,760
43226,760
43233,762
43241,761
43248,763
43256,761
43264,760
43271,764
43279,765
43287,765
43294,765
43302,765
43310,767
43317,765
43325,767
43332,768
43340,767
43348,768
43355,768
43363,768
43371,766
43378,766
43386,766
43394,764
43401,760
43409,761
43416,770
43424,780
43432,787
43575,835
43582,952
43590,1107
43598,1144
43608,903
43615,743
43623,754
43631,779
43638,798
43646,805
43654,814
43661,824
43669,830
43676,836
43684,842
43692,845
43699,851
43707,855
43715,856
43722,859
43730,863
43738,867
43745,871
43753,877
43760,883
43768,890
43776,897
43783,906
43791,916
43799,923
43806,925
43814,922
43822,917
43829,909
43959,829
43967,832
43974,832
43982,831
43989,827
43997,825
44005,823
44012,823
44020,821
44028,819
44035,817
44043,813
44051,810
44058,806
44079,797
44087,794
44097,798
44105,792
44112,785
44120,783
44128,778
44135,774
44143,770
44151,768
44158,759
44166,758
44173,757
44181,758
44189,757
44196,758
44204,758
44212,759
44219,761
44227,766
44235,755
44242,767
44373,798
44380,803
44388,804
44395,807
44403,811
44411,811
44418,815
44426,820
44434,828
44441,836
44449,845
44457,854
44464,863
44472,868
44479,865
44487,860
44495,853
44502,842
44510,829
44518,813
44525,797
44533,783
44541,771
44548,763
44556,759
44563,757
44584,761
44594,768
44602,767
44610,770
44617,778
44625,788
44633,796
44640,804
44648,811
44656,818
44786,885
44794,888
44801,888
44809,886
44817,883
44824,877
44832,874
44840,865
44847,857
44855,851
44863,848
44870,847
44878,844
44885,843
44893,842
44901,841
44908,842
44916,846
44924,823
44931,868
44939,1012
44947,1164
44954,1163
44962,952
44969,759
44977,756
44985,773
44992,785
45000,786
45008,791
45015,800
45023,802
45166,895
45174,883
45182,870
45189,852
45197,833
45207,804
45215,775
45222,751
45230,738
45237,729
45245,723
45253,719
45260,718
45268,721
45276,721
45283,724
45291,726
45299,731
45306,733
45314,736
45321,739
45329,738
45337,740
45344,741
45352,742
45360,744
45367,747
45375,749
45383,749
45390,750
45398,754
45405,753
45413,753
45421,753
45550,806
45558,807
45566,808
45573,810
45581,811
45589,812
45596,811
45604,803
45612,881
45619,1049
45627,1162
45635,1106
45642,824
45650,729
45671,768
45678,775
45686,789
45696,801
45704,799
45711,803
45719,809
45727,816
45734,824
45742,832
45750,838
45757,844
45765,851
45772,857
45780,865
45788,873
45795,881
45803,890
45811,899
45818,909
45826,916
45834,919
45964,837
45972,842
45979,842
45987,842
45995,842
46002,840
46010,837
46018,835
46025,834
46033,835
46041,830
46048,827
46056,824
46063,822
46071,818
46079,812
46086,808
46094,807
46102,810
46109,814
46117,821
46125,825
46132,826
46140,827
46147,827
46155,824
46176,812
46184,804
46194,796
46202,785
46209,777
46217,773
46224,768
46232,767
46240,765
46247,770
46378,787
46385,790
46393,791
46400,792
46408,793
46416,796
46423,797
46431,800
46439,802
46446,807
46454,814
46462,820
46469,827
46477,837
46484,843
46492,844
46500,844
46507,839
46515,831
46523,820
46530,810
46538,797
46546,786
46553,771
46561,760
46568,755
46576,750
46584,749
46591,748
46599,752
46607,755
46614,761
46758,823
46765,831
46773,837
46780,843
46788,845
46796,846
46806,845
46813,837
46821,828
46829,828
46836,833
46844,835
46852,837
46859,839
46867,842
46874,845
46882,849
46890,857
46897,846
46905,904
46913,1058
46920,1209
46928,1190
46936,938
46943,774
46951,787
46958,810
46966,818
46974,819
46981,827
46989,833
46997,836
47004,840
47012,843
47142,921
47149,912
47157,900
47165,886
47172,872
47180,855
47188,838
47195,823
47203,812
47211,802
47218,797
47226,795
47233,792
47241,791
47262,796
47270,795
47277,790
47285,788
47293,785
47303,778
47310,766
47318,758
47326,751
47333,745
47341,745
47349,748
47356,749
47364,755
47372,761
47379,765
47387,769
47395,770
47402,769
47410,765
47417,762
47425,756
47555,664
47563,714
47571,744
47578,764
47586,774
47593,781
47601,790
47609,794
47616,797
47624,799
47632,803
47639,803
47647,807
47655,810
47662,813
47670,817
47678,822
47685,829
47693,835
47701,843
47708,853
47716,864
47723,872
47731,878
47739,880
47746,877
47767,859
47775,849
47782,843
47793,832
47800,814
47808,801
47816,796
47823,794
47831,793
47838,792
47969,883
47976,887
47984,887
47992,878
47999,873
48007,867
48015,858
48022,849
48030,848
48038,845
48045,841
48053,840
48061,839
48068,838
48076,839
48083,840
48091,844
48099,827
48106,868
48114,1001
48122,1093
48129,1083
48137,877
48145,693
48152,738
48160,765
48167,787
48175,800
48183,805
48190,814
48198,821
48342,906
48349,893
48357,876
48365,858
48372,836
48380,815
48388,793
48395,775
48403,760
48413,745
48421,730
48428,718
48436,714
48443,714
48451,715
48459,718
48466,722
48474,724
48482,729
48489,732
48497,735
48505,734
48512,737
48520,741
48527,743
48535,749
48543,752
48550,755
48558,757
48566,759
48573,753
48581,752
48588,751
48596,750
48726,690
48734,725
48741,750
48749,769
48756,777
48764,782
48772,791
48779,797
48787,802
48795,801
48802,805
48810,808
48818,806
48825,808
48846,821
48854,830
48861,841
48869,853
48877,864
48884,879
48892,892
48902,908
48910,906
48917,902
48925,897
48933,892
48940,883
48948,874
48956,862
48963,851
48971,840
48978,832
48986,826
48994,822
49001,822
49009,819
49017,819
49147,867
49154,861
49162,856
49170,850
49177,844
49185,837
49193,833
49200,830
49208,824
49216,823
49223,821
49231,820
49239,819
49246,821
49254,818
49261,808
49269,875
49277,1024
49284,1112
49292,1078
49300,804
49307,725
49315,746
49323,763
49330,772
49351,788
49359,787
49367,788
49374,786
49382,786
49392,784
49400,777
49407,769
49415,768
49423,770
49553,779
49561,768
49568,762
49576,757
49584,757
49591,756
49599,757
49607,761
49614,763
49622,760
49629,762
49637,763
49645,766
49652,768
49660,765
49668,764
49675,766
49683,766
49690,768
49698,776
49706,782
49713,785
49721,789
49729,791
49736,790
49744,787
49751,784
49759,779
49767,777
49774,776
49782,779
49790,780
49933,807
49941,813
49948,821
49956,827
49964,832
49971,836
49979,841
49986,847
49994,851
50002,854
50012,859
50019,856
50027,862
50035,869
50042,880
50050,890
50058,903
50065,915
50073,922
50080,922
50088,916
50096,906
50103,900
50111,886
50119,863
50126,858
50134,844
50142,827
50149,819
50157,812
50165,812
50172,811
50180,811
50188,816
50317,855
50325,858
50333,856
50340,849
50348,843
50355,836
50363,830
50371,825
50378,823
50386,820
50394,817
50401,817
50409,818
50417,817
50438,817
50445,789
50453,830
50461,967
50468,1120
50476,1137
50484,904
50491,706
50501,720
50509,722
50517,721
50524,718
50532,721
50539,729
50547,733
50555,739
50562,742
50570,745
50578,747
50585,751
50593,757
50601,764
50731,804
50738,791
50746,779
50754,770
50761,764
50769,761
50777,756
50784,756
50792,758
50799,761
50807,766
50815,768
50822,769
50830,774
50838,776
50845,778
50853,779
50861,780
50868,784
50876,785
50883,786
50891,786
50899,788
50906,787
50914,782
50922,781
50943,796
50950,810
50958,819
50965,820
50973,825
50981,833
50988,835
50998,836
51006,823
51014,819
51143,836
51151,850
51159,849
51166,852
51174,856
51181,858
51189,859
51197,861
51204,860
51212,857
51220,859
51227,859
51235,862
51243,862
51250,863
51258,863
51266,868
51273,874
51281,880
51288,884
51296,895
51304,904
51311,906
51319,905
51327,897
51334,892
51342,883
51350,871
51357,857
51365,839
51372,818
51380,804
51524,816
51531,812
51539,805
51546,799
51554,795
51562,789
51569,783
51577,777
51585,772
51592,767
51600,763
51610,755
51618,743
51625,738
51633,743
51640,748
51648,750
51656,753
51663,753
51671,754
51679,753
51686,753
51694,751
51702,748
51709,748
51717,748
51724,749
51732,749
51740,747
51747,749
51755,752
51763,760
51770,751
51778,770
51908,802
51916,805
51923,808
51931,812
51938,814
51946,818
51954,822
51961,828
51969,839
51976,845
51984,855
51992,865
51999,873
52007,876
52028,863
52036,856
52043,847
52051,838
52059,824
52066,814
52074,804
52082,798
52089,796
52097,795
52107,795
52115,791
52122,789
52130,793
52137,799
52145,804
52153,810
52160,814
52168,819
52176,821
52183,823
52191,826
52199,828
52329,869
52336,869
52344,862
52351,856
52359,848
52367,841
52374,835
52382,834
52390,833
52397,830
52405,828
52413,828
52420,828
52428,832
52435,820
52443,825
52451,918
52458,1098
52466,1180
52474,1065
52481,789
52489,743
52497,760
52504,777
52512,779
52533,788
52541,787
52548,786
52556,784
52564,782
52571,784
52579,784
52586,784
52596,783
52604,775
52734,779
52741,766
52749,756
52757,749
52764,745
52772,745
52780,745
52787,747
52795,751
52802,758
52810,762
52818,768
52825,770
52833,773
52841,780
52848,783
52856,786
52864,788
52871,786
52879,781
52886,779
52894,774
52902,769
52909,767
52917,767
52925,765
52932,763
52940,763
52948,767
52955,769
52963,771
52970,769
53114,842
53122,850
53129,852
53137,862
53145,929
53152,1072
53160,1156
53167,1071
53175,806
53183,753
53190,795
53198,830
53208,853
53216,846
53223,848
53231,856
53239,864
53246,869
53254,877
53261,878
53269,879
53277,884
53284,882
53292,886
53300,891
53307,895
53315,900
53323,901
53330,908
53338,918
53345,928
53353,916
53361,888
53368,873
53498,841
53506,843
53514,843
53521,843
53529,843
53536,842
53544,842
53552,838
53559,836
53567,835
53575,830
53582,830
53590,828
53598,826
53619,815
53626,812
53634,812
53642,814
53649,812
53657,813
53665,808
53672,801
53680,794
53687,791
53695,781
53705,772
53713,769
53720,761
53728,756
53736,751
53743,751
53751,754
53759,758
53766,768
53774,761
53781,826
53912,811
53920,815
53927,821
53935,825
53942,831
53950,835
53958,840
53965,845
53973,852
53981,858
53988,868
53996,875
54003,880
54011,881
54019,876
54026,869
54034,855
54042,847
54049,831
54057,814
54065,795
54072,783
54080,770
54087,759
54095,753
54103,751
54124,755
54131,758
54139,768
54147,778
54154,788
54162,798
54170,801
54177,807
54185,811
54315,855
54325,850
54333,837
54340,829
54348,826
54355,828
54363,828
54371,829
54378,825
54386,832
54394,818
54401,878
54409,1019
54417,1100
54424,1081
54432,816
54439,676
54447,722
54455,749
54462,774
54470,792
54478,803
54485,814
54493,820
54500,824
54508,826
54516,825
54523,824
54531,826
54539,830
54546,835
54554,836
54697,812
54705,799
54712,785
54720,775
54728,765
54736,757
54743,753
54751,748
54758,746
54766,746
54774,744
54781,744
54789,747
54797,749
54804,750
54814,747
54822,738
54829,731
54837,729
54845,726
54852,724
54860,727
54868,727
54875,735
54883,743
54890,749
54898,756
54906,762
54913,761
54921,758
54929,755
54936,755
54944,752
54952,755
55081,775
55089,787
55097,788
55104,795
55112,803
55120,806
55127,806
55135,809
55143,808
55150,809
55158,814
55165,816
55173,821
55181,826
55202,846
55209,858
55217,868
55225,881
55232,893
55240,901
55248,908
55255,911
55263,908
55270,903
55278,897
55286,886
55293,873
55303,851
55311,831
55319,817
55326,809
55334,807
55341,809
55349,811
55357,814
55364,819
55372,824
55502,857
55510,862
55518,867
55525,873
55533,872
55540,871
55548,867
55556,859
55563,851
55571,844
55579,836
55586,830
55594,825
55601,823
55609,823
55617,823
55624,821
55632,820
55640,824
55647,821
55655,826
55663,897
55670,1052
55678,1155
55685,1061
55707,728
55714,756
55722,769
55730,765
55737,769
55745,770
55753,770
55760,768
55768,767
55898,848
55906,843
55913,836
55923,817
55931,792
55939,769
55946,752
55954,741
55962,733
55969,732
55977,730
55984,731
55992,733
56000,739
56007,745
56015,749
56023,754
56030,757
56038,760
56046,764
56053,768
56061,770
56068,770
56076,771
56084,772
56091,774
56099,775
56107,775
56114,776
56122,777
56130,779
56137,780
56145,778
56288,834
56296,839
56304,846
56311,851
56319,870
56327,945
56334,1089
56342,1174
56350,1079
56357,815
56365,750
56373,778
56380,813
56388,824
56396,830
56403,839
56413,845
56421,842
56428,840
56436,842
56444,845
56451,850
56459,852
56467,856
56474,862
56482,871
56489,872
56497,881
56505,890
56512,894
56520,901
56528,915
56535,923
56543,930
56673,833
56680,837
56688,839
56696,831
56703,828
56711,830
56719,827
56726,825
56734,822
56741,820
56749,815
56757,813
56764,808
56772,804
56793,809
56801,808
56808,809
56816,806
56824,802
56832,799
56839,792
56847,782
56854,784
56862,778
56870,763
56877,759
56885,763
56893,759
56903,757
56910,746
56918,743
56925,745
56933,749
56941,746
56948,762
56956,860
57086,738
57094,741
57101,742
57109,743
57117,743
57124,748
57132,755
57140,760
57147,767
57155,774
57163,781
57170,788
57178,794
57185,791
57193,786
57201,777
57208,771
57216,764
57224,749
57231,736
57239,729
57247,722
57254,714
57262,708
57269,709
57277,709
57298,718
57306,725
57313,734
57321,747
57329,759
57336,766
57344,774
57352,783
57359,789
57489,866
57497,868
57505,864
57512,865
57522,867
57530,856
57537,848
57545,848
57553,856
57560,849
57568,884
57576,1001
57583,1145
57591,1166
57598,1015
57606,726
57614,734
57621,773
57629,805
57637,826
57644,834
57652,844
57660,854
57667,857
57675,862
57682,867
57690,869
57698,870
57705,872
57713,874
57721,876
57728,878
57872,854
57879,842
57887,830
57895,820
57902,811
57910,807
57917,805
57925,801
57933,799
57941,797
57948,797
57956,794
57963,793
57971,791
57979,789
57986,790
57994,789
58002,784
58012,780
58019,767
58027,763
58034,764
58042,768
58050,775
58057,782
58065,785
58073,789
58080,788
58088,787
58095,787
58103,786
58111,782
58118,778
58126,778
58256,781
58263,788
58271,797
58279,804
58286,810
58294,811
58302,814
58309,814
58317,813
58325,814
58332,815
58340,818
58347,821
58355,822
58376,837
58384,850
58391,864
58399,876
58406,887
58414,898
58422,900
58430,902
58437,899
58445,893
58452,884
58460,873
58468,863
58475,850
58483,838
58491,827
58498,816
58508,810
58516,801
58523,799
58531,800
58539,805
58668,848
58676,851
58684,854
58691,857
58699,863
58706,863
58714,862
58722,856
58729,852
58737,848
58745,841
58752,829
58760,823
58768,822
58775,818
58783,817
58790,816
58798,814
58806,812
58813,812
58821,819
58829,812
58836,840
58844,933
58852,1098
58859,1137
58880,708
58888,733
58896,756
58903,755
58911,754
58919,758
58926,762
58934,763
58942,765
59071,850
59079,844
59087,834
59094,826
59102,814
59110,800
59120,783
59127,758
59135,739
59143,732
59150,729
59158,730
59165,733
59173,734
59181,740
59188,747
59196,748
59204,750
59211,754
59219,757
59227,761
59234,763
59242,765
59249,768
59257,769
59265,768
59272,775
59280,778
59288,779
59295,781
59303,779
59311,778
59318,778
59462,830
59469,831
59477,838
59485,848
59492,846
59500,870
59508,953
59515,1098
59523,1148
59531,1034
59538,768
59546,738
59554,776
59561,810
59569,826
59577,831
59584,838
59592,848
59599,855
59609,854
59617,849
59625,846
59632,845
59640,849
59648,854
59655,859
59663,863
59670,870
59678,876
59686,885
59693,895
59701,900
59709,910
59716,915
59846,821
59854,825
59861,826
59869,825
59877,826
59884,827
59892,821
59899,820
59907,817
59915,816
59922,813
59930,813
59938,813
59945,809
59966,803
59974,791
59982,787
59989,786
59997,785
60005,789
