Tempo(ms),Leitura(ECG)
8,781
16,745
23,734
31,738
38,742
46,748
54,754
61,766
69,774
77,787
84,778
92,837
99,1019
111,1224
119,1090
127,752
134,638
142,617
149,609
157,595
165,581
172,571
180,560
201,534
209,525
217,517
224,511
232,507
240,513
247,539
255,571
263,609
270,647
278,686
286,722
293,757
301,792
308,824
316,843
324,859
331,870
339,874
347,877
354,878
362,874
370,868
377,866
385,867
392,869
400,873
408,877
415,882
423,885
431,895
438,903
446,910
454,914
461,918
469,919
476,921
484,924
492,926
499,926
507,928
515,924
522,926
530,930
537,931
545,920
675,905
685,899
706,873
714,883
721,884
729,934
737,1067
744,1244
752,1228
760,1066
767,827
775,804
782,833
790,846
798,848
806,857
813,863
821,868
828,870
836,872
844,876
851,876
859,878
867,874
874,873
882,879
889,883
897,886
905,889
912,898
920,903
928,908
935,912
943,919
951,922
958,915
966,904
973,893
981,880
989,865
996,853
1004,837
1012,818
1019,804
1027,798
1035,795
1042,791
1050,789
1057,790
1065,794
1073,796
1080,799
1088,799
1096,799
1103,797
1111,797
1121,797
1128,789
1136,781
1144,779
1151,779
1159,781
1303,807
1311,802
1318,796
1326,790
1333,786
1341,783
1349,782
1357,772
1364,779
1372,880
1379,1064
1387,1139
1395,1029
1402,726
1410,647
1418,668
1425,695
1433,708
1440,712
1448,721
1456,727
1463,731
1471,736
1479,740
1486,743
1494,749
1502,754
1509,757
1517,762
1524,769
1532,774
1540,782
1547,791
1555,799
1563,810
1570,824
1578,832
1586,838
1593,840
1601,837
1608,829
1616,818
1624,809
1631,800
1639,786
1649,767
1779,804
1786,805
1807,813
1815,823
1823,832
1830,837
1838,842
1845,847
1853,845
1861,845
1868,843
1876,838
1884,837
1892,839
1899,839
1907,839
1914,839
1922,841
1930,844
1937,846
1945,847
1953,847
1960,850
1968,943
1976,1112
1983,1150
1991,1056
1998,750
2006,695
2014,741
2021,770
2029,802
2037,816
2044,824
2052,834
2059,839
2067,844
2075,847
2082,849
2090,849
2098,853
2105,859
2113,858
2121,867
2128,870
2136,877
2143,885
2274,797
2281,796
2289,795
2313,781
2320,780
2328,777
2336,777
2343,775
2351,773
2358,774
2366,771
2374,764
2381,763
2389,762
2397,764
2404,770
2412,774
2420,772
2427,772
2435,774
2443,772
2450,764
2458,761
2465,757
2473,752
2481,749
2488,749
2496,752
2504,749
2511,750
2519,751
2527,757
2534,762
2542,770
2549,755
2557,813
2565,968
2572,1073
2580,1045
2588,812
2595,618
2603,658
2611,688
2618,717
2626,741
2633,756
2641,768
2649,781
2656,786
2787,912
2794,900
2815,863
2823,849
2830,838
2840,818
2848,805
2856,796
2863,796
2871,798
2879,802
2886,806
2894,807
2902,814
2909,822
2917,830
2924,835
2932,839
2940,843
2947,847
2955,845
2963,845
2970,841
2978,838
2986,834
2993,832
3001,834
3008,839
3016,841
3024,843
3031,851
3039,852
3047,850
3054,846
3062,848
3070,840
3077,830
3085,830
3092,827
3100,831
3108,823
3115,828
3123,830
3131,831
3138,835
3146,836
3154,821
3161,883
3169,1055
3299,837
3320,840
3328,841
3336,842
3343,843
3351,847
3359,848
3369,849
3376,835
3384,825
3392,815
3399,806
3407,792
3414,781
3422,768
3430,757
3437,744
3445,732
3453,726
3460,721
3468,720
3476,719
3483,720
3491,723
3498,729
3506,733
3514,737
3521,740
3529,746
3537,749
3544,749
3552,754
3560,754
3567,756
3575,758
3582,759
3590,762
3598,763
3605,760
3613,761
3621,762
3628,770
3636,780
3643,788
3651,793
3659,795
3666,796
3674,799
3804,1256
3825,759
3832,752
3840,769
3847,781
3855,789
3863,803
3870,813
3878,820
3886,828
3896,835
3903,828
3911,829
3919,835
3926,839
3934,846
3941,855
3949,862
3957,867
3964,874
3972,884
3980,895
3987,904
3995,911
4003,914
4010,911
4018,908
4025,898
4033,889
4041,876
4048,861
4056,845
4064,833
4071,820
4079,812
4086,811
4094,808
4102,805
4109,803
4117,808
4125,809
4132,812
4140,811
4148,813
4155,815
4163,819
4170,818
4178,816
4308,850
4329,843
4337,835
4344,820
4352,813
4359,807
4367,801
4375,795
4382,796
4390,789
4398,790
4405,793
4413,782
4423,805
4431,937
4438,1123
4446,1145
4453,975
4461,712
4469,687
4476,707
4484,726
4492,730
4499,740
4507,752
4514,757
4522,764
4530,768
4537,774
4545,777
4553,783
4560,788
4568,792
4576,797
4583,801
4591,809
4598,817
4606,823
4614,832
4621,844
4629,857
4637,864
4644,866
4652,867
4660,864
4667,855
4675,842
4805,818
4812,820
4833,822
4841,824
4849,827
4857,829
4864,831
4872,834
4879,833
4887,835
4895,835
4902,838
4910,843
4918,851
4925,856
4933,861
4940,859
4950,861
4958,853
4966,845
4973,842
4981,839
4989,836
4996,840
5004,842
5011,844
5019,845
5027,844
5034,843
5042,845
5050,850
5057,832
5065,886
5073,1034
5080,1164
5088,1155
5095,921
5103,693
5111,729
5118,762
5126,788
5134,807
5141,813
5149,825
5156,835
5164,840
5172,842
5179,842
5309,906
5317,895
5338,849
5346,828
5353,810
5361,794
5369,782
5376,770
5384,762
5392,757
5399,756
5407,752
5415,752
5422,753
5430,753
5438,752
5445,754
5453,756
5460,755
5468,755
5478,751
5486,746
5493,738
5501,736
5509,732
5516,733
5524,736
5531,739
5539,747
5547,754
5554,760
5562,765
5570,769
5577,769
5585,768
5593,767
5600,763
5608,760
5615,763
5623,764
5631,766
5638,767
5646,771
5654,773
5661,776
5669,782
5677,781
5684,790
5692,893
5822,842
5843,857
5851,866
5858,872
5866,879
5874,890
5881,902
5889,915
5897,925
5904,931
5912,930
5920,926
5927,916
5935,905
5943,893
5950,880
5958,865
5966,851
5973,839
5981,829
5988,823
5996,818
6006,813
6014,801
6021,799
6029,802
6037,806
6044,809
6052,817
6059,820
6067,824
6075,825
6082,830
6090,832
6098,833
6105,834
6113,832
6121,832
6128,829
6136,825
6143,822
6151,822
6159,821
6166,827
6174,832
6182,835
6189,835
6197,837
6327,1144
6349,744
6356,711
6364,730
6372,751
6379,762
6387,766
6394,773
6402,779
6410,779
6417,780
6425,778
6433,779
6440,781
6448,783
6456,782
6463,784
6471,787
6479,791
6486,797
6494,806
6501,816
6509,822
6517,834
6524,843
6534,850
6542,835
6550,824
6557,814
6565,804
6572,794
6580,783
6588,769
6595,755
6603,749
6611,741
6618,738
6626,738
6634,743
6641,745
6649,747
6656,751
6664,755
6672,760
6679,763
6687,770
6695,773
6702,777
6832,838
6853,830
6860,825
6868,828
6876,831
6884,835
6891,837
6899,840
6906,846
6914,849
6922,855
6929,850
6937,851
6945,937
6952,1112
6960,1225
6967,1154
6975,847
6983,755
6990,772
6998,797
7006,813
7013,823
7021,835
7029,839
7036,843
7044,846
7051,850
7109,507
7117,463
7124,472
7132,508
7140,550
7147,598
7155,645
7162,681
7170,713
7178,736
7185,758
7193,774
7201,786
7208,794
7216,797
7224,802
7231,809
7239,822
7247,828
7254,836
7262,848
7269,858
7277,870
7285,880
7292,889
7300,897
7308,905
7315,909
7323,914
7331,918
7338,921
7359,924
7367,921
7375,918
7382,914
7390,903
7398,893
7405,889
7413,888
7421,888
7428,885
7559,866
7566,855
7574,926
7582,1088
7589,1220
7597,1175
7605,894
7612,747
7620,757
7627,778
7637,792
7645,789
7653,792
7660,796
7668,801
7676,803
7683,809
7691,813
7698,816
7706,817
7714,820
7721,826
7729,829
7737,834
7744,840
7752,850
7760,856
7767,865
7775,871
7782,879
7790,887
7798,885
7805,879
7813,869
7821,857
7828,844
7836,828
7844,814
7864,776
7872,773
7880,773
7887,778
7895,778
7903,783
7910,790
7918,795
7926,802
7933,807
7941,810
8071,845
8079,852
8087,852
8094,849
8102,849
8110,845
8117,840
8125,834
8132,825
8140,822
8148,816
8155,816
8165,811
8173,801
8181,795
8188,795
8196,797
8203,799
8211,786
8219,857
8226,1030
8234,1192
8242,1162
8249,898
8257,713
8265,715
8272,735
8280,750
8287,757
8295,767
8303,776
8310,780
8318,785
8326,789
8333,790
8341,793
8348,794
8370,803
8377,805
8385,807
8393,805
8400,807
8408,812
8416,821
8423,831
8431,837
8439,837
8446,829
8454,822
8584,758
8592,765
8599,767
8607,763
8614,767
8622,771
8630,767
8637,764
8645,769
8653,772
8660,770
8668,769
8675,768
8683,769
8693,765
8701,753
8708,745
8716,751
8724,758
8731,772
8739,781
8746,784
8754,784
8762,787
8769,789
8777,792
8785,791
8792,786
8800,783
8808,782
8815,787
8823,791
8830,792
8838,793
8846,795
8853,800
8874,824
8882,990
8890,1206
8897,1242
8905,1063
8913,780
8920,749
8928,767
8936,785
8943,793
8951,809
8958,819
9088,944
9096,944
9103,941
9111,932
9119,919
9126,903
9134,887
9141,869
9149,854
9157,837
9164,823
9172,812
9180,804
9187,803
9195,799
9202,801
9210,802
9220,807
9228,800
9235,798
9243,799
9251,802
9258,805
9266,809
9273,809
9281,811
9289,817
9296,816
9304,814
9312,815
9319,816
9327,814
9335,815
9342,817
9350,813
9357,811
9379,804
9386,806
9394,805
9402,812
9409,810
9417,806
9424,803
9432,798
9440,795
9447,791
9455,785
9463,775
9470,771
9478,769
9608,760
9615,769
9623,778
9631,782
9638,788
9646,791
9654,794
9661,793
9669,801
9677,800
9684,805
9692,810
9699,816
9707,822
9715,829
9722,838
9730,845
9738,854
9748,867
9755,870
9763,870
9770,869
9778,865
9786,857
9793,846
9801,837
9809,824
9816,809
9824,795
9831,783
9839,776
9847,772
9854,772
9862,769
9883,780
9891,787
9898,793
9906,801
9914,811
9921,818
9929,824
9936,828
9944,834
9952,836
9960,840
9967,845
9975,844
9982,840
9990,840
10120,862
10128,861
10136,860
10143,857
10151,855
10158,855
10166,854
10174,832
10181,898
10189,1070
10197,1182
10204,1147
10212,862
10220,682
10227,722
10235,751
10242,777
10250,790
10260,799
10268,803
10275,802
10283,804
10291,807
10298,810
10306,813
10313,816
10321,820
10329,824
10336,830
10344,837
10352,846
10359,855
10503,774
10510,770
10518,767
10525,761
10533,760
10541,758
10548,756
10556,756
10564,757
10571,756
10579,753
10587,755
10594,753
10602,752
10610,751
10617,749
10625,747
10632,744
10640,743
10648,741
10655,742
10663,735
10671,730
10678,733
10686,738
10694,744
10701,749
10709,755
10716,759
10724,765
10732,768
10739,766
10747,763
10757,758
10887,725
10894,746
10902,761
10910,768
10917,778
10925,788
10933,792
10940,796
10948,802
10955,802
10963,802
10971,806
10978,811
10986,811
11007,827
11015,836
11022,850
11030,864
11038,879
11045,892
11053,904
11060,910
11068,911
11076,904
11084,896
11091,889
11099,878
11106,864
11114,853
11122,842
11129,828
11137,823
11145,821
11152,815
11160,813
11168,813
11297,858
11305,856
11312,850
11320,849
11328,843
11335,838
11343,830
11351,829
11358,833
11366,839
11376,843
11383,836
11391,831
11399,828
11406,827
11414,825
11422,819
11429,813
11437,811
11444,811
11452,812
11460,813
11467,815
11475,814
11483,815
11490,820
11512,879
11519,1073
11527,1227
11534,1163
11542,890
11550,713
11557,708
11565,725
11573,732
11702,833
11710,839
11718,849
11725,857
11733,856
11741,852
11748,843
11756,835
11763,823
11771,809
11779,792
11786,781
11794,766
11802,756
11809,753
11817,746
11825,747
11832,746
11840,750
11847,752
11855,756
11865,759
11873,755
11880,755
11888,759
11896,762
11903,768
11911,774
11919,781
11926,784
11934,787
11941,788
11949,791
12093,841
12100,844
12108,848
12116,849
12123,857
12131,863
12139,846
12146,910
12154,1083
12161,1241
12169,1222
12177,946
12184,755
12192,773
12200,801
12207,821
12215,827
12223,838
12230,849
12238,853
12245,856
12253,858
12261,857
12268,859
12276,862
12284,866
12291,870
12299,875
12307,877
12314,884
12322,889
12329,896
12337,903
12467,814
12477,814
12484,805
12492,801
12500,802
12507,804
12515,805
12522,807
12530,808
12538,812
12545,814
12553,815
12561,814
12568,814
12576,812
12597,801
12605,798
12612,793
12620,792
12628,792
12635,792
12643,793
12651,795
12658,789
12666,779
12674,776
12681,768
12689,764
12697,763
12704,762
12712,759
12719,761
12727,761
12735,758
12742,762
12750,766
12880,801
12888,805
12895,808
12903,809
12911,812
12918,817
12926,825
12934,827
12941,829
12949,838
12956,848
12964,855
12974,868
12982,868
12989,866
12997,863
13005,857
13012,848
13020,838
13027,825
13035,813
13043,798
13050,788
13058,777
13066,767
13073,764
13081,758
13102,763
13110,771
13117,777
13125,787
13132,795
13140,802
13148,807
13155,813
13163,823
13294,861
13301,853
13309,848
13317,847
13324,846
13332,842
13339,839
13347,837
13355,839
13362,838
13370,841
13378,822
13385,863
13393,1009
13401,1169
13408,1189
13416,985
13424,724
13431,720
13439,742
13446,768
13454,778
13464,788
13472,791
13479,789
13487,789
13495,796
13502,802
13510,807
13517,809
13525,813
13533,817
13676,807
13684,797
13692,785
13699,774
13707,767
13714,761
13722,760
13730,756
13737,756
13745,755
13753,756
13760,754
13768,752
13776,754
13783,756
13791,751
13798,752
13806,754
13814,749
13821,747
13829,745
13837,738
13844,736
13852,738
13859,746
13867,749
13875,756
13882,758
13890,762
13898,763
13905,759
13913,758
13921,756
13928,752
14058,728
14066,750
14076,757
14083,757
14091,766
14099,765
14106,766
14114,773
14122,780
14129,782
14137,786
14144,791
14152,794
14160,802
14181,820
14188,832
14196,846
14204,863
14211,874
14219,883
14227,895
14234,902
14242,902
14249,897
14257,890
14265,879
14272,871
14280,858
14288,844
14295,830
14303,822
14311,816
14318,811
14326,814
14334,815
14341,817
14472,848
14479,854
14487,859
14495,861
14502,864
14510,863
14518,861
14525,854
14533,849
14540,845
14548,837
14556,832
14563,828
14573,824
14581,813
14589,807
14596,807
14604,809
14611,813
14619,806
14627,802
14634,904
14642,1116
14650,1261
14657,1177
14665,857
14686,752
14694,758
14701,761
14709,769
14717,773
14724,775
14732,773
14740,776
14747,775
14877,866
14885,853
14892,836
14900,818
14908,797
14915,775
14923,759
14931,752
14938,757
14946,754
14953,753
14961,754
14969,757
14976,759
14984,763
14992,763
14999,763
15007,769
15015,771
15022,774
15030,775
15037,785
15045,789
15053,790
15063,787
15070,776
15078,778
15086,783
15093,794
15101,796
15108,806
15116,812
15124,820
15267,1141
15275,828
15283,678
15290,722
15298,747
15306,776
15313,798
15321,816
15329,832
15336,840
15344,846
15351,852
15359,855
15367,857
15374,858
15382,863
15390,865
15397,874
15405,878
15413,887
15420,895
15428,904
15435,909
15443,913
15451,927
15458,931
15466,932
15474,920
15481,913
15489,901
15497,881
15504,878
15512,861
15519,842
15649,837
15657,834
15665,835
15672,838
15682,835
15690,825
15698,816
15705,816
15713,818
15720,810
15728,804
15736,800
15743,794
15751,793
15772,792
15780,791
15788,790
15795,787
15803,781
15811,777
15818,776
15826,746
15833,806
15841,974
15849,1091
15856,1068
15864,836
15872,592
15879,631
15887,664
15894,689
15902,722
15910,735
15917,748
15925,760
16055,889
16062,888
16070,879
16078,864
16085,848
16093,833
16100,815
16108,800
16116,787
16123,770
16131,761
16139,759
16146,755
16154,754
16161,753
16171,755
16179,750
16187,749
16194,749
16202,756
16210,763
16217,773
16225,777
16232,778
16240,783
16248,790
16255,792
16276,808
16284,815
16292,819
16299,825
16307,826
16315,826
16322,822
16330,822
16337,820
16467,761
16475,781
16483,809
16490,822
16498,836
16505,846
16513,849
16521,853
16528,853
16536,853
16544,857
16551,859
16559,860
16566,861
16574,863
16582,869
16589,873
16597,879
16605,888
16612,898
16620,907
16628,917
16635,918
16643,912
16650,902
16658,892
16668,872
16676,848
16683,831
16691,814
16699,800
16706,787
16714,779
16858,828
16865,823
16873,822
16881,819
16889,818
16896,810
16904,805
16911,794
16919,785
16927,781
16934,774
16942,769
16950,759
16957,758
16965,755
16972,754
16980,751
16988,751
16995,756
17003,759
17011,747
17018,734
17026,820
17034,1007
17041,1121
17049,1068
17056,758
17064,631
17072,655
17079,680
17087,707
17095,721
17102,736
17233,881
17240,887
17248,890
17255,887
17263,876
17271,861
17281,843
17288,821
17296,798
17303,779
17311,770
17319,765
17326,763
17334,760
17342,760
17362,768
17370,776
17378,784
17386,792
17393,803
17401,808
17409,815
17416,818
17424,822
17431,825
17439,833
17447,835
17454,837
17462,836
17470,838
17477,840
17485,842
17492,839
17500,841
17508,835
17515,834
17645,857
17653,858
17660,860
17668,852
17676,833
17683,904
17691,1082
17699,1230
17706,1181
17714,922
17721,729
17729,730
17737,753
17744,773
17752,781
17760,794
17770,803
17777,794
17785,790
17793,793
17800,798
17808,801
17815,805
17823,813
17831,817
17838,818
17846,823
17867,844
17875,851
17883,857
17890,863
17898,869
17905,871
17913,864
17921,854
18050,763
18058,770
18066,768
18073,766
18081,768
18089,769
18096,769
18104,763
18111,765
18119,769
18127,771
18134,770
18142,771
18149,776
18157,785
18165,784
18172,780
18180,775
18188,779
18195,778
18203,778
18211,783
18218,783
18226,788
18234,788
18241,789
18249,782
18256,782
18266,794
18274,798
18282,791
18289,793
18297,794
18441,1233
18448,1144
18456,860
18464,759
18471,776
18479,796
18487,799
18494,805
18502,820
18510,826
18517,824
18525,838
18532,844
18540,843
18548,837
18555,842
18563,848
18571,849
18578,855
18586,859
18594,865
18601,875
18609,883
18616,886
18624,896
18632,906
18639,915
18647,918
18655,919
18662,913
18670,900
18678,886
18685,870
18816,830
18823,827
18831,823
18838,823
18846,821
18854,821
18861,819
18869,818
18879,813
18887,804
18894,798
18902,798
18909,799
18917,799
18925,799
18946,800
18953,800
18961,800
18969,796
18976,796
18984,794
18992,792
19000,783
19007,782
19015,777
19022,772
19030,771
19038,779
19045,787
19053,789
19061,790
19068,790
19076,792
19084,787
19091,787
19099,779
19106,779
19236,719
19244,739
19252,756
19259,763
19267,769
19274,780
19282,785
19290,790
19297,791
19305,791
19313,798
19320,800
19328,802
19336,805
19343,809
19351,814
19358,824
19366,830
19376,840
19384,842
19391,849
19399,865
19407,877
19414,884
19422,890
19429,887
19450,867
19458,859
19466,846
19474,836
19481,823
19489,814
19496,808
19504,805
19512,808
19519,811
19649,872
19656,871
19664,866
19672,861
19679,860
19687,856
19695,856
19702,854
19710,850
19718,847
19725,845
19733,841
19741,839
19748,837
19756,834
19763,835
19771,837
19779,843
19786,846
19794,845
19802,841
19809,842
19817,844
19825,842
19832,834
19840,829
19847,822
19855,823
19865,820
19873,811
19880,803
19888,802
20031,842
20039,841
20046,841
20054,833
20062,828
20069,825
20077,826
20085,825
20092,824
20100,826
20108,835
20115,842
20123,850
20131,860
20138,873
20146,875
20153,873
20161,866
20169,857
20176,845
20184,828
20192,806
20199,788
20207,772
20215,757
20222,742
20230,734
20237,726
20245,723
20253,720
20260,720
20268,721
20276,723
20283,729
20413,793
20421,795
20429,802
20436,805
20444,810
20451,814
20459,814
20467,807
20474,798
20484,790
20492,778
20500,770
20507,770
20515,773
20536,781
20543,787
20551,793
20559,808
20566,805
20574,816
20582,926
20589,1106
20597,1147
20605,1053
20612,740
20620,694
20628,746
20635,778
20643,807
20650,820
20658,835
20666,847
20673,850
20681,853
20689,855
20818,960
20826,946
20834,930
20841,908
20849,881
20857,856
20864,840
20872,821
20880,810
20887,799
20895,793
20903,789
20910,790
20918,786
20925,785
20933,788
20941,789
20948,790
20956,793
20964,798
20974,801
20981,796
20989,790
20996,795
21004,798
21012,800
21019,799
21040,798
21048,793
21056,785
21063,777
21071,775
21079,770
21086,771
21094,774
21102,775
21232,775
21240,860
21247,1031
21255,1132
21262,1062
21270,763
21278,651
21286,682
21293,711
21301,735
21308,744
21316,750
21324,760
21331,765
21339,770
21347,778
21354,782
21362,784
21369,788
21377,793
21385,798
21392,804
21400,812
21408,818
21415,825
21423,832
21431,846
21438,860
21446,872
21453,881
21463,886
21471,876
21614,809
21622,814
21629,820
21637,826
21645,833
21652,833
21660,838
21668,841
21675,843
21683,844
21691,846
21698,844
21706,842
21714,839
21721,836
21729,839
21736,842
21744,848
21752,852
21759,861
21767,864
21775,865
21782,862
21790,859
21798,856
21805,849
21813,840
21820,838
21828,838
21836,836
21843,834
21851,833
21859,831
21866,833
21996,832
22004,829
22012,831
22019,832
22027,831
22034,830
22042,829
22050,833
22057,837
22065,841
22073,842
22083,847
22090,850
22098,854
22119,869
22127,865
22134,854
22142,843
22150,828
22157,808
22165,787
22172,770
22180,751
22188,739
22196,730
22203,725
22211,723
22218,722
22226,724
22234,722
22241,727
22249,730
22257,732
22264,738
22272,736
22280,734
22410,777
22417,786
22425,799
22433,802
22440,803
22448,804
22456,801
22463,801
22471,798
22478,796
22486,791
22494,785
22501,787
22509,789
22517,785
22524,783
22532,786
22540,791
22547,792
22555,798
22562,781
22572,863
22580,1050
22588,1193
22595,1116
22603,849
22624,734
22632,751
22639,760
22647,781
22654,798
22662,804
22670,812
22678,821
22685,827
22815,956
22823,946
22830,930
22838,909
22845,888
22853,865
22861,850
22868,838
22876,828
22884,823
22891,819
22899,821
22907,821
22914,821
22922,820
22929,821
22937,820
22945,821
22952,826
22960,827
22968,823
22975,825
22983,824
22991,820
22998,826
23006,823
23013,819
23021,816
23029,816
23036,820
23044,825
23052,830
23195,824
23205,912
23213,1080
23221,1154
23228,1070
23236,738
23243,639
23251,671
23259,703
23266,730
23274,738
23282,748
23289,760
23297,765
23305,763
23312,766
23320,765
23328,774
23335,772
23343,776
23350,782
23358,782
23366,789
23373,795
23381,806
23389,817
23396,832
23404,843
23412,856
23419,864
23427,868
23435,867
23442,861
23572,792
23580,799
23588,805
23595,804
23603,802
23611,799
23618,802
23626,800
23633,799
23641,804
23649,807
23656,809
23664,815
23672,816
23695,798
23703,800
23710,802
23718,803
23725,804
23733,810
23741,814
23748,822
23756,827
23764,832
23771,838
23779,844
23787,847
23794,850
23802,842
23810,938
23817,1115
23825,1164
23833,1098
23840,787
23848,678
23978,907
23985,912
23993,920
24001,926
24008,931
24016,936
24023,942
24031,937
24039,931
24046,921
24054,909
24062,889
24069,872
24077,854
24084,833
24092,819
24100,806
24107,799
24115,787
24123,783
24130,783
24138,783
24146,782
24153,785
24161,788
24171,791
24178,788
24200,782
24207,779
24215,781
24223,784
24230,783
24238,788
24245,791
24253,789
24261,785
24268,787
24398,866
24406,1044
24414,1110
24421,1048
24429,732
24437,623
24444,664
24452,687
24460,720
24467,739
24475,751
24483,763
24490,773
24498,777
24505,779
24513,783
24521,784
24528,786
24536,792
24544,799
24551,806
24559,812
24566,818
24574,826
24582,838
24589,854
24597,863
24605,871
24612,877
24620,881
24628,876
24771,814
24779,820
24786,826
24796,829
24804,824
24812,823
24819,827
24827,835
24835,843
24842,850
24850,851
24858,855
24865,857
24873,852
24880,848
24888,847
24896,844
24903,840
24911,839
24919,839
24926,840
24934,842
24942,840
24949,839
24957,839
24964,840
24972,846
24980,820
24987,870
24995,1029
25003,1186
25010,1187
25018,962
25026,708
25155,876
25163,881
25171,886
25178,899
25186,911
25194,921
25201,928
25209,930
25216,924
25224,915
25232,904
25239,892
25247,873
25255,855
25276,809
25283,794
25293,780
25301,768
25309,759
25316,753
25324,753
25332,756
25339,753
25347,755
25355,758
25362,762
25370,764
25378,765
25385,765
25393,767
25400,766
25408,771
25416,771
25423,773
25431,777
25439,784
25569,803
25577,798
25584,780
25592,864
25600,1061
25607,1194
25615,1141
25622,835
25630,673
25638,688
25645,708
25653,735
25661,747
25668,758
25676,774
25684,783
25691,787
25699,789
25706,794
25714,796
25722,799
25729,803
25737,809
25745,812
25752,822
25760,831
25783,850
25791,860
25798,872
25806,886
25814,892
25821,898
25829,895
25837,891
25844,884
25974,863
25982,863
25989,865
25997,862
26005,858
26013,853
26020,850
26028,844
26035,840
26043,840
26051,840
26058,843
26066,845
26074,849
26081,849
26089,845
26096,841
26104,837
26112,832
26119,828
26127,820
26135,811
26142,815
26150,816
26158,815
26165,814
26173,811
26181,810
26188,814
26196,817
26203,803
26211,792
26354,825
26362,826
26370,823
26377,820
26385,821
26392,826
26403,827
26410,825
26418,827
26425,835
26433,842
26441,841
26448,837
26456,831
26464,821
26471,810
26479,793
26487,772
26494,756
26502,742
26509,730
26517,723
26525,720
26532,718
26540,720
26548,722
26555,728
26563,730
26570,731
26578,733
26586,736
26593,742
26601,747
26609,749
26738,802
26746,814
26754,824
26761,823
26769,822
26777,819
26784,816
26792,814
26800,809
26807,806
26815,800
26823,797
26830,798
26838,797
26859,798
26866,802
26874,808
26882,817
26892,811
26899,828
26907,945
26915,1122
26922,1171
26930,1054
26938,759
26945,720
26953,748
26960,781
26968,803
26976,813
26983,830
26991,841
26999,849
27006,855
27014,858
27022,860
27152,935
27160,920
27167,902
27175,878
27183,855
27190,837
27198,824
27206,814
27213,803
27221,803
27229,800
27236,798
27244,801
27251,799
27259,802
27267,804
27274,806
27282,807
27290,808
27297,808
27305,809
27313,811
27320,809
27328,808
27335,808
27343,808
27364,804
27372,799
27382,795
27390,778
27397,766
27405,763
27412,762
27420,761
27428,758
27435,755
27566,792
27573,793
27581,794
27588,793
27596,795
27604,788
27611,789
27619,871
27627,1040
27634,1127
27642,1054
27650,772
27657,665
27665,686
27672,717
27680,740
27688,748
27695,760
27703,772
27711,779
27718,782
27726,785
27734,787
27741,786
27749,789
27756,796
27764,799
27772,806
27779,809
27787,817
27795,827
27938,788
27946,786
27954,791
27961,796
27969,804
27976,808
27984,815
27992,820
28002,824
28009,822
28017,819
28025,819
28032,819
28040,824
28048,828
28055,832
28063,836
28070,837
28078,839
28086,837
28093,839
28101,841
28109,841
28116,840
28124,843
28132,846
28139,846
28147,847
28154,845
28162,845
28170,843
28177,842
28185,838
28193,836
28322,844
28330,843
28338,843
28345,843
28353,838
28361,829
28368,902
28376,1082
28384,1213
28391,1146
28399,892
28407,726
28414,727
28422,753
28443,779
28451,783
28458,784
28466,782
28474,781
28481,778
28491,775
28499,765
28507,757
28514,757
28522,761
28529,766
28537,774
28545,781
28552,787
28560,797
28568,807
28575,820
28583,832
28591,842
28598,841
28606,839
28736,767
28744,771
28751,775
28759,776
28767,776
28774,775
28782,774
28790,777
28797,778
28805,779
28812,779
28820,778
28828,777
28835,778
28843,778
28851,776
28858,779
28866,782
28873,782
28881,780
28889,782
28896,782
28904,784
28912,788
28919,788
28927,788
28948,788
28955,792
28963,805
28971,819
28981,831
28988,829
28996,830
29004,831
29011,835
29019,839
29149,1158
29156,875
29164,777
29171,794
29179,818
29187,823
29194,831
29202,840
29210,844
29217,846
29225,848
29233,846
29240,843
29248,847
29255,849
29263,853
29271,852
29278,852
29286,856
29294,860
29301,866
29309,872
29317,884
29324,895
29332,903
29339,910
29347,916
29355,917
29362,912
29370,903
29378,891
29385,876
29529,819
29536,812
29544,805
29552,799
29559,794
29567,787
29575,784
29582,779
29590,774
29600,767
29608,756
29615,749
29623,747
29630,747
29638,746
29646,743
29653,745
29661,752
29669,750
29676,750
29684,759
29692,768
29699,777
29707,780
29714,781
29722,781
29730,782
29737,783
29745,782
29753,775
29760,768
29768,766
29776,770
29783,770
29913,790
29921,797
29928,810
29936,818
29943,826
29951,826
29959,825
29966,827
29974,830
29982,829
29989,836
29997,840
30005,844
30012,849
30033,874
30041,889
30048,903
30056,922
30064,935
30071,939
30079,940
30089,927
30097,909
30104,892
30112,875
30119,858
30127,844
30135,829
30142,821
30150,815
30158,811
30165,810
30173,810
30181,811
30188,812
30196,817
30325,850
30333,845
30341,849
30348,853
30356,856
30364,852
30371,852
30379,849
30386,842
30394,836
30402,831
30409,821
30417,817
30425,814
30432,814
30440,814
30448,814
30455,812
30463,809
30470,809
30478,812
30486,815
30493,794
30501,857
30509,1026
30516,1144
30537,635
30545,655
30553,694
30560,728
30568,749
30576,757
30586,766
30593,764
30601,761
30609,762
30739,884
30747,873
30754,859
30762,843
30770,824
30777,808
30785,787
30793,770
30800,756
30808,749
30815,743
30823,738
30831,737
30838,735
30846,737
30854,737
30861,741
30869,747
30876,753
30884,760
30892,763
30899,764
30907,769
30915,771
30922,772
30930,776
30938,776
30945,777
30953,775
30960,780
30968,777
30976,774
31119,823
31127,825
31134,828
31142,837
31150,829
31157,834
31165,947
31172,1151
31180,1240
31188,1117
31198,737
31205,720
31213,742
31221,776
31228,791
31236,799
31244,816
31251,827
31259,837
31266,841
31274,844
31282,849
31289,853
31297,857
31305,859
31312,864
31320,866
31328,873
31335,878
31343,885
31350,890
31358,904
31366,915
31373,925
31503,814
31511,821
31518,820
31526,820
31534,818
31541,820
31549,818
31557,817
31564,815
31572,813
31580,811
31587,809
31595,811
31603,808
31624,800
31631,795
31639,788
31647,780
31654,771
31662,767
31670,765
31677,767
31685,770
31695,775
31703,767
31710,765
31718,762
31725,759
31733,755
31741,752
31748,748
31756,747
31764,748
31771,748
31779,750
31787,752
31917,777
31924,782
31932,786
31940,789
31947,793
31955,796
31963,800
31970,799
31978,801
31985,806
31993,811
32001,814
32008,820
32016,828
32024,838
32031,849
32039,862
32047,873
32054,879
32062,879
32069,876
32077,869
32085,858
32092,845
32100,829
32108,812
32129,774
32136,769
32144,771
32152,773
32159,780
32167,785
32174,791
32184,800
32192,799
32200,800
32330,863
32338,861
32346,865
32353,868
32361,876
32368,879
32376,878
32384,877
32391,870
32399,867
32407,863
32414,859
32422,848
32430,840
32437,840
32445,836
32452,836
32460,833
32468,828
32475,828
32483,829
32491,834
32498,820
32506,827
32514,943
32521,1144
32529,1220
32536,1089
32544,780
32552,698
32559,722
32703,881
32711,885
32719,886
32726,887
32734,883
32742,875
32749,864
32757,851
32765,833
32772,813
32780,795
32787,776
32797,748
32805,725
32813,712
32820,705
32828,707
32836,707
32843,708
32851,715
32858,722
32866,725
32874,731
32881,737
32889,742
32897,746
32904,751
32912,753
32920,757
32927,760
32935,762
32942,762
32950,763
32958,764
33088,817
33095,817
33103,816
33111,818
33118,818
33126,818
33134,818
33141,821
33149,818
33156,808
33164,899
33172,1098
33179,1221
33187,1119
33208,696
33216,742
33223,779
33231,791
33238,810
33246,824
33254,833
33261,841
33269,848
33277,855
33284,860
33294,864
33302,859
33310,857
33317,861
33325,870
33333,879
33340,890
33348,901
33355,913
33363,929
33371,939
33501,835
33509,836
33516,835
33524,836
33532,838
33539,835
33547,836
33555,834
33562,837
33570,834
33578,830
33585,826
33593,821
33601,817
33608,813
33616,810
33623,807
33631,813
33639,819
33646,824
33654,828
33662,831
33669,829
33677,822
33685,812
33692,809
33713,794
33721,792
33729,788
33736,782
33744,780
33752,776
33759,775
33767,769
33774,770
33784,761
33915,796
33922,800
33930,802
33938,805
33945,809
33953,812
33960,818
33968,822
33976,828
33983,838
33991,851
33999,859
34006,870
34014,876
34022,876
34029,870
34037,858
34044,849
34052,835
34060,817
34067,799
34075,783
34083,768
34090,758
34098,752
34106,745
34113,744
34121,741
34128,744
34136,743
34144,749
34151,757
34295,831
34302,836
34310,842
34318,842
34325,840
34333,841
34341,840
34348,835
34356,833
34364,833
34371,835
34379,838
34387,839
34394,842
34404,839
34412,835
34419,835
34427,824
34435,829
34442,952
34450,1166
34458,1257
34465,1117
34473,780
34480,708
34488,740
34496,772
34503,791
34511,802
34519,814
34526,823
34534,828
34542,831
34549,834
34679,915
34687,901
34694,887
34702,870
34710,852
34717,831
34725,816
34732,804
34740,793
34748,787
34755,780
34763,778
34771,780
34778,779
34799,783
34807,783
34815,780
34822,778
34830,778
34838,776
34845,773
34853,772
34861,767
34868,764
34876,760
34883,756
34893,746
34901,739
34909,738
34916,745
34924,754
34932,760
34939,761
34947,765
34955,766
34962,764
35092,1248
35100,1152
35108,830
35115,692
35123,706
35131,734
35138,749
35146,754
35154,765
35161,778
35169,779
35177,784
35184,788
35192,792
35200,794
35207,793
35215,799
35222,802
35230,806
35238,808
35245,816
35253,822
35261,831
35268,840
35276,852
35284,860
35304,872
35312,869
35320,864
35327,858
35335,850
35343,839
35350,827
35358,814
35366,805
35496,857
35506,856
35513,845
35521,837
35529,832
35536,830
35544,826
35551,822
35559,824
35567,829
35574,834
35582,844
35590,848
35597,848
35605,848
35613,847
35620,844
35628,841
35636,836
35643,828
35651,822
35658,821
35666,819
35674,821
35681,820
35689,819
35697,819
35704,819
35712,826
35720,803
35727,830
35735,975
35742,1189
35886,846
35894,846
35901,847
35909,848
35917,851
35925,859
35932,864
35940,869
35948,873
35955,870
35963,863
35970,853
35978,842
35986,825
35993,809
36003,783
36011,760
36019,744
36026,735
36034,731
36041,723
36049,720
36057,723
36064,732
36072,735
36080,741
36087,745
36095,751
36103,756
36110,756
36118,758
36125,764
36133,766
36141,765
36270,807
36278,810
36286,811
36293,810
36301,810
36309,808
36316,808
36324,812
36332,815
36339,808
36347,803
36355,904
36362,1100
36370,1174
36391,629
36398,679
36406,727
36414,773
36422,789
36429,802
36437,816
36444,830
36452,836
36460,846
36467,850
36475,856
36483,862
36493,867
36500,863
36508,864
36515,871
36523,879
36531,890
36538,900
36546,914
36554,925
36684,826
36692,829
36699,832
36707,832
36715,834
36722,833
36730,834
36738,835
36745,832
36753,828
36760,826
36768,825
36776,822
36783,816
36791,813
36799,811
36806,811
36814,819
36822,824
36829,825
36837,826
36844,825
36852,817
36860,811
36867,805
36875,799
36896,793
36904,789
36912,787
36919,780
36927,776
36934,774
36942,773
36950,773
36957,762
36965,759
37095,786
37103,791
37113,794
37121,788
37129,789
37136,790
37144,799
37151,808
37159,819
37167,829
37174,840
37182,851
37190,858
37197,857
37205,848
37213,840
37220,832
37228,820
37235,805
37243,789
37251,777
37258,765
37266,754
37274,747
37281,746
37289,744
37297,746
37304,746
37312,752
37319,759
37327,763
37335,767
37478,835
37485,830
37493,829
37500,829
37508,826
37516,829
37523,829
37531,834
37539,835
37546,837
37554,840
37562,843
37569,848
37577,854
37585,828
37592,870
37602,1117
37610,1292
37617,1216
37625,913
37633,725
37640,731
37648,763
37656,783
37663,793
37671,806
37678,819
37686,828
37694,833
37701,838
37709,840
37717,843
37724,843
37732,844
37862,864
37869,848
37877,829
37885,815
37892,805
37900,795
37908,789
37915,788
37923,786
37931,789
37938,788
37946,790
37953,793
37961,797
37982,796
37990,790
37997,786
38005,782
38013,780
38021,775
38028,770
38036,768
38043,760
38051,756
38059,749
38066,750
38074,758
38082,770
38089,774
38099,773
38107,762
38114,754
38122,751
38130,752
38137,749
38145,744
38275,697
38283,720
38291,753
38298,758
38306,765
38314,777
38321,783
38329,789
38336,790
38344,794
38352,803
38359,801
38367,804
38375,808
38382,813
38390,819
38398,825
38405,831
38413,843
38420,854
38428,864
38436,876
38443,888
38451,894
38459,894
38466,892
38487,867
38495,859
38503,848
38510,837
38518,827
38525,817
38533,811
38541,812
38548,815
38678,865
38686,872
38694,879
38701,883
38711,878
38719,868
38727,857
38734,849
38742,845
38749,839
38757,833
38765,828
38772,829
38780,833
38788,835
38795,837
38803,836
38811,830
38818,829
38826,833
38833,839
38841,817
38849,874
38856,1041
38864,1193
38872,1165
38879,905
38887,664
38895,698
38902,733
38910,768
38917,785
39061,913
39068,913
39076,903
39084,889
39091,873
39099,855
39106,833
39114,816
39122,796
39129,776
39137,761
39145,749
39152,735
39160,729
39168,728
39175,727
39183,724
39191,725
39200,727
39208,719
39216,721
39223,722
39231,731
39239,734
39246,737
39254,738
39262,740
39269,742
39277,746
39284,751
39292,763
39300,767
39307,770
39315,773
39445,800
39453,898
39460,1087
39468,1148
39475,1067
39483,737
39491,642
39498,688
39506,718
39514,747
39521,760
39529,772
39537,789
39544,800
39565,812
39573,815
39580,826
39588,832
39596,839
39603,854
39611,865
39619,873
39626,884
39634,895
39642,908
39649,925
39657,935
39665,940
39672,941
39680,936
39687,929
39697,917
39705,890
39713,872
39720,858
39728,844
39857,853
39865,855
39873,854
39880,854
39888,858
39896,858
39903,859
39911,857
39919,852
39926,846
39934,840
39941,833
39949,823
39957,815
39964,811
39972,810
39980,807
39987,807
39995,806
40003,804
40010,806
40018,809
40025,809
40033,806
40041,806
40048,900
40069,1117
40077,824
40085,660
40092,680
40100,702
40108,728
40116,736
40123,741
40131,752
40261,864
40268,866
40276,862
40283,855
40291,839
40299,824
40309,804
40316,779
40324,757
40332,742
40339,731
40347,727
40354,729
40362,731
40370,732
40377,735
40385,743
40393,747
40400,750
40408,754
40416,762
40423,766
40431,775
40438,776
40446,777
40454,779
40461,778
40469,777
40477,780
40484,787
40492,793
40500,798
40643,847
40650,996
40658,1187
40666,1214
40673,1040
40681,758
40688,738
40696,765
40704,792
40711,804
40719,815
40727,826
40734,835
40742,841
40750,844
40757,846
40765,850
40773,852
40780,854
40788,857
40798,862
40806,860
40813,860
40821,865
40828,877
40836,893
40844,907
40851,911
40859,918
40867,923
40874,919
40882,914
40890,901
40897,892
41027,838
41034,840
41042,838
41050,837
41057,833
41065,829
41073,820
41080,817
41088,817
41095,815
41103,819
41111,821
41118,825
41126,826
41147,819
41155,806
41162,799
41170,791
41178,785
41185,776
41193,766
41201,765
41208,760
41216,757
41224,758
41231,758
41239,762
41247,750
41254,753
41262,869
41270,1089
41277,1203
41285,1092
41295,695
41302,642
41432,811
41440,818
41447,828
41455,838
41463,847
41470,853
41478,859
41485,859
41493,854
41501,846
41508,835
41516,822
41524,805
41531,791
41539,774
41547,762
41554,751
41562,746
41569,745
41577,747
41585,753
41592,758
41600,764
41608,771
41615,777
41623,773
41631,777
41651,788
41659,794
41667,803
41674,807
41682,816
41690,819
41697,824
41705,827
41835,881
41843,883
41850,882
41858,879
41866,878
41873,874
41881,877
41889,850
41896,903
41906,1144
41914,1278
41921,1186
41929,882
41937,726
41944,739
41952,765
41960,786
41967,794
41975,811
41982,819
41990,825
41998,829
42005,832
42013,834
42021,836
42028,839
42036,843
42044,842
42051,845
42059,848
42066,855
42074,863
42217,789
42225,785
42233,777
42240,775
42248,774
42256,769
42263,769
42271,767
42279,763
42286,760
42294,758
42301,753
42309,748
42317,746
42324,742
42332,743
42340,745
42347,751
42355,755
42363,762
42370,761
42378,762
42386,760
42393,758
42403,754
42411,744
42418,731
42426,728
42434,732
42441,734
42449,735
42457,742
42464,749
42472,755
42602,809
42609,815
42617,818
42625,821
42632,826
42640,828
42648,832
42655,834
42663,835
42670,838
42678,845
42686,851
42693,864
42701,874
42722,899
42730,906
42737,906
42745,897
42752,889
42760,882
42768,872
42775,863
42783,849
42791,834
42798,826
42806,819
42814,814
42821,808
42829,808
42837,812
42844,814
42852,818
42860,823
42867,827
42875,829
42882,831
42892,836
43022,858
43030,851
43038,846
43045,845
43053,841
43061,838
43068,842
43076,836
43084,836
43091,836
43099,837
43107,819
43114,838
43122,963
43129,1143
43137,1184
43145,1047
43152,722
43160,687
43168,714
43175,741
43183,769
43190,777
43198,788
43206,798
43227,810
43235,809
43242,805
43250,805
43257,807
43265,805
43273,805
43280,807
43288,812
43418,749
43426,742
43434,737
43441,736
43449,739
43457,741
43464,745
43472,746
43479,749
43487,752
43495,756
43505,754
43512,749
43520,747
43528,749
43535,755
43543,752
43550,754
43558,754
43566,760
43573,761
43581,770
43589,776
43596,782
43604,788
43612,796
43619,794
43627,791
43634,791
43642,787
43650,782
43657,783
43665,785
43809,796
43816,811
43824,821
43832,831
43839,840
43847,844
43855,849
43862,854
43870,856
43878,861
43885,868
43893,874
43901,881
43908,889
43916,900
43923,912
43931,925
43939,930
43946,934
43954,937
43962,935
43969,927
43977,914
43985,898
43992,882
44002,864
44010,839
44017,814
44025,804
44033,804
44040,802
44048,799
44056,799
44063,805
44193,844
44201,850
44208,852
44216,853
44224,851
44231,849
44239,846
44246,836
44254,830
44262,824
44269,817
44277,812
44285,809
44292,808
44313,808
44321,806
44329,801
44336,795
44344,770
44352,843
44359,1029
44367,1193
44375,1134
44382,847
44390,661
44397,665
44405,691
44413,708
44420,715
44428,726
44436,733
44443,739
44451,743
44459,747
44466,753
44596,847
44604,836
44614,813
44621,787
44629,768
44637,758
44644,752
44652,751
44659,746
44667,748
44675,745
44682,750
44690,756
44698,758
44705,762
44713,768
44721,775
44728,777
44736,781
44743,782
44751,788
44759,791
44766,783
44774,778
44782,783
44789,785
44797,783
44818,789
44825,802
44833,811
44841,822
44848,827
44856,829
44864,832
44871,833
44879,828
45009,796
45016,787
45024,804
45032,810
45039,815
45047,825
45055,830
45062,834
45070,833
45077,837
45085,838
45093,837
45100,840
45110,842
45118,830
45126,829
45133,834
45141,839
45148,847
45156,859
45164,872
45171,883
45179,892
45187,898
45194,897
45202,892
45210,883
45217,872
45225,858
45232,839
45240,822
45248,810
45255,796
45399,822
45407,816
45414,807
45422,800
45430,789
45438,784
45445,782
45453,787
45460,791
45468,789
45476,785
45483,783
45491,780
45499,775
45506,771
45514,767
45522,759
45529,752
45537,751
45544,755
45552,757
45560,757
45567,754
45575,757
45583,765
45590,762
45629,830
45637,451
45644,344
45652,376
45660,427
45667,463
45675,502
45682,543
45690,578
45698,609
45705,640
45713,667
45721,694
45728,717
45736,740
45744,763
45874,922
45882,910
45903,887
45910,883
45918,885
45925,888
45933,894
45941,900
45949,904
45956,911
45964,912
45971,916
45979,919
45987,921
45994,920
46002,919
46010,916
46017,911
46025,914
46032,912
46040,920
46048,926
46055,927
46063,927
46071,928
46078,923
46086,918
46094,913
46101,906
46109,899
46116,894
46126,888
46134,874
46142,872
46149,873
46157,873
46286,873
46294,876
46302,877
46309,879
46317,876
46325,875
46332,871
46340,875
46348,876
46355,877
46363,882
46371,884
46378,889
46386,895
46407,911
46415,905
46422,893
46430,878
46438,857
46445,838
46453,821
46461,799
46468,778
46476,759
46484,744
46491,736
46499,727
46506,722
46514,715
46522,714
46529,718
46537,720
46545,721
46552,722
46560,728
46568,731
46698,765
46706,766
46713,763
46721,763
46729,762
46739,761
46746,752
46754,749
46761,753
46769,751
46777,742
46784,827
46792,1006
46800,1101
46807,1049
46815,754
46822,656
46830,681
46838,708
46845,731
46853,739
46861,754
46868,764
46876,770
46884,775
46891,783
46912,795
46920,803
46928,813
46935,821
46943,831
46951,841
46958,853
46966,867
46973,883
47103,827
47111,828
47118,829
47126,831
47134,830
47141,832
47149,834
47157,834
47164,835
47172,835
47180,834
47187,831
47195,826
47202,818
47210,817
47218,814
47225,818
47235,821
47243,816
47251,813
47258,816
47266,815
47273,812
47281,806
47289,806
47296,801
47304,797
47312,799
47319,802
47327,804
47335,805
47342,806
47350,807
47494,820
47501,816
47509,813
47517,810
47524,808
47532,803
47540,803
47547,804
47555,806
47563,812
47570,818
47578,825
47586,831
47593,831
47601,830
47609,825
47616,814
47624,802
47631,792
47639,783
47647,770
47654,755
47662,742
47670,731
47677,726
47685,723
47693,723
47700,723
47708,726
47715,731
47725,739
47733,735
47741,735
47748,738
47878,820
47886,817
47893,814
47901,807
47909,808
47916,809
47924,807
47931,804
47939,804
47947,804
47954,806
47962,812
47970,804
47977,798
47998,1228
48006,1197
48014,905
48021,737
48029,745
48037,771
48044,787
48052,794
48060,806
48067,817
48075,828
48082,834
48090,836
48098,839
48105,844
48113,847
48121,850
48128,856
48136,861
48144,866
48151,871
48281,826
48289,824
48296,822
48304,819
48312,820
48319,821
48327,823
48335,822
48345,823
48352,814
48360,807
48367,805
48375,806
48383,804
48390,805
48398,805
48406,806
48413,799
48421,799
48429,797
48436,806
48444,812
48451,814
48459,816
48467,819
48474,820
48482,814
48503,804
48511,795
48518,788
48526,788
48534,782
48541,776
48549,774
48557,771
48564,771
48572,777
48702,776
48710,779
48717,781
48725,785
48733,782
48740,782
48748,787
48756,793
48763,802
48771,809
48778,816
48786,825
48794,834
48801,837
48809,837
48817,833
48824,831
48834,814
48842,795
48850,779
48857,771
48865,761
48872,754
48880,751
48888,748
48895,745
48903,748
48911,754
48918,758
48926,764
48934,768
48941,775
49084,850
49092,849
49099,848
49107,846
49115,846
49122,846
49130,850
49138,854
49145,854
49153,856
49161,859
49168,860
49176,866
49184,841
49191,897
49199,1073
49206,1261
49214,1251
49222,1011
49229,771
49237,770
49245,797
49252,816
49260,817
49268,829
49275,842
49283,847
49290,852
49298,855
49306,855
49313,853
49323,860
49331,851
49461,871
49469,856
49476,842
49484,829
49491,821
49499,817
49507,811
49514,808
49522,809
49530,811
49537,812
49545,816
49553,816
49560,817
49568,815
49589,809
49597,802
49604,792
49612,785
49620,781
49627,780
49635,784
49643,782
49650,780
49658,781
49666,782
49673,778
49681,768
49689,765
49696,757
49704,750
49711,747
49719,747
49727,748
49734,748
49742,751
49872,800
49880,810
49888,812
49895,814
49903,820
49911,823
49918,829
49926,831
49933,832
49943,836
49951,837
49959,839
49966,843
49974,853
49982,864
49989,872
49997,879
50004,881
50012,875
50020,864
50027,854
50035,849
50043,840
50050,827
50058,811
50066,796
50073,786
50094,775
50102,777
50109,784
50117,790
50125,796
50132,805
50140,811
50148,817
50155,826
50285,853
50293,848
50300,845
50308,845
50315,845
50323,844
50331,844
50338,841
50346,844
50354,815
50361,855
50369,1001
50377,1135
50384,1136
50392,943
50399,697
50407,717
50415,741
50422,765
50432,785
50440,791
50448,794
50455,801
50463,808
50471,809
50478,810
50486,815
50493,822
50501,827
50509,831
50516,838
50524,845
50667,785
50675,779
50683,769
50690,764
50698,760
50705,759
50713,757
50721,757
50728,758
50736,754
50744,753
50751,753
50759,751
50767,745
50774,744
50782,744
50790,748
50797,751
50805,753
50812,755
50820,761
50828,764
50835,760
50843,754
50851,752
50858,750
50866,745
50874,744
50881,743
50889,746
50896,751
50904,753
50912,753
50919,756
51052,808
51059,813
51067,815
51074,821
51082,823
51090,824
51097,830
51105,836
51113,842
51120,850
51128,862
51136,868
51143,877
51151,884
51172,879
51179,874
51187,863
51195,856
51202,846
51210,836
51218,825
51225,815
51233,807
51241,803
51248,802
51256,806
51263,807
51271,808
51279,815
51286,824
51294,829
51302,831
51309,836
51317,838
51324,843
51332,845
51462,847
51470,846
51477,847
51485,846
51492,845
51500,842
51508,840
51515,839
51523,814
51531,863
51540,1089
51548,1224
51556,1154
51563,851
51571,731
51579,735
51586,750
51594,756
51602,760
51609,773
51617,782
51624,787
51632,788
51640,792
51647,797
51655,796
51676,804
51684,806
51691,808
51699,809
51707,813
51714,818
51722,821
51730,826
51737,833
51867,755
51875,761
51882,763
51890,764
51898,765
51905,766
51913,766
51921,765
51928,766
51936,767
51944,763
51951,757
51959,758
51966,762
51974,768
51982,778
51989,783
51997,788
52005,793
52012,794
52020,789
52030,785
52038,775
52045,768
52053,765
52060,768
52068,768
52076,772
52083,774
52091,777
52099,782
52106,790
52114,790
52258,829
52265,832
52273,838
52280,847
52288,853
52296,864
52303,874
52311,885
52319,895
52326,905
52334,911
52342,919
52349,918
52357,916
52365,906
52372,898
52380,889
52388,875
52395,862
52403,847
52410,836
52418,825
52426,819
52433,816
52441,816
52449,816
52456,811
52464,801
52472,807
52479,821
52487,829
52494,840
52502,840
52510,839
52640,864
52650,859
52657,846
52665,834
52673,825
52680,822
52688,823
52696,820
52703,819
52711,821
52718,822
52726,828
52734,815
52741,848
52763,1152
52770,1040
52778,733
52786,687
52793,726
52801,752
52808,768
52816,766
52824,772
52831,776
52839,781
52847,778
52854,778
52862,781
52870,785
52877,788
52885,784
52893,788
52900,788
52908,792
52915,801
53045,776
53053,776
53060,771
53068,764
53076,769
53083,772
53091,776
53098,776
53106,776
53114,778
53121,776
53129,774
53139,773
53147,763
53154,757
53162,757
53169,761
53177,766
53185,774
53192,780
53200,785
53208,791
53215,795
53223,796
53231,794
53238,790
53246,784
53267,787
53274,791
53282,796
53290,803
53297,811
53305,817
53313,827
53320,821
53328,892
53336,1030
53466,891
53473,892
53481,895
53489,900
53496,903
53504,903
53512,911
53519,916
53527,926
53534,931
53542,934
53550,929
53557,919
53565,910
53573,897
53580,882
53588,869
53596,860
53603,847
53611,829
53618,820
53626,810
53636,800
53644,790
53651,783
53659,785
53667,782
53674,785
53682,796
53689,799
53697,802
53705,807
53848,825
53856,819
53864,811
53871,804
53879,799
53887,799
53894,793
53902,794
53909,871
53917,1001
53925,1042
53932,998
53940,715
53948,650
53955,685
53963,709
53971,729
53978,738
53986,747
53993,755
54001,760
54009,764
54016,768
54024,770
54032,772
54039,774
54047,778
54055,781
54062,788
54070,796
54077,807
54085,816
54093,828
54223,776
54231,779
54238,778
54248,779
54256,778
54264,773
54271,772
54279,774
54287,781
54294,784
54302,789
54309,795
54317,794
54325,794
54332,790
54353,800
54361,808
54369,815
54376,818
54384,825
54392,829
54399,830
54407,829
54414,831
54422,828
54430,822
54437,822
54445,825
54453,826
54460,835
54468,832
54476,835
54483,837
54491,816
54499,882
54506,1070
54637,863
54644,870
54652,871
54660,871
54667,876
54675,882
54683,886
54690,890
54698,897
54706,903
54713,907
54721,903
54728,893
54736,879
54746,863
54754,840
54761,823
54769,804
54777,795
54784,785
54792,776
54799,773
54807,773
54815,775
54822,777
54830,780
54838,783
54859,790
54867,787
54874,788
54882,785
54890,782
54897,780
54905,776
54912,775
54920,770
54928,767
55058,780
55065,780
55073,781
55080,785
55088,777
55096,769
55103,856
55111,1045
55119,1180
55126,1123
55134,812
55142,696
55149,702
55157,717
55164,726
55172,735
55180,748
55187,758
55195,762
55203,767
55210,772
55218,774
55225,778
55235,781
55243,775
55251,776
55258,783
55266,789
55274,798
55281,809
55289,819
55432,807
55440,813
55448,822
55455,829
55463,836
55471,837
55478,842
55486,845
55494,849
55501,851
55509,850
55517,851
55524,852
55532,856
55539,852
55547,844
55555,838
55562,840
55570,843
55578,852
55585,856
55593,863
55601,863
55608,862
55616,859
55623,852
55631,848
55639,843
55646,838
55654,835
55662,837
55669,837
55677,836
55685,837
55814,821
55822,823
55830,827
55837,826
55847,825
55855,816
55863,811
55870,810
55878,814
55886,820
55893,831
55901,839
55908,849
55916,860
55937,874
55945,870
55953,860
55960,850
55968,834
55976,815
55983,797
55991,781
55999,765
56006,751
56014,743
56021,736
56029,733
56037,732
56044,732
56052,735
56060,739
56067,739
56075,742
56083,743
56090,745
56098,748
56228,812
56236,814
56243,809
56251,805
56259,800
56266,791
56274,787
56282,787
56289,786
56297,787
56304,787
56312,790
56320,795
56327,787
56335,785
56345,950
56353,1166
56360,1204
56368,1020
56375,725
56383,697
56391,726
56398,744
56406,750
56413,764
56421,775
56442,800
56450,809
56458,817
56465,825
56473,832
56480,838
56488,845
56496,851
56503,855
56633,855
56641,848
56648,843
56656,838
56664,837
56672,836
56679,839
56687,842
56694,844
56702,840
56710,843
56717,843
56725,846
56733,844
56740,839
56748,837
56756,833
56763,829
56771,822
56778,821
56786,821
56794,830
56801,838
56809,840
56817,844
56824,847
56834,844
56842,832
56849,824
56857,816
56865,810
56872,809
56880,810
57024,822
57031,823
57039,821
57047,821
57054,816
57062,813
57070,813
57078,812
57085,805
57093,805
57100,808
57108,815
57116,818
57123,823
57131,833
57139,839
57146,848
57154,852
57162,854
57169,847
57177,839
57184,827
57192,814
57200,804
57207,789
57215,775
57223,761
57230,754
57238,747
57246,744
57253,738
57261,741
57268,745
57276,746
57406,829
57414,833
57421,831
57429,829
57436,821
57444,816
57454,808
57462,797
57469,789
57477,788
57485,792
57492,795
57500,799
57507,805
57528,952
57536,1113
57544,1145
57552,974
57559,702
57567,723
57574,759
57582,790
57590,804
57597,816
57605,828
57613,842
57620,848
57628,854
57635,858
57643,861
57651,866
57658,870
57666,875
57674,879
57681,882
57811,844
57819,835
57826,827
57834,822
57842,815
57849,813
57857,813
57865,814
57872,815
57880,816
57888,817
57895,818
57903,819
57910,821
57918,820
57926,813
57933,809
57943,812
57951,806
57959,803
57966,806
57974,808
57981,814
57989,814
57997,811
58004,806
58012,805
58033,796
58041,793
58049,791
58056,790
58064,787
58071,782
58079,786
58087,772
58094,770
58102,864
58232,799
58240,801
58247,805
58255,808
58263,812
58270,817
58278,827
58286,834
58293,845
58301,854
58308,860
58316,861
58324,859
58331,852
58339,839
58347,830
58354,820
58362,808
58369,794
58377,780
58385,767
58392,759
58400,756
58408,755
58415,754
58423,755
58431,760
58441,765
58448,760
58456,759
58463,764
58471,769
58614,830
58622,828
58629,834
58637,839
58645,841
58652,851
58660,842
58668,853
58675,955
58683,1128
58691,1215
58698,1127
58706,823
58714,766
58721,787
58729,809
58736,816
58744,821
58752,830
58759,835
58767,840
58775,844
58782,849
58790,849
58798,853
58805,856
58813,857
58820,860
58828,865
58836,871
58843,876
58851,880
58859,888
58989,805
58996,809
59004,811
59012,811
59019,813
59027,814
59035,813
59042,813
59052,813
59060,799
59068,797
59075,790
59083,788
59090,794
59098,796
59119,804
59127,804
59134,804
59142,798
59150,791
59158,783
59165,777
59173,768
59180,762
59188,757
59196,757
59203,753
59211,753
59219,751
59226,751
59234,755
59242,727
59249,774
59257,923
59264,1105
59272,1124
59402,790
59410,797
59418,803
59425,809
59433,819
59441,826
59448,835
59456,842
59464,847
59471,846
59479,840
59486,832
59494,821
59502,811
59509,800
59517,786
59525,771
59532,762
59542,749
59550,736
59557,728
59565,727
59573,732
59580,739
59588,746
59596,755
59603,760
59624,779
59632,787
59639,794
59647,800
59655,803
59663,805
59670,812
59678,818
59685,828
59815,871
59823,846
59830,909
59838,1087
59845,1263
59853,1233
59861,966
59868,779
59876,779
59884,795
59891,799
59899,802
59907,808
59914,814
59922,817
59929,819
59937,820
59945,823
59952,827
59960,829
59968,832
59975,834
59983,836
59991,839
59998,847
60006,852
