11241
10483
15857
19253
23918
14462
5604
8604
9323
11929
11130
13851
11867
14618
12010
14904
12251
15052
12665
15110
13155
15091
13966
15130
14928
15132
16044
15094
16838
14748
17040
14146
16747
13275
15527
11901
13951
10968
13021
10773
12463
11088
12094
11677
11732
12317
11394
12897
11100
13421
11009
13774
10939
13767
10985
13685
11125
13464
11388
13191
11824
12747
12305
12197
12805
11709
13210
11109
13660
11536
14603
11809
14763
11811
14182
11526
14101
11237
14134
11092
13005
9936
15784
18516
24133
17080
7252
8351
10267
11812
11758
13715
12197
14533
12122
15101
12270
15453
12496
15594
12950
15734
13625
15876
14557
15880
15598
15795
16461
15283
16820
14526
16777
13524
15748
12052
14393
10987
13538
10783
13152
10951
12818
11386
12611
12054
12281
12579
11766
13092
11374
13600
11140
13866
10991
13956
11047
13916
11220
13777
11556
13475
11897
12952
12338
12535
12782
11793
11888
13667
12951
13452
13517
12758
13794
12048
13954
11435
14116
11319
13581
9636
14828
17212
24200
20341
9088
7338
10748
11217
12371
13137
12862
14128
12544
14804
12416
15331
12510
15790
12732
16027
13269
16317
14002
16525
14937
16542
15793
16193
16283
15246
16385
14067
15720
12358
14512
11031
13782
10650
13581
10700
13421
10993
13231
11526
12914
12027
12476
12635
12033
13190
11482
13542
11181
13908
10996
13985
11001
14026
11140
13760
10986
14020
11089
14117
11212
13981
11257
13675
12065
13982
12872
13450
13328
12928
13646
12077
13810
11527
14140
11010
12730
10756
18460
20155
24195
11053
8042
8584
11811
11808
13117
13313
13027
14068
12794
14834
12625
15395
12568
15841
12844
16158
13391
16545
14194
16833
15163
16893
15825
16360
16172
15352
16018
13901
15125
12042
14041
10953
13595
10549
13504
10589
13419
11017
13354
11461
13085
11991
12696
12490
12153
12949
11604
11875
12781
12317
12257
12800
11792
13337
11336
13657
11069
14016
11072
13882
11009
14258
11903
14553
12311
14096
12681
13412
12772
12502
13035
11937
13335
10292
13099
14740
22650
21924
14639
5185
10594
9177
12784
11558
14031
12829
13844
13517
13439
14173
13107
14897
13037
15570
13058
16151
13453
16798
14115
17378
14884
17427
15234
16785
15184
15632
14602
13622
13474
11477
12397
10321
12441
9944
12659
9858
12848
10131
12989
10482
13217
10487
13490
10699
13588
10872
13448
11230
13175
11602
12714
12021
12240
12542
11692
12992
11134
13390
11302
14441
11691
14727
11636
14604
11666
14073
11655
13540
11984
12978
11471
11765
15736
19701
24151
13681
7889
8152
12146
10276
14079
11743
14979
12304
15035
12808
14911
13506
14616
14211
14426
15042
14171
16125
14277
17176
14615
18014
14907
18201
14779
17730
14515
16567
13462
14607
12556
13198
12414
12528
12910
12040
13477
11735
12643
13124
13239
12725
13908
12349
14475
12080
14864
12033
15152
12095
15148
12250
15067
12628
14756
13083
14487
13589
13991
14020
13295
14628
13411
15813
13436
16310
13254
16387
13169
16128
13186
16032
13472
15560
12545
14298
17642
22950
24335
17161
10842
11567
15227
13551
16932
14033
17461
14224
17743
14637
17759
15232
17695
15929
17473
16792
17281
17834
17149
19088
17308
20204
17214
20683
17029
20597
16599
19659
15567
18108
14781
17402
13747
17427
13965
17363
14409
17234
14907
16814
15496
16285
16101
15539
16694
14951
17287
14489
17782
14235
17977
14235
18024
14371
17860
14708
17649
15146
17044
15617
16371
16029
15631
17199
15572
18012
14935
18423
14628
18472
14234
18182
14299
18069
14323
16203
14487
21123
23672
24324
17156
10045
13865
14378
17481
14303
18051
14293
18505
14283
18620
14551
18558
15045
18434
15695
18052
16612
17715
17758
17485
18956
17050
19825
18776
17911
17549
17844
15565
17171
13657
16583
12575
16529
12292
16643
12246
16412
12528
16263
12971
15654
13377
14932
13948
14062
14611
13212
15163
12427
15700
11947
15937
11649
16031
11683
15883
11744
15398
12090
14864
12375
14041
13328
13775
14366
12911
14932
11959
15161
11214
15133
10750
15256
10376
13616
10737
19073
19518
23957
8894
6401
8625
10316
11975
11523
13992
11264
14776
10992
15296
10826
15610
11096
15720
11674
15807
12444
16758
12283
17338
12983
17388
13508
16786
13774
15614
13663
13483
12798
11041
12060
9317
12063
8434
12394
8143
12609
8257
12796
8553
12650
9065
12299
9699
11648
10293
10874
10886
9999
11644
9280
12211
8789
12631
8500
12898
8485
12845
8585
12500
9280
12713
10424
12443
11076
11380
11654
10244
11918
9275
12551
8749
12021
7688
15794
15886
24242
10732
5970
5571
10047
8623
11231
10937
11558
12110
11047
13253
10684
14115
10547
14833
10623
13992
11886
15278
12023
16486
12323
17254
12492
17144
12581
16549
12266
14841
11371
12626
10544
10775
10508
9670
11105
8979
11835
8517
12411
8510
12887
8744
13115
9023
12990
9460
12540
9933
11955
10620
11235
11314
10401
12004
9804
12834
9330
13254
9013
13367
9338
14170
10151
14118
10536
13621
10913
12635
11197
11635
11860
10754
11640
8621
14931
16602
24297
13892
7846
5740
11742
8857
13350
10478
13806
11434
13416
12327
12877
13371
14795
12069
14523
13111
14102
14348
13788
15758
13621
17019
13350
17575
12845
17471
12322
16473
11241
14620
10352
13143
10207
12293
10758
11564
11529
10819
12331
10313
13152
9917
13832
9706
14090
9748
14119
9914
13898
10312
13552
10801
12833
11423
12118
12176
11336
12945
10627
13491
10001
14097
10338
15004
10637
15011
10763
14714
10904
13872
11104
13177
11778
11833
10795
11678
18156
20285
23178
6466
8587
7221
13096
9836
14838
10961
15096
11056
15694
11292
15882
11595
15964
12217
15918
13074
15726
14216
15472
15564
15172
16739
14430
17356
13644
17511
12545
16477
11213
15034
10272
13983
10178
13486
10591
12840
11290
12303
12114
11675
12947
11041
13685
10496
14276
10284
14545
10192
14478
10352
14308
10719
13783
11226
13268
11743
12602
12153
12259
12772
11661
13000
11553
14245
11667
14381
11526
14298
11335
13948
11241
13686
11384
13078
10296
12712
16502
21396
22426
8479
6435
10264
10421
12193
12687
12982
13594
12760
14279
12646
14793
12781
15339
12894
15729
13299
16099
13889
16516
14848
16678
15663
16259
16040
15344
16166
14227
15400
12591
14040
11118
13117
10777
13048
10770
13023
10975
12963
11198
12809
11623
12640
12103
12306
12574
11913
12621
11816
12661
11889
12524
11424
13117
11224
13354
11333
13490
11596
13167
11740
13046
12861
13119
13707
12541
14088
12124
14180
11668
14163
11514
14242
11002
13033
14626
21876
21762
14944
5368
10763
9674
13124
11941
14268
13116
14009
13828
13538
14563
13195
15304
12977
15973
13126
16584
13505
17160
14200
17598
14938
17523
15386
16947
15527
15641
15118
13757
14242
11995
13644
11104
13725
10851
13882
10789
14001
11116
14027
11367
13861
11806
13436
12194
12876
12738
12283
13199
11803
13667
11357
14007
11116
14210
11048
14265
11208
14169
11310
13726
11951
14002
12899
13507
13425
12802
13817
13834
12181
13101
12628
12167
11553
11417
17548
20019
24043
9635
7996
7825
12495
10648
14346
11892
14701
12476
14535
13132
14146
13785
13722
14557
13414
15500
13346
16412
13629
17274
14119
17877
14441
17667
14526
17080
14347
15606
13432
13605
12622
11993
12525
11236
12977
10815
13429
10602
13778
10655
13963
10889
13975
11138
13773
11486
13382
11885
12860
12378
12251
12883
11627
13336
11246
13821
11045
14104
10899
13970
10830
14245
11731
14889
11680
14895
11518
14584
11420
14052
11508
13708
11731
11785
11555
16156
21114
22892
13936
5147
10109
9223
13475
11143
14834
11733
15102
12134
15125
12664
14965
13270
14653
14048
14390
14992
14166
16137
14258
17188
14411
17895
14371
17782
14090
17175
13358
15486
12192
13710
11563
12595
11729
11960
12312
11436
12945
11016
13362
10815
13846
10770
14046
10837
14014
10985
13884
11284
13409
11676
12983
12227
12331
12720
11769
13297
13118
12073
12534
12670
11936
13195
11191
13865
11341
14902
11469
15194
11396
14990
11365
14446
11375
13902
11898
13013
10868
12743
17709
21363
23180
8254
7827
7995
12062
10553
14278
11777
14918
12183
14955
12554
14911
13046
14797
13711
14477
14336
14409
14460
15262
15164
15328
15958
15211
16243
14900
16152
14227
15284
12769
13834
11544
12686
10838
12140
10770
11889
11009
11677
11454
11587
11970
11632
12393
11444
12652
11352
12850
11255
12333
11543
12607
11448
12899
11414
13042
11395
13023
11448
12883
11435
12676
11836
13080
12825
13193
13248
12858
13441
12394
13372
12006
13434
11951
13117
10540
14579
17107
22993
21166
7690
7808
9688
12413
11754
14650
12671
15300
12739
15561
13029
15576
13257
15649
13728
15639
14442
15630
15363
15692
16105
15860
16689
15997
16527
15431
16402
14685
15185
13034
14006
11862
13212
11363
12956
11243
12808
11448
12722
11782
12591
12260
12445
11808
13134
12037
12931
12354
12707
12700
12414
12996
12209
13225
12015
13448
11821
13724
11926
13737
11897
13372
12556
13741
13387
13412
13859
12952
14179
12322
14201
11937
14258
11882
13388
10589
15697
18611
24255
17999
7254
8008
10668
11834
12500
13795
12929
14563
12841
15048
12914
15407
12998
15636
13332
15858
13860
15941
14687
16101
15651
16212
16300
15871
16516
15288
16342
14184
15331
12570
14071
11458
13396
11152
13183
11197
13134
11075
13318
11311
13384
11393
13305
11660
13151
11911
12779
12287
12271
12771
11825
13474
11393
13752
11162
13948
11196
14016
11265
13824
11567
13582
11737
13165
12585
13367
13493
12874
13841
12356
14103
11735
14054
11328
14230
11006
12790
10451
17357
19653
24281
13152
6942
8583
10788
12261
12235
13918
12255
14723
12059
15353
12119
15725
12275
15870
12727
16005
13478
15976
14465
16045
15730
15791
16633
15101
17108
14285
17170
14555
14211
12465
13418
10961
13358
10392
13653
10201
13878
10379
13972
10652
13946
11092
13665
11515
13064
12072
12458
12684
11681
13273
10997
13799
10658
14202
10478
14382
10525
14330
10762
14122
11008
13514
11694
13693
12835
13126
13483
12320
13969
11423
14184
10857
14458
10632
13917
9398
15688
16863
24185
18110
7568
6678
10401
10711
12028
13225
12486
14374
12042
15155
11893
15753
11917
16133
12222
16420
12746
16600
13775
16669
14841
18282
14267
18093
14470
17284
14441
15704
13724
13482
13026
11705
12853
10678
13302
10226
13787
10007
14129
10147
14288
10522
14192
10931
13832
11407
13269
11973
12648
12604
11814
13211
11213
13769
10840
14274
10520
14502
10581
14382
10570
14406
11598
14652
12247
13986
12699
13162
13034
12128
13405
11425
14006
10136
13095
12408
21402
21252
20164
4921
10081
8799
12845
11294
13928
12879
13618
13813
13069
14636
12601
15468
12290
16160
14020
15428
13786
16650
13778
17765
13997
18344
13921
18203
13797
17316
13186
15503
12206
13596
11684
12439
11955
11790
12514
11180
13057
10931
13563
10914
13699
11148
13507
11156
13442
11373
13230
11449
13157
11444
12808
11651
12591
11998
12253
12403
11861
12852
11416
13117
11656
14087
12095
14376
12164
14286
12041
13795
12025
13271
12247
12791
11778
10801
14853
18695
24262
16279
7972
7470
11837
10469
13916
11826
14673
12426
14602
13070
15429
12579
15514
13001
15539
13793
15437
14654
15421
15829
15306
16875
15014
17419
14464
17500
13755
16589
12483
15070
11328
13876
11038
13230
11248
12769
11830
12362
12505
11791
13207
11331
13719
11034
14143
10870
14308
10923
14245
11046
14081
11342
13640
11730
13211
12237
12603
12767
11850
13178
11494
14306
11728
14966
11514
15045
11464
14723
11202
14178
11442
13854
11293
11674
12724
18365
23161
20525
9644
6549
11176
9829
13940
12683
13989
12233
14718
12117
15395
12079
15775
12294
16124
12726
16315
13559
16549
14566
16696
15619
16204
16257
15465
16682
14280
16307
12552
15168
10967
14111
10305
13776
10288
13601
10592
13409
11116
13001
11755
12404
12472
11791
13179
11243
13746
10759
14190
10542
14295
10491
14366
10790
14190
10993
13697
11384
13026
11849
12811
13136
12544
13943
11888
14446
11293
14513
10662
14403
10698
14395
9968
13092
13432
21297
22418
16460
5849
11128
8964
13088
11505
14132
12756
13678
13580
13146
14396
12744
15167
12545
15837
12664
16560
13089
17135
13845
17650
14587
17547
15013
16860
15224
15572
14655
13415
13694
11502
13306
10456
13410
10134
13665
10105
13827
10406
13795
10754
13670
11299
13319
11886
12773
12443
12118
13079
11422
13669
10874
14165
10605
14333
10447
14283
10536
14292
11377
14624
12167
14135
12583
13309
12937
12254
13303
11447
13929
10739
13040
10881
19066
22030
20033
5000
9234
8243
13054
10376
15054
11450
15340
12006
15318
12550
14976
13303
14621
14190
14169
15259
13948
16383
13937
17482
14126
18153
14190
18151
13983
17484
13439
15835
12380
13907
11696
12604
11849
11779
12507
11212
13171
10783
13798
10557
14183
10615
14379
10729
14257
10976
14056
11350
13570
11810
12963
12377
12325
13002
11672
13511
11161
14015
10649
14090
10680
14839
11426
15113
11729
14749
12034
14062
12176
13114
12500
14287
10614
12259
13082
20014
23532
18967
7963
7883
11166
10411
13746
11329
14998
11517
15462
11744
15565
12209
15574
12741
15410
13535
15182
14445
15037
15692
14883
16866
14675
17543
14197
17644
13629
17023
12563
15419
11317
13976
10838
13170
11076
12639
11650
12158
12399
11660
13101
11201
13678
10805
14090
10674
14307
10689
14267
10891
14087
11192
13687
11562
13143
12093
12481
12725
11801
13202
11126
13962
11358
14984
11408
15154
12091
14265
11299
14336
10856
14505
10815
13434
10015
17065
18697
24290
14929
7104
8153
10802
11974
12256
13840
12220
14713
12059
15400
11971
15868
12152
16067
12585
16283
13275
16335
14216
16373
15374
16223
16329
15587
16868
14676
16926
13324
15947
11608
14661
10529
13958
10281
13653
10599
13390
11111
13007
11731
12561
12448
11929
13087
11389
13715
10928
14163
10653
14335
10574
14326
10747
14150
11043
13850
11471
13312
12003
12681
12480
13965
11686
14138
12642
13649
13232
12902
13570
11839
13806
11224
14252
10654
13266
10249
18212
18980
24289
11288
7259
7728
11323
11080
13012
13143
13041
14016
12684
14781
12313
15402
12293
16082
12407
16420
12895
16887
13729
17158
14779
17178
15650
16507
16147
15511
16126
13814
15332
11835
14308
10399
13801
10028
13803
10199
13813
10596
13600
11077
13199
11593
12714
12243
12190
12841
11506
13351
10986
13847
10692
14145
10594
14223
11097
13736
10813
14130
10570
14111
10726
14677
11555
14820
11961
14375
12250
13455
12467
12620
12954
12028
13047
9967
14315
16340
24158
19321
10253
6046
11907
9565
13568
11502
14490
12674
14187
13402
13713
14181
13318
15040
12978
15892
12907
16597
13196
17314
13958
17922
14572
17814
14898
17203
14906
15841
14285
13708
13301
11867
13086
10939
13370
10443
13623
10315
13940
10472
13978
10768
13880
11203
13691
11675
13198
12182
12622
12733
13765
11608
13335
12092
12727
12577
12063
13145
11516
13661
10952
13820
11046
14818
11552
15023
11660
14801
11846
14224
11772
13435
12211
12894
11991
10739
14471
18039
24227
17782
9018
7009
11972
9794
14009
11404
14860
12078
14748
12586
14543
13363
14145
14143
13793
15010
13492
16003
13603
16950
13912
17812
14342
18008
14360
17491
14172
16429
13453
14386
12473
12647
12121
11611
12517
11000
13103
10627
13614
10554
13976
10580
14090
11076
13690
10783
14090
10718
14180
10801
14120
10999
13901
11267
13442
11670
12943
12185
12366
12802
11601
13185
11291
14308
11542
14986
11472
14999
11391
14657
11276
14112
11485
13730
11346
11540
12731
18068
23121
20507
9777
6393
11140
9649
13828
11117
15009
11658
15119
12069
15126
12662
15064
13305
14685
14137
14344
15112
14243
16367
14257
17465
14330
17939
14187
17868
13907
17015
13012
15244
11883
13532
11392
12482
11654
11904
12288
13251
11204
12841
11762
12398
12452
11890
13104
11353
13568
10852
13988
10741
14186
10757
14263
10918
14015
11186
13679
11550
13170
11947
12394
12595
12389
13838
12189
14530
11656
14723
11137
14525
10842
14356
11048
13800
9776
13874
16564
23122
22129
9180
6940
8942
11401
10839
13918
11652
14994
11720
15454
11902
15603
12265
15602
12826
15585
13629
15413
14655
15400
15842
15251
16908
14844
17478
14342
17455
13431
16486
12034
14817
10876
13495
10221
13574
10116
13678
10265
13646
10663
13491
11189
13165
11704
12644
12273
12094
12924
11538
13471
11023
13901
10727
14077
10653
14222
10726
13956
10937
13739
11565
13811
12521
13517
13110
12687
13560
11869
13809
11175
14142
10939
13808
9571
15593
16898
24199
18160
7966
6767
10888
10536
12422
12853
12932
14007
12557
14791
12266
15421
12257
15932
12437
16252
12927
16610
13688
16839
14720
16913
15663
16397
16175
15481
16331
15861
13412
13735
12510
12080
12439
11200
12928
10748
13404
10450
13763
10449
14032
10764
14143
10980
13887
11300
13522
11726
12967
12255
12377
12828
11731
13326
11214
13832
10951
14151
10738
14117
10960
14634
11678
14729
12081
14264
12478
13537
12603
12575
12948
11974
13216
9975
13558
15203
23496
21254
12778
5652
11471
9594
13543
11633
14346
12655
13982
13358
13519
14205
13105
14986
12820
15804
12815
16576
13142
17181
13813
17776
14565
17980
14259
17909
13827
17032
12825
15235
11746
13634
11244
12667
11546
12065
12230
11502
12862
11047
13521
10783
13999
10721
14303
10721
14246
10922
14023
11194
13634
11609
13189
12134
12552
12703
11940
13309
11343
13712
10916
14395
11332
15210
11559
15143
11624
14690
11620
13956
11795
13413
12310
11972
11333
13304
19678
22456
21147
5329
9297
8190
13379
10665
14849
11643
15003
12195
14817
12874
14479
13546
14027
14464
13718
15445
15804
14691
15754
15963
15627
17022
15190
17281
14498
14617
14328
14301
12506
12654
9921
10705
9276
10877
9453
11145
9748
11288
9795
10746
9776
10383
9978
10154
10339
10112
10818
9994
11127
10092
11443
9962
11596
10226
11801
10344
11700
10147
11340
10153
11258
10744
11774
11541
11733
11966
11523
12075
11313
11969
11080
12228
10468
10651
11351
17506
19765
18921
4972
6191
8916
11319
12326
13606
13746
13870
13949
14019
14134
14027
14598
14366
14430
14648
14989
14987
15541
15147
15851
15792
16368
15488
16417
15464
15812
14590
15069
13862
13448
13588
13145
13314
12594
13182
12180
13313
12276
14043
12918
14519
13304
14842
13213
14607
13568
14479
13604
14107
14147
13840
14397
13268
14446
13172
14846
12971
14642
12623
14695
13178
15415
13708
14972
13606
14336
13772
13858
13836
13495
14290
13145
13912
12950
17826
19195
23045
11672
5883
8482
12422
12212
14411
13706
14589
13472
15312
13706
15165
14162
15073
14469
14802
15314
14967
15875
14990
16786
15493
17487
15501
17363
15190
16866
14567
15701
13459
14165
12516
12945
12223
12423
12546
12313
12868
11978
13118
11814
13399
11822
13479
11857
13510
11878
13374
11984
13128
12101
12795
12238
12450
12462
12082
12707
11844
12830
11534
12956
11789
13645
12193
13785
12100
13339
10777
11294
10502
11081
11061
11654
10882
10147
14333
19589
25518
16755
8364
9306
11939
12284
13779
13416
14687
13349
14867
13310
14506
12878
14550
13498
15451
14735
15956
15606
16299
16456
16857
17761
17235
18105
16744
17827
15919
16736
14070
14759
12289
13193
11492
12547
11412
12242
11607
11958
11943
11752
12297
11705
13606
10781
14663
11323
14333
12055
13888
12516
13195
12774
12521
13112
11944
13720
11312
14369
10837
14799
10524
14797
10894
15305
11788
15121
12237
14367
12671
13214
12914
11957
13397
10965
13269
8791
15083
20504
25224
15138
9626
7170
11662
8096
14258
9696
15670
10095
15811
10714
15753
11418
15170
12623
14777
12804
13946
15068
13757
16742
13681
18453
13714
19026
13177
19585
12829
18533
12092
16060
10048
13494
10025
11938
11060
10973
11106
9778
12816
9398
13912
9142
14616
8998
14901
9188
14871
9628
14388
9818
13551
10951
12670
11371
11510
12482
10562
13345
9793
14298
9135
14384
8725
15486
9910
15922
9599
14825
10828
14173
9258
11586
8582
13864
8350
12043
10883
18186
20519
20032
7601
5167
9354
7461
12367
7397
13540
9370
16670
10135
17215
11126
17392
11996
16466
12528
15561
13235
14730
15452
14514
17037
14183
19043
13766
19493
13035
19692
12244
17939
10666
15893
10322
14410
10333
13370
11157
12200
12083
11171
13603
10355
14342
9645
15722
9412
16552
9783
16382
9826
15926
10035
14996
11236
14041
11720
12795
12444
11428
13281
10703
14955
10462
16701
10396
17091
10442
14210
10165
15826
10209
16056
8790
15451
12244
23571
21608
20581
5588
10473
9665
12160
12305
12646
14807
12094
15380
11278
17014
11269
17448
10892
18243
11543
18591
12895
18396
13842
18041
15019
17365
16398
16041
17221
14392
17718
12247
17102
10140
15838
8813
15868
8684
15686
9542
15014
9527
13919
11332
13164
12584
12054
12854
10782
15231
10459
15844
9902
16800
9958
16796
9942
16574
10749
15730
10752
14610
11664
14015
13903
13285
11880
16058
13056
14664
13115
13034
14073
12058
14728
9748
17653
16834
25274
20404
14428
6688
15344
10269
16845
12502
16728
13625
15750
14935
14854
16308
13921
17712
13264
19076
13069
20760
13776
21633
14142
22281
15864
22052
16310
20754
17413
18895
17116
15879
16457
13248
16785
11918
17549
11290
18616
11255
18980
11194
19057
12139
18535
13035
17528
13379
16291
15086
15155
16587
13870
17253
12736
18540
12140
19556
12002
20048
11991
19876
12861
20747
13176
21059
12978
20909
12971
19856
13506
18833
14570
17364
14294
15817
20573
23478
25333
16982
14984
10332
18654
12023
21327
13100
21485
13382
20944
14370
20084
15614
18953
17123
17731
18116
16513
20107
15829
22265
15609
23730
15507
24617
15750
24028
14968
22255
14483
19358
13363
16676
14128
14889
14834
13158
16134
11900
17872
11297
19005
10825
19546
10686
19771
11369
19094
11534
17932
11993
16453
13814
14933
14905
13191
12220
16584
12543
15181
14101
14001
16514
12540
17317
10976
18487
10034
18565
9422
19000
9457
17274
10324
22625
20885
25218
10598
9563
10734
11510
13593
11233
16922
10694
17672
9742
18858
9909
19484
10285
19238
11240
18570
12123
17706
13509
16689
15386
15532
17747
13961
19273
12437
19402
10510
18797
8650
17291
7709
16082
7709
14983
8530
13640
9650
12146
11082
10570
12641
9039
14271
7813
15309
6971
16629
7025
16438
6584
16076
7838
15835
6320
16303
6400
16175
7686
15917
8893
14696
9534
12762
10893
10701
11668
8890
13834
7366
13675
6872
20936
15411
25076
5265
10612
4261
13197
7179
14035
9812
13105
11621
11593
13572
10127
15333
9109
17237
8649
18465
8865
19483
9699
19743
10554
19442
12616
18121
13482
15916
13991
13054
14142
9642
13967
7155
14292
5858
15464
5787
15823
5733
15685
6775
14872
7980
13628
9113
12066
10397
10284
12181
8690
13610
7257
14952
6549
16208
9161
13470
8019
15064
7324
16811
6996
17049
6957
16699
7475
15568
7531
14264
8122
11577
12606
17966
23561
14820
9064
4678
13039
5952
15861
6813
17546
7672
17592
8125
16902
9652
15909
11230
14569
12494
13090
14852
11995
17092
11188
19463
10879
20853
10400
20934
10107
19800
9262
17094
8647
14326
9209
12337
10262
10485
11817
8843
13410
7486
14929
6862
16351
6744
16784
7203
16420
7379
15467
8877
14308
9600
12717
10883
10973
12034
9200
9286
13536
10951
12256
12970
10534
14066
8775
15224
7464
16568
7282
17015
6220
15888
10437
23879
20428
18687
4395
10276
8595
10814
12389
10475
14733
9267
16861
8829
17965
8450
18751
9051
18843
9540
18443
10932
17687
12481
16805
14949
15547
16559
13668
17795
11679
18755
9640
17963
7476
17062
6950
16423
7310
15602
7989
14471
9824
13114
10773
11288
12294
9658
14396
8418
15741
7556
16624
6886
16779
6836
16741
7637
15997
8954
14709
9308
17270
8206
17265
9273
16174
10497
14516
11162
12379
13128
10799
14540
8786
14059
8310
22113
17328
25146
6869
13172
5914
15690
8834
16049
10565
14919
12261
13617
14119
12169
15833
11004
18090
10437
19406
10237
21013
11257
22136
12998
22213
14046
20961
14773
19015
15932
16125
16033
12860
16182
10495
17459
9369
18562
8984
19298
9084
19523
9704
18932
10826
17804
11782
16376
13792
14777
15009
12987
16944
11590
18766
10563
20211
10171
20983
12166
18582
10975
20705
11283
22103
11210
22111
11359
21564
11950
20185
12994
18803
14772
15785
15229
18116
24872
24968
23160
8873
18895
10438
21977
11270
23072
12318
22646
13015
21767
14798
20368
16419
18732
18085
17080
20381
15732
22722
14981
24451
14981
25035
14816
25135
14906
24902
14901
22856
14208
19681
14860
17262
15886
15117
18222
13527
20119
11741
21783
10904
22667
10763
22978
11232
22418
11692
21070
12757
19203
14555
17175
10837
21049
12040
19529
13311
17515
14710
15814
17717
14198
19146
12170
20929
10364
21611
9188
21919
9227
21365
8684
19328
13371
24779
23726
21114
8335
11127
13830
11331
17718
10332
20314
9298
21776
8860
22799
9451
22727
10534
21946
11729
20469
13286
18695
15999
17004
19265
15277
21191
12751
22361
10713
22497
8511
21139
7154
19344
6982
17771
7919
16025
9203
13915
11074
11607
12968
9303
15409
7535
17132
6168
18065
5332
18565
5708
18045
5881
17541
5171
17988
4756
17699
5916
17650
7384
16201
8653
14017
10144
11419
11920
8971
13685
6630
14404
5095
20628
12644
25231
6308
12306
3078
14977
5887
15167
8225
13753
10339
11780
12468
9632
14590
7914
16736
6694
19054
6665
20068
7046
20599
8385
20217
9968
18709
11306
16215
12545
12982
13146
8955
13884
5993
14911
4382
16140
3884
16798
3923
16727
4826
15823
5994
14369
7654
12537
9228
10247
11269
8032
13339
6021
15276
4666
10683
8385
13002
6641
15320
5773
17423
5472
18165
5541
17812
5436
16551
6536
15253
7724
12168
9307
14802
19795
20306
15438
2091
12516
4387
16728
5523
18323
5816
18281
6513
17617
7911
16532
10090
15043
12010
13258
14233
11332
16845
10265
19447
9431
21193
8686
21929
8920
21163
8579
18763
7972
15444
8086
12641
9312
10310
10967
8019
13653
6792
16078
5872
17600
5470
18089
5504
17787
6099
16746
7292
15254
8571
13247
10459
11135
12310
8779
8223
13722
10406
12322
12963
10160
14612
8165
16617
6635
17352
5634
18219
6183
17347
4971
18071
12971
24983
17352
10282
7154
9935
11281
9574
14913
8513
16829
7193
18979
7218
19587
7241
19722
8311
19055
9707
18118
11556
16727
13899
15252
16181
13267
18337
11259
19554
9370
19973
7569
18669
6143
17371
6321
16075
7072
14905
8553
12998
10544
11268
11927
8958
14160
8032
15989
6757
16704
6614
17420
6954
17052
7870
16394
8664
15168
9815
17162
7337
16692
9059
16219
10284
14673
11564
12752
12521
10580
14656
9412
15421
6517
14961
9014
23749
17708
22772
2706
12555
7160
14455
9862
14474
11717
12993
13585
11519
15163
10156
16716
9139
18225
8937
19387
9562
19791
10292
19882
12013
19168
13149
17621
14396
15285
15134
12106
15334
8927
15197
6956
15678
6124
15979
6052
15970
7046
15643
7838
14538
8718
12988
10441
11269
12050
9612
13768
8150
15408
7152
16421
6709
16815
6781
16565
7610
16508
7348
17836
7603
17676
7887
16590
8267
15153
9557
13767
10034
10806
14041
16926
23977
14687
11554
5110
14963
6561
16799
7317
17641
7916
17196
9146
16213
10125
14940
12205
13638
13831
12063
15982
11045
17961
10160
19909
10735
21151
10925
20783
10812
19249
10470
16456
10056
13722
10566
11548
11876
9758
13034
7953
14738
7330
15866
6319
16408
6725
16892
7518
16335
8579
15242
9557
13697
10712
11990
12469
10292
13762
8557
15636
13063
12798
11347
14669
9983
15966
8462
16756
7487
17451
7558
16949
6484
17507
14024
25053
19228
11278
7147
10253
10844
10460
14452
9854
16523
9054
18083
8782
18918
8824
19127
9609
18632
10451
17656
11536
17059
13628
15690
15811
14147
17306
12425
19323
10966
19353
8998
18215
7135
17136
7447
16219
7739
14815
8924
13529
10588
12147
12174
10519
14617
9374
15748
8040
17020
7637
17640
7673
17549
8090
16764
8788
15572
9345
13481
10777
17305
8967
16423
9800
14816
10939
13196
12397
11047
13906
9527
14209
6990
18823
14649
25346
13196
13392
5648
15511
8257
16170
9994
15435
11991
14063
13913
12566
15771
11280
17532
10285
19101
10058
20200
10468
20983
11117
20931
12352
20202
13238
18415
14107
15723
14275
12278
13657
9069
15337
8039
16386
7270
16645
6856
17126
7806
16890
8401
15754
9603
14282
10912
12667
12236
10797
13480
9003
15339
8104
16685
7771
17503
7549
17208
8238
17087
8758
18279
8456
18292
8148
17419
8547
16057
8891
14487
10098
11292
12249
17143
23829
18550
12158
5023
14655
7199
17188
7985
18342
8673
17834
9492
17237
10731
15961
11874
14632
14265
13404
16377
12353
18818
11930
20463
11518
21506
11623
21565
11693
20233
10723
17400
10802
14484
11101
12309
11929
10510
12971
9039
15038
8287
16273
7484
16460
7184
16883
7779
16390
8814
15381
9423
13825
10315
12002
12076
10692
13287
8749
15429
8574
12386
11753
14147
10309
15673
8976
16638
7788
17471
7942
17334
7088
16747
12281
24360
20645
14770
6020
10567
10508
10406
13227
10137
15844
9253
17320
8908
18595
9078
18991
9511
18823
10859
18403
12187
17334
13210
16484
15911
15239
17722
13416
19066
11772
19163
9329
18131
7804
17169
7705
16318
8276
15254
9219
14024
10407
12584
12360
11156
13717
9473
14938
8151
16478
7559
17505
8012
17511
8210
16804
8518
15521
10118
14491
11275
13227
9482
16798
10204
15437
11314
13463
12223
11692
13592
9333
14338
11220
23806
19690
22988
3595
14503
6740
16432
8715
16611
10359
15597
11713
14261
13260
12764
15213
11494
16761
10539
18496
10239
20270
10943
21168
11451
21116
12713
20146
13246
18184
12878
14774
13019
11630
13680
9348
14489
8137
15632
7423
16742
7640
16979
7667
16582
8200
15673
9122
14302
10419
12720
11837
11027
13661
9643
14772
8339
16084
7874
16984
8347
17609
9010
8646
17606
8690
17770
8255
17250
8441
16515
8581
13873
12017
20791
23211
18829
9139
7649
12745
8584
15391
8494
17415
8688
18329
9101
18316
9625
17812
10991
16888
11984
15942
14198
14855
16053
13789
18425
12981
19597
11786
20777
11058
20293
9545
18483
8766
16013
9016
14420
9433
12795
10779
11369
12436
9997
14374
8891
15661
8133
16618
7634
17171
8227
16840
8566
16098
8976
14749
10254
13132
11569
11666
13163
10519
15173
9635
16752
8846
12990
10716
14454
9313
15398
8302
16701
6668
17234
12606
25368
20091
16171
4911
13073
9360
13542
11647
12646
13595
11392
15302
10300
17097
9812
18600
9766
19498
10115
19791
10883
19585
12668
18819
14238
17833
16079
16083
16715
13438
16859
10582
16557
8308
16646
7591
16376
7196
16292
8416
15680
8686
14497
10204
13280
11250
11619
12685
9991
14269
8775
15779
8072
16538
7502
17121
7950
17083
8243
15853
9034
15043
10832
13946
12645
12340
15878
8320
16959
7120
16771
11438
25131
19930
17112
4459
12263
8699
12622
11532
12289
13291
10793
15556
10041
17165
9479
18727
9643
19617
10318
19649
11303
19374
12906
18765
14511
17480
15652
15537
16968
13418
17654
10745
17081
8080
16383
6919
16332
7379
16228
8390
15424
8666
13985
10001
12707
11724
11303
13260
9883
14453
8647
16306
8316
16999
7973
17127
8044
16689
8429
15774
10233
15215
10996
13926
12816
12129
13386
10131
14671
13625
11288
11537
12066
10832
19490
18668
24796
7242
13237
6327
16370
7877
17551
9233
17057
10119
16119
12291
15037
13650
13588
15451
12443
16987
11530
19148
11582
20755
11841
21715
12271
21422
12810
20056
12784
17428
12019
13986
11373
10997
12507
9566
14010
8462
15673
7920
16587
7921
16955
8108
16611
8772
15769
9229
14449
10079
12642
11507
11319
12756
9701
14806
8689
15793
7956
17074
8460
18034
9268
17707
9754
16539
10426
14847
11391
17146
8789
15162
7669
17604
18239
25116
16383
8040
10504
9052
14032
9403
16160
9284
17649
9210
18127
9828
18293
10627
17726
11766
16972
12912
15964
15107
15278
16634
14381
18691
13353
20094
12520
20521
11287
19090
9759
17046
8041
15244
9142
13903
10079
12585
11401
11237
13053
10038
14423
8954
15497
8139
16256
8090
16634
8247
16403
8492
15546
9638
14388
11061
13077
11751
11256
13058
10494
15151
9755
16707
9164
17064
8552
17172
8580
16018
8969
15848
7285
18935
15208
25485
15913
12090
7257
13248
10545
13516
11903
12408
13316
11104
14993
10217
17143
10028
18138
9798
18984
10577
19328
10946
19205
12585
18780
14394
17544
15732
15670
16889
13313
16806
10406
16101
8134
16080
7456
16351
7634
15960
7957
15322
9098
14233
10051
12859
11293
11461
13216
10229
14720
9134
15792
8393
16412
7984
16813
8115
16429
8574
15590
9024
14789
10463
13691
12114
12111
13799
10543
14887
13689
11604
11944
11721
10084
18002
17791
25361
11297
12211
5872
15506
7542
17012
9033
16865
9894
15887
11400
14688
12888
13386
14483
12224
16449
11445
18157
11159
20110
11927
21259
12424
21226
12797
20065
12938
17620
11794
14233
11946
11651
12358
9737
14130
8857
15126
8211
15836
7685
16428
8175
16225
8435
15462
9487
14391
10211
12943
11809
11502
12445
9913
14003
8691
15072
7982
16621
8351
17587
8558
17176
8948
16054
9515
14579
9962
16846
7622
15362
11977
22780
22225
17353
6991
9636
11314
9942
14521
9817
16294
9253
17904
9229
18637
9399
18513
10291
18135
11635
17366
12947
16554
15145
15712
17597
14667
18889
13162
19993
11896
19972
10211
18405
8698
16726
8347
15484
8319
14081
9624
12754
11433
11437
12803
10062
13799
8744
15514
8133
16929
7992
17193
8119
17046
9109
16184
8779
14620
10513
13310
12095
12148
14067
10789
15422
9486
16444
8456
17217
8065
17546
8265
16231
8654
21862
17322
25203
7448
12387
6142
14801
9196
15384
11132
14308
12469
12804
14104
11551
16087
10777
18124
10580
19136
10505
20239
11528
20801
13021
20621
14245
19446
15075
17533
15773
14749
14802
11239
14709
8683
15200
7470
16170
7420
16512
7312
16264
7860
15427
8836
14266
10217
12781
11597
11221
12640
9570
14005
8418
15501
7884
16115
7434
16669
8121
16914
9077
16332
10013
14922
10953
13326
12097
11512
13226
9932
14522
7583
12690
17348
22207
13508
7017
2184
8787
1486
13248
7975
18040
8097
16151
7866
16146
9774
15537
11261
14052
13352
12951
15540
11706
17136
11351
19333
11434
21008
11640
20743
11365
19418
10337
16975
10424
14593
9925
12785
11150
11517
12622
10324
14519
9714
15715
9175
16559
9053
17025
9489
16686
10128
15828
10714
14950
11277
13504
12339
12213
13225
10593
13680
8910
14983
9056
16324
8868
16741
9872
16401
10304
15557
11176
14677
12543
13015
10972
18863
17920
23525
12947
6503
9810
11941
14021
13428
15776
12870
16263
12592
16769
12533
16945
12582
16882
13062
16998
13568
16384
14385
16662
17082
17672
18916
17137
19659
17415
20364
15326
18369
13407
16797
12063
15605
11894
15262
12353
14884
12872
14396
13362
13639
13956
12934
14503
12270
15005
11848
15333
11546
15260
11467
15080
11581
14715
11861
14178
11994
13409
12762
13284
13850
12827
14338
11843
14309
11136
14375
10760
13268
11065
12601
10138
17214
18867
25551
14132
9197
7686
11901
9816
13352
11822
13891
12874
13501
13785
12915
14597
12439
15427
12313
16270
12579
16963
13207
17654
14220
18207
15244
18147
15741
17186
15645
15242
14581
12376
13223
10109
12715
9128
12888
8804
13050
8855
13143
9222
13085
9776
12720
10474
12176
11262
11406
12177
10449
12968
9834
13651
9250
14061
9170
14288
9284
14070
9533
13918
10794
13902
11748
13084
12508
12056
13108
13662
11019
12786
11483
10552
11515
14078
21683
23009
18034
5798
11574
7579
13542
9479
14751
10547
14769
11368
14486
12284
14078
13384
13541
14512
13146
15672
12841
16900
13509
17835
14414
17734
15464
17063
15391
15875
13649
13727
11587
11582
10186
10471
9648
10225
9742
10276
9955
10423
10276
10668
10609
10888
10894
10919
11136
11013
11264
10997
11417
11046
11546
11111
11644
11256
11765
11381
11739
11483
11701
11433
11790
12176
12554
12554
12873
12677
12824
12579
12465
12326
12265
12399
11584
10784
12357
17945
23909
24435
11162
8814
9552
11242
11786
12677
12769
13167
13233
13421
13605
13644
13982
13982
14501
14373
15023
14916
15669
15636
16488
16473
17164
16935
17226
16801
16674
15995
15027
13957
12808
12146
11396
11311
10848
11126
10759
11267
10916
11441
11164
11669
11424
11758
11626
11861
11826
11904
11998
11980
12206
11985
12194
11926
12382
12018
12498
12046
12491
12236
12611
12160
12527
12196
13076
12969
13561
13194
13525
13238
13304
13027
12868
12789
12727
12729
11508
11646
15014
20987
25584
18976
7956
9633
10135
11772
12205
13211
13238
13616
13735
13868
14017
13969
14223
14184
14739
14567
15245
15047
15896
15795
16643
16494
17249
17029
17363
16963
16891
16165
15238
14266
13239
12706
12002
12017
11585
11979
11563
12149
11794
12325
11953
12401
12078
12441
12269
12421
12319
12330
12442
12334
12355
12508
12278
12310
12395
12264
12461
12349
12734
12355
12603
12196
12980
12941
13511
13079
13529
13122
13326
12896
12886
12626
12699
12641
11751
11273
14009
19536
24909
20644
8232
9377
10095
11405
11817
12968
12965
13527
13413
13736
13734
13931
14079
14106
14470
14476
15049
15028
15778
15780
16594
16542
17328
16974
17345
16876
16856
15967
15225
14054
13139
12383
11790
11663
11351
11586
11299
11742
11415
11958
11591
12137
11718
12182
11831
12334
11976
12467
12005
12417
12021
12384
12122
12397
12256
12351
12426
12370
12442
12183
12361
12354
13150
13025
13594
13093
13597
12974
13177
12592
12882
12555
12774
12075
10900
12632
17626
23801
24154
11472
8758
10437
10984
12185
12438
13282
12998
13671
13371
13831
13702
14064
14117
14325
14511
14678
15166
15237
15924
16180
16895
16670
17404
16944
17321
16602
16550
15265
14614
13309
12734
11986
11690
11499
11320
11457
11195
11727
11427
12414
11422
12769
11729
12912
11660
13013
11679
12978
12073
12969
12531
12765
12795
12574
13456
12381
13703
12281
13710
12043
13851
12699
14485
13135
14526
13445
14101
13447
13253
13433
12745
13637
12198
12565
11220
16577
19931
25803
17027
10095
9198
12044
11527
13242
12814
13406
13736
13417
14325
13339
14986
13366
15354
13276
16085
13717
16953
14505
17817
15718
18069
16687
17803
17290
16901
17360
15339
16350
12806
14864
12232
12366
11009
12665
10405
13246
10138
13782
10176
14031
10248
14001
10575
13772
10847
13247
11488
12797
12004
11993
12880
11391
13500
10746
14222
10339
14697
10088
14850
10658
15417
11495
15316
11929
14643
12308
13492
12660
12127
13381
11370
13350
9214
16207
16620
25832
18845
12144
7292
12828
9548
14141
11331
14311
12303
13849
13561
13176
14504
12495
15539
12136
16639
12238
17526
12813
18295
13740
18937
14750
18838
15444
18027
15618
18071
12438
15603
10953
13398
10537
11933
10901
10920
11790
10188
12827
9578
13627
9156
14130
9066
14338
9265
14167
9535
13815
10250
13253
10912
12424
11669
11415
12373
10433
13415
10240
14643
10229
15341
10134
15231
9919
14685
10051
14219
10632
12955
10119
14252
18571
23144
20662
6736
9885
7856
12685
9151
14983
10320
15779
10801
15966
11358
15607
12345
15399
13368
15020
14753
14621
16146
14432
17931
14709
19365
14731
19959
14512
17928
13779
16841
11334
15536
9719
14505
9283
14075
9506
13722
10112
13236
10905
12644
11823
11973
12675
11271
13526
10712
14090
10332
14536
10105
14661
10174
14583
10289
14275
10952
14294
12100
14049
13110
13156
13770
11959
14216
10925
14574
10542
14351
9111
14963
16116
24447
22465
12552
7741
10296
9454
11629
10746
12432
11249
12613
11841
12784
12271
12811
12901
13033
13670
13423
14614
14050
15621
14810
16640
15524
17201
15761
17074
15279
16018
13752
14212
11720
12361
10445
11453
10263
11235
10626
11204
11065
11180
11550
11149
12109
11194
12667
11185
14186
12031
13976
12555
13622
13143
12797
13871
12022
14486
11999
15509
12198
16234
12329
16174
12172
15582
12079
14803
12333
14112
12367
11905
14449
18571
25384
22277
12103
8502
12088
10489
13683
11857
14015
12509
14513
12909
14230
12887
14307
12957
14398
13057
14413
13785
15053
14817
15718
15910
16207
16630
16167
16710
16047
15010
14146
13208
11864
11706
10497
11204
10092
11267
10101
11515
10291
11746
10526
11850
10851
11860
11144
11765
11511
11656
11790
11429
12076
11360
12298
11130
12401
11268
13005
11971
13658
12345
13598
12416
13244
12287
12668
12219
12427
12476
11322
11793
14478
20558
24828
19095
7985
10382
9885
12460
11757
13624
12675
13816
13211
14001
13809
14048
14363
14156
15010
14442
15761
14939
16643
15675
17635
16540
18259
16877
18089
16457
17430
15121
15616
13120
13597
11724
12413
11363
11911
11510
11856
12050
11812
12465
11824
12802
11724
12981
11725
13233
11813
13242
11908
13240
11991
13035
12199
12781
12343
12523
12842
12921
13812
13293
14257
13185
14279
12778
14017
12403
13855
12524
13421
11294
13969
17844
23800
24636
12720
10407
9826
15289
11695
17366
13393
17364
14360
16817
15396
16381
16168
15723
17163
15204
18461
14908
19676
14954
20884
15616
21735
16154
21288
15751
21006
14382
19536
12348
17212
10878
15375
10400
14083
10968
13101
11917
11901
13181
10880
14281
9931
15052
9255
15394
8558
16178
8972
16048
9490
15357
10042
14385
10544
12999
12066
12252
13632
11450
14700
10327
16023
9679
16517
9128
16590
9118
16328
8531
14704
12491
21717
22588
18776
7532
9052
11140
9454
13988
9972
15774
9522
17146
9624
17881
10093
18005
11212
17627
12565
16995
14143
16396
15308
15670
17118
14882
18617
13758
16323
15988
15487
12573
14331
9447
15065
8453
15429
7974
15700
8016
15645
8634
15105
8783
13995
10098
12883
11399
11651
12669
10337
13680
9232
15063
8626
15902
8046
16317
8172
16072
9318
16138
10656
15284
11634
13832
12113
12003
12592
10241
14696
9655
14704
7827
18805
15977
25960
16017
13162
6645
13901
9331
14207
10921
13631
12515
12577
13870
11360
15771
10819
17122
10610
18466
10983
19578
11702
20046
13286
20050
13872
19067
15713
20968
12702
18821
11481
15668
10172
12829
11024
11050
12079
9734
13199
8672
14153
7907
15628
8232
16212
8198
16059
8877
15325
9241
14199
10376
12914
11388
11487
12702
10258
14065
9367
14446
8102
15991
8854
17021
9773
17199
9795
16355
10382
14948
10717
13281
11642
11780
12766
9110
14319
13876
25377
21416
17013
5310
14660
7424
15799
9469
16072
10689
15267
11708
14181
13544
13119
14772
12078
16202
11443
17808
11393
19687
12911
20660
15005
20471
15029
20323
15306
18409
14061
15504
12021
13489
10899
12180
10690
11773
10266
11406
9947
11045
10116
10904
10451
10759
10820
10576
11204
10500
11516
10363
11717
10405
11872
10418
12012
10565
12044
10803
11996
11090
11829
11473
11669
11836
11451
12024
11286
12632
11824
13430
12143
13744
12198
13632
11982
13230
11787
12928
12006
11982
10711
13269
18432
23934
23020
10014
10032
9848
12118
11295
13388
12168
13862
12537
14120
13006
14587
13245
14930
13661
15342
14367
15878
15306
16589
16573
17347
17643
17673
18209
17492
18259
16759
15527
10995
8978
6234
6468
2792
2870
1582
2732
2234
2859
482
14
14
11
13
13
14
12
12
13
15
15
11
14
15
14
13
13
678
1771
2162
3263
3198
4644
4292
5838
5045
6268
5278
6340
5399
6673
6413
7621
7597
8316
8588
8857
9080
7859
8284
7752
8771
7365
8319
10633
17102
22183
18096
6250
8392
9325
12151
13763
16161
17498
18808
19984
20629
20214
20930
20873
21188
21962
22691
23780
23334
24492
23743
25118
24181
25608
24813
25736
24464
25110
23458
24153
23047
22734
21584
21101
21001
20788
21698
21338
22596
21635
22849
21502
22751
21328
22550
21037
22112
20826
21667
20664
21062
20604
20623
20685
20277
20827
19969
20721
19410
20465
18880
20014
18368
19543
17917
19015
17682
18328
16588
16160
15518
15664
15848
15096
14255
12567
13138
11869
12837
11345
11366
8938
9054
9281
17167
21558
19583
5766
5614
4582
6356
6244
7660
7184
7905
7987
8382
8882
8847
9729
9308
10593
9997
11579
10867
12634
12005
13792
13198
14650
13995
14811
14143
14175
13502
12608
11870
10294
9933
8445
9041
7845
8928
7683
9041
8035
9447
8670
10020
9310
9790
9114
9628
9706
9696
10129
9753
10629
9912
11207
10937
13183
12637
14195
13013
14500
14325
16283
15548
16354
15613
15791
15793
16004
16545
16216
17197
16578
17968
16969
18512
17263
18477
17543
17840
16628
21299
25008
25992
25529
16877
14953
16989
16788
18460
18199
18818
18432
18364
18518
18037
18585
17700
18672
17510
18841
17618
19180
17940
19644
18526
20094
19207
20112
19186
19415
18675
17895
17171
16018
16980
15827
16443
14903
16084
14476
15746
14092
15483
14039
15236
13992
14920
14056
14523
14137
14045
14155
13540
14134
13114
14117
12816
14005
12470
13861
12330
13704
12211
13399
12162
13089
12158
12607
12561
13807
12918
14315
13582
14239
13668
13638
13582
13227
13922
13286
13939
12467
16772
20306
25912
22354
12026
10280
12295
11927
13637
13238
14042
13694
13888
14143
13710
14399
13515
14681
13601
15031
13805
15528
14321
16222
15114
16760
15821
16987
16081
16501
15915
15323
14577
13063
12595
10793
11168
9660
10775
9332
10727
9284
10818
9540
10915
9825
10915
10218
10868
10552
10672
10918
10490
11152
10318
11375
10240
11552
10173
11700
10278
11537
10461
11740
10436
11824
10132
11822
10786
12579
11572
12731
11725
12466
11822
11867
11695
11368
12081
10931
10855
10432
16217
20285
25666
13944
9071
8557
11085
10785
11922
14360
11968
15939
12183
16324
12628
16260
12984
16126
13369
16321
14008
16570
15079
16957
16721
17007
18222
16507
19082
15428
19129
13722
17858
11557
15772
9884
14295
9405
13443
9781
12643
10495
11814
11397
10844
12108
9717
13441
9001
14357
8450
14976
8276
12995
8997
13984
8286
15081
8401
15635
8474
15433
8588
14837
9506
13804
10208
12818
11424
12097
13094
10814
14311
9807
15100
8768
15556
8451
16180
7670
14619
9461
20817
20726
24981
8592
9485
9496
10456
12109
10448
14803
10176
16482
10073
17427
10131
17934
10134
18097
11271
17857
12328
17380
14343
17048
15727
16345
18113
15503
19315
14213
19340
11983
18709
10068
16864
7976
15481
8809
14522
9039
13314
9738
12086
11745
11049
12060
9571
10262
12902
11057
11462
12880
10312
14120
9235
15246
8628
15582
7982
16325
8323
16208
9002
15476
9544
14118
10382
13453
12823
12489
13711
11027
15178
9861
15579
8710
16646
8730
16094
7311
18558
15670
25817
17868
10697
6682
10580
11529
11611
13304
10787
15338
10272
17074
10189
18358
10250
18735
10899
18832
12026
18558
13170
18056
15451
17692
16818
16498
18311
15008
19630
13273
18472
10157
17586
8647
16464
7968
15452
7959
14358
9405
15973
7795
15898
8390
15116
9456
14046
10016
12638
11744
11357
11981
9638
13844
8723
15337
8209
16249
8333
16700
8415
16209
9049
15979
10364
15044
11617
13659
12776
12029
13493
10264
14934
9314
15897
7809
16965
12629
25593
20526
17793
4766
13125
7986
13347
11328
13331
12364
12103
14672
11195
16301
10611
18117
10494
19034
10879
19737
11919
19970
13092
19833
15105
19212
15908
17613
17357
15510
17376
12347
16091
9089
15902
7845
15922
9112
13638
8103
14736
7515
15818
7467
16262
7711
16083
8843
15187
9835
13964
11220
12686
11753
10933
13333
9595
14360
8592
15413
7959
16449
7998
17263
9313
17273
9426
16174
10795
14685
11262
12725
12853
