11813
13754
13903
14030
14052
14291
14502
14805
15091
15502
15750
16172
16673
17000
17288
17377
17329
17028
16708
16021
15324
14381
13488
12369
11809
11441
11286
11219
11176
11293
11372
11485
11543
11698
11619
11868
11876
11909
11902
11924
11849
11934
11833
12031
12042
12020
11918
11912
12280
12700
13136
13182
13130
13003
12911
12808
12729
12462
12354
12272
12124
11970
14436
19046
24932
21804
8694
8663
10380
11827
12485
12979
13023
13383
14686
14990
15204
15571
15874
16421
16736
17133
17305
17420
17243
17097
16808
16245
15277
14201
13294
12399
11899
11502
11265
11258
11462
11366
11615
11582
11703
11734
11790
11804
11774
11900
11915
11952
11960
11993
11997
11932
11902
11949
12003
12078
11940
12137
12541
13082
13268
13427
13356
13245
13039
12743
12467
12457
12620
12551
12191
12633
15938
20938
25744
17356
7627
9380
10979
12107
12814
13148
13358
13568
13760
13869
13997
15719
16096
16714
17061
17280
17329
17505
17372
17298
16746
16183
15276
14438
13337
12378
11869
11795
11512
11323
11464
11560
11695
11673
11771
11745
11937
11901
11949
11909
11993
11849
12039
12081
12132
12049
12127
12219
12290
12150
11956
11913
12355
12969
13174
13246
13211
13229
13050
12933
12624
12674
12714
12680
12337
12452
15145
19880
25375
20557
8344
9012
10747
12075
12846
13137
13425
13528
13785
13858
14165
14152
14303
14471
14765
17198
17352
17460
17459
17234
16776
16254
15278
14334
13336
12489
11783
11564
11214
11317
11274
11417
11454
11492
11566
11721
11751
11826
11896
11810
11871
11871
11950
11903
11990
11932
12065
12035
12091
11904
12163
12529
12900
13234
13254
13208
13100
12965
12697
12487
12489
12717
12584
12309
13118
17011
22098
25593
14979
7795
10110
11194
12448
13088
13475
13751
13834
13921
14049
14205
14366
14539
14914
14955
15290
15510
15826
16192
17307
16744
15990
14943
13947
12988
12197
11728
11447
11425
11257
11209
11381
11621
11679
11955
11904
11983
11821
12014
12002
12081
11996
11899
11927
12043
12038
12046
12015
11879
12045
12607
12886
13007
12978
13107
13083
12730
12601
12277
12269
12308
12059
11618
13751
18203
24069
23617
10133
8531
10086
11463
12240
12790
12989
13330
13337
13602
13768
13936
13979
14110
14271
14519
14790
15211
15605
15946
16493
16851
17204
17252
17288
12209
11611
11156
11045
10895
10988
11025
11202
11290
11432
11501
11507
11516
11562
11550
11557
11578
11537
11665
11706
11832
11704
11783
11690
11750
11646
12030
12381
12817
12887
12821
12784
12619
12585
12231
12245
12356
12307
11865
11771
14123
18979
24705
21370
8384
8472
10123
11558
12425
12817
12983
13105
13308
13394
13741
13810
13882
14052
14355
14530
14918
15188
15577
15870
16328
16751
17091
17167
17150
16827
16672
16356
15523
14525
11036
11113
11044
11205
11386
11616
11500
11603
11577
11553
11649
11724
11644
11523
11417
11531
11747
11807
11704
11526
11771
12190
12540
12725
12926
12769
12752
12681
12485
12216
12223
12341
12187
11666
12282
15888
21077
25608
16790
7397
9162
10654
11907
12584
12919
13193
13282
13438
13575
13710
13957
14138
14296
14485
14686
14888
15404
15803
16310
16543
16986
17309
17352
17143
17089
16649
16125
15311
14298
13188
12316
11740
11290
11437
11558
11621
11522
11540
11647
11763
11641
11707
11700
11736
11761
11709
11667
11709
11958
12439
12628
12882
12858
12752
12606
12304
12102
12110
12287
12067
11779
12232
15559
20362
25241
17958
7490
9310
10547
11668
12430
12925
12982
13204
13435
13594
13629
14008
14029
14226
14536
14826
15058
15519
15831
16253
16577
16981
17053
17270
17089
16897
16738
16040
15172
14074
13118
12124
11654
11175
11054
10991
11172
11208
11381
11518
11458
11889
11920
11839
11752
11720
11800
11842
12059
12574
12809
12927
12774
12999
12696
12517
12269
12194
12140
12231
11719
11837
14708
19592
25435
20085
8275
9226
10621
11713
12312
12697
13222
13388
13504
13527
13694
13763
14071
14296
14441
14662
14932
15452
15713
16124
16581
16971
17143
17203
17166
17060
16608
16077
15228
14308
13177
12311
11573
11345
11196
11039
11083
11149
11273
11384
11633
11496
11554
11556
11853
11747
11811
11829
11885
12002
12469
12741
12879
12885
12824
12842
12760
12313
12071
12346
12320
12091
11610
13609
17981
23887
23860
10611
8226
10163
11450
12284
12821
12996
13137
13348
13509
13771
14047
14055
14149
14349
14784
14960
15341
15662
16127
16411
16850
17207
17430
17377
17071
16824
16460
15682
14669
13725
12716
11949
11410
11280
11145
11189
11210
11382
11272
11496
11622
11713
11629
11696
11714
11695
11790
11874
11891
11746
11915
11859
11798
12871
13062
12779
12581
12297
12314
12295
12308
11908
12757
16527
22175
25599
14375
7515
9638
11087
12154
12803
12991
13257
13336
13542
13648
13869
13952
14206
14338
14599
14904
15358
15628
15939
16338
16832
17156
17334
17356
17211
17140
16491
15885
15024
13980
12889
12091
11482
11301
10926
10949
11111
11216
11310
11292
11506
11498
11643
11642
11731
11602
11839
11802
11828
11654
11875
11923
11888
11825
11794
12063
12452
12829
12989
12940
12379
11893
12373
16004
21361
25789
16585
7353
9587
10760
11854
12587
12941
13285
13379
13477
13537
13717
14049
14184
14408
14529
14880
15134
15651
15969
16316
16549
17234
17488
17403
17288
17020
16638
16000
15036
13802
12901
12100
11734
11238
11074
11009
11176
11197
11263
11246
11489
11757
11802
11764
11761
11744
11896
11805
11789
11720
11931
12072
11864
12012
11787
12174
12433
12771
13049
13019
12883
12873
12630
12594
12407
12313
21239
8655
8908
10364
11787
12456
12908
13034
13281
13360
13686
13794
14023
13885
14298
14628
14700
14966
15368
15736
16262
16650
16970
17443
17493
17398
16997
16879
16291
15455
14336
13304
12351
11871
11329
11203
11058
11130
11100
11281
11571
11537
11696
11666
11733
11758
11850
11720
11786
11906
11972
11874
11943
11906
11981
11880
11783
11779
12233
12784
12937
13134
13066
13021
12760
12685
12480
12460
12312
12404
11956
12176
14789
19830
12903
13266
13311
13423
13532
13661
13950
14112
14263
14300
14617
14830
15160
15614
16072
16371
16852
17176
17510
17483
17525
17351
16748
16016
15076
13968
12893
12184
11530
11230
11069
11093
10995
11225
11229
11493
11525
11567
11445
11642
11842
11918
11741
11703
11781
11745
11839
11829
11798
11795
11870
11686
11671
11885
12383
12685
12942
12852
12987
12814
12598
12416
12204
12230
12253
12200
11878
13882
18296
23787
23783
10450
7849
13610
13556
13714
13921
14084
14329
14673
14725
15044
15464
15759
16198
16734
17246
17375
17503
17396
17228
16806
16352
15281
14223
13162
12340
11660
11287
11052
10954
11009
11180
11249
11288
11471
11565
11675
11609
11731
11643
11816
11863
11875
11825
11951
11857
11949
11865
11960
11989
11715
11902
12511
12910
13048
13068
12936
13032
12742
12593
12460
12415
12326
12340
11796
12851
16737
22580
25763
14375
8009
9670
10952
12086
12760
14098
14411
14404
14809
15065
15340
15671
16247
16561
17044
17361
17484
17525
17433
17004
16403
15667
14751
13532
12496
11811
11278
11170
11049
11073
11023
11290
11291
11497
11374
11706
11819
11841
11867
11807
11905
11748
11812
11872
12005
11831
11945
11978
11972
12088
12291
12057
11912
12241
12709
13037
13271
13161
13053
12956
12829
12748
12529
12482
12430
12216
11946
14554
19415
25310
21330
8614
8750
10622
11838
12463
13018
13304
13408
14657
14755
15153
15743
15997
16224
16906
17378
17425
17577
17459
17323
16913
16364
15398
14431
13231
12269
11776
11221
10876
11210
11191
11063
11269
11326
11654
11694
11762
11589
11926
11937
11960
11807
11775
11851
11774
11831
11862
11797
11910
11919
11807
12111
12197
12233
12118
12131
12364
12846
13043
13214
13077
13208
13223
13011
12839
12564
12667
12723
12453
12006
13879
18421
24479
23737
10418
8202
10212
11596
12505
12989
13219
14568
14735
14864
15028
15482
15808
16228
16738
17172
17474
17747
17567
17539
17102
16599
15735
14720
13676
12748
11981
11517
11126
11037
11037
11050
11147
11260
11489
11485
11534
11553
11760
11598
11726
11691
11803
11618
11588
11629
11847
11802
11758
11801
11870
11980
11864
11863
11922
12392
12570
12968
12995
13049
12925
12836
12765
12603
12411
12461
12471
11892
12258
15229
20274
25632
19334
7802
9191
10465
11747
12380
12987
13209
13455
14730
15166
15288
15651
16030
16546
16993
17302
17637
17663
17422
17248
17069
16301
15261
14160
13305
12195
11681
11372
11165
11064
11159
11326
11466
11612
11543
11683
11781
11826
11737
11839
11814
11975
11826
11900
11859
11980
11983
11899
11932
11910
11880
12050
12058
11989
12223
12650
13016
13081
13178
13019
13088
12811
12781
12493
12448
12535
12356
11841
13185
17172
23049
25342
13100
8005
9822
11268
12281
12895
13107
13389
13492
14932
15131
15462
15773
16221
16525
17161
17534
17679
17667
17511
17206
16696
15840
14844
13873
12826
11988
11401
11259
11042
11050
11054
11317
11459
11450
11476
11602
11643
11738
11760
11807
11773
11677
11745
11792
11874
11668
11834
11848
11939
11951
12046
12077
12053
11865
12115
12529
12967
13136
13191
13265
13167
12982
12701
12605
12512
12574
12186
12042
13406
17517
23263
24933
12341
7915
9996
11428
12369
12887
13185
13364
13545
14945
15164
15493
15903
16187
16743
17104
17447
17519
17504
17405
17406
16860
16019
15001
13947
12964
12135
11621
11334
11195
11035
11307
11233
11489
11509
11511
11416
11651
11801
11810
11700
11757
11712
11871
11844
11742
11820
11765
11905
11928
11930
11811
11836
11633
11702
12110
12750
13052
13209
13076
12993
12857
12799
12607
12394
12354
12376
12151
11881
14178
18614
24428
22944
9651
8295
10112
11419
12462
12852
13066
13382
13636
13757
15146
15490
15964
16355
16804
17313
17478
17599
17544
17431
17095
16520
15601
14719
13516
12649
11819
11381
11104
10970
11046
11112
11373
11365
11398
11363
11522
11678
11903
11727
11875
11855
11844
11798
11751
11789
11844
11869
11925
11774
11918
12014
12097
12622
12888
13152
13029
13085
12743
12654
12616
12473
12372
12344
11930
12112
14969
19780
25238
20049
8212
9139
10416
11767
12506
12869
13084
13383
13629
13639
13773
14021
14159
16465
16824
17230
17515
17549
17492
17351
16840
16089
15185
14198
13006
12170
11629
11346
11092
11223
11070
11146
11262
11550
11542
11536
11646
11685
11870
11802
11713
11628
11729
11739
11958
12017
12028
11915
11929
11742
11747
12051
12711
12940
13050
13038
12943
12881
12917
12604
12182
12433
12358
12126
11715
13551
17684
23559
24623
11632
7988
9997
11274
12363
13024
13177
13285
13540
13630
13630
13917
14134
14405
14338
14829
15156
15246
17630
17442
16901
16422
15659
14704
13564
12730
12013
11557
11252
10981
11129
11132
11310
11432
11559
11487
11628
11628
11678
11594
11646
11581
11679
11651
11795
11860
11873
11863
11865
11852
11703
11710
11942
12322
12557
13017
13146
13074
12973
12921
12718
12385
12360
12437
12171
11809
12769
16298
21532
25495
15761
7442
9550
10933
12114
12574
13056
13288
13449
13493
13866
14027
14072
14160
14358
14510
14849
15170
15478
15924
16402
16790
16031
15190
14031
12986
12108
11704
11369
11165
11063
11076
11106
11301
11442
11510
11479
11542
11710
11773
11846
11684
11638
11577
11742
11675
11764
11725
11806
11674
11618
11944
12261
12503
12835
12873
12854
12889
12706
12548
12333
12428
12299
12162
11870
13579
17577
22848
24258
11719
7698
9793
10752
11993
12736
12929
13169
13311
13573
13628
13786
13965
14496
14848
14985
14957
15314
15610
15961
16424
16720
17203
17495
17386
17282
11842
11384
11188
10801
11046
11189
11314
11347
11447
11394
11657
11574
11669
11754
11801
11787
11713
11703
11872
11916
11876
11866
11753
11758
12002
12393
12683
13079
12986
12998
12879
12667
12532
12395
12253
12383
12227
11684
12807
16581
22092
25633
14873
7711
9768
10719
12094
12707
13043
13179
13500
13577
13635
13825
14040
14212
14345
14444
14818
15336
15687
15990
16374
16936
17248
17438
17417
17397
17070
16809
16229
15275
14234
11280
11441
11515
11511
11523
11724
11663
11791
11687
11775
11805
11919
11887
11883
11785
11882
11844
11947
12042
11956
11808
11877
12377
12748
13065
13012
12892
12865
13010
12619
12360
12349
12533
12409
12072
11986
14567
19375
25140
21374
8673
8708
10323
11724
12536
12954
12989
13439
13676
13773
13860
14048
14046
14263
14431
14720
15003
15458
15884
16262
16579
16933
17349
17498
17473
17205
16997
16489
15716
14682
13911
12749
12044
11471
11483
11431
11744
11847
11808
11728
11687
11682
11704
11737
11727
11713
11807
11893
11787
11991
11941
12073
11834
12067
12433
12923
13000
13076
13047
13064
12837
12603
12432
12382
12572
12481
11962
12582
16278
21553
25698
15916
7530
9402
10989
12111
12690
13182
13362
13500
13540
13804
13872
14049
14090
14398
14638
15034
15148
15581
15928
16388
16906
17297
17516
17588
17553
17267
16985
16451
15648
14532
13513
12475
11847
11551
11325
11839
11659
11746
11718
11678
11593
11657
11620
11826
11708
11819
11894
11905
11746
11862
12189
12702
12836
12949
12982
12877
12864
12595
12367
12323
12380
12337
12030
11972
14897
19555
24857
20490
8111
8791
10406
11439
12295
12976
13213
13395
13590
13642
13792
14153
14202
14402
14526
14705
14937
15499
15881
16344
16761
17206
17398
17580
17580
17352
17033
16486
15791
14525
13596
12799
12111
11447
11207
11113
11090
11055
11231
11355
12129
11948
11871
11843
11867
11844
11997
12105
11923
11885
11997
12040
11827
11874
12239
12783
12919
13139
13124
13232
13030
12821
12659
12604
12482
12444
12137
11799
13429
17732
23635
24539
11658
8322
10162
11292
12328
12987
13293
13289
13497
13675
13839
13930
14069
14242
14503
14666
14966
15425
15753
16188
16518
16997
17324
17604
17371
17284
17168
16852
16031
15229
14218
13088
12138
11542
11262
11093
11086
11017
11491
11567
11580
11513
12080
11988
11900
11815
12056
11921
11879
11906
11882
11972
12090
12226
12202
12145
12015
12478
12981
13265
13190
13235
13239
13165
12979
12713
12513
12559
12653
12313
12163
14595
19270
25214
21986
8978
8759
10523
11950
12585
13216
13190
13379
13419
13653
13852
13997
14171
14376
14598
14823
15095
15348
15836
16165
16709
17102
17539
17543
17386
17327
17268
16689
15959
15053
14016
12910
12036
11565
11327
11125
10972
11209
11407
11544
11715
11934
11815
11811
11732
11869
11783
11814
11874
11970
11989
11922
11921
12072
12184
11904
11831
12181
12800
13049
13327
13366
13355
13140
13061
12650
12589
12503
12597
12348
12194
14131
18551
24505
23486
10259
8352
10358
11747
12651
12982
13247
13335
13683
13743
13840
13968
14244
14259
14572
14752
14959
15339
15734
16156
16616
17222
17446
17655
17439
17552
17344
16939
16082
15030
13992
13158
12260
11563
11401
11250
11033
11113
11730
11675
11671
11627
11665
11700
11829
11708
11671
11612
11840
11780
11875
11943
11988
11932
11857
12124
12519
12831
12991
13055
12998
12843
12632
12767
12483
12470
12338
12275
11806
13284
17424
23011
24515
12190
7972
9979
11214
12170
12769
12999
13239
13372
13773
13910
13942
13951
14284
14437
14764
15041
15299
15691
16240
16540
17026
17461
17539
17574
17544
17286
16702
16175
15225
14218
13113
12406
11686
11377
11160
11155
11187
11181
11881
11914
11884
11793
11724
11876
12060
11880
11939
11856
12051
11838
11950
12174
12078
11862
12077
12609
13115
13248
13172
13111
13175
13069
12856
12689
12563
12483
12506
12109
12421
15998
21064
25796
17220
8007
9495
10975
12248
12763
13052
13293
13636
13760
13814
13723
14009
14242
14598
14630
14927
15086
15522
15914
16416
16691
17135
17517
17740
17640
17322
16978
16351
15569
14477
13503
12400
11843
11533
11302
11042
11071
11122
11820
11798
11795
11765
11808
11878
11800
11692
11804
11888
11909
11921
11995
12122
12126
12033
11726
12097
12478
13117
13252
13157
13085
13177
13054
12858
12559
12511
12564
12536
12213
12517
15729
20948
25794
17613
7833
9217
10983
12337
12888
13252
13313
13444
13700
13858
13941
14101
14204
14449
14684
15010
15196
15663
15985
16468
16814
17239
17479
17654
17495
17489
17129
16569
15741
14659
13622
12481
11896
11436
11168
10975
11141
11197
11834
11741
11799
11642
11802
11838
11954
11760
11783
11846
11959
12043
12037
11979
12036
12048
11878
12043
12371
12828
12950
13258
13212
13190
12811
12700
12620
12534
12632
12592
12098
11998
14800
19740
25201
20720
8411
8702
10588
11802
12760
13175
13340
13304
13534
13660
14002
14241
14313
14339
14645
15008
15223
15498
15648
16442
16931
17122
17507
17893
17632
17436
17108
16629
15789
15006
13930
12857
11952
11577
11296
11065
10988
11717
11730
11636
11698
11697
11782
11789
11913
11787
11854
11828
11892
11797
12022
12085
12047
12017
12100
12520
12959
13127
12973
13095
13007
12864
12627
12607
12524
12521
12353
11961
12749
16516
22112
25609
14859
7940
9822
10888
12115
12788
13198
13207
13453
13663
13951
13925
13909
14198
14546
14696
14953
15220
15570
15998
16528
16868
17180
17637
17667
17537
17315
16874
16139
15483
14256
13115
12297
11861
11373
11171
11072
11143
11735
11864
11732
11741
11914
11931
11991
11908
11781
11802
11969
12033
12025
11882
12054
12002
11931
12155
12733
13037
13074
12984
13110
13181
12932
12767
12615
12615
12530
12406
11920
13156
16866
22855
25365
13589
7805
9914
11209
12192
12927
13296
13420
13442
13635
13890
14048
14029
14164
14341
14766
15004
15455
15705
16032
16425
17046
17381
17596
17561
17567
17399
16911
16308
15360
14291
13171
12417
11772
11335
11020
11059
11096
11142
11716
11803
11805
11846
11735
11793
11690
11668
11867
11746
11797
11956
12156
11947
11759
11945
12550
12874
13047
13005
13115
13118
12914
12664
12508
12542
12530
12352
11973
12602
15740
21126
25755
17038
7544
9419
11030
12212
12627
13155
13268
13492
13659
13717
13881
14038
14214
14368
14753
14936
15199
15490
16036
16368
16960
17236
17660
17585
17605
17451
17275
16437
15581
14619
13450
12461
11691
11320
11074
10937
10980
11167
11146
11742
11552
11668
11628
11668
11726
11708
11682
11805
11856
11835
11760
11698
11869
12221
12590
12815
13051
12994
13071
12711
12641
12376
12355
12315
12405
12105
12126
14501
18996
24497
21946
8713
8424
10163
11361
12336
12910
13353
13458
13583
13739
14051
13956
14097
14305
14419
14675
15054
15431
15864
16365
16611
17121
17559
17657
17605
17486
17103
16643
15773
14832
13646
12637
11774
11456
11241
11119
11051
11142
11253
11292
11551
11517
11969
11882
11955
11765
11876
11907
12016
11943
11928
11878
12150
12508
12969
13126
13094
13086
12986
12845
12686
12492
12363
12423
12287
11895
12671
16434
21871
25721
15167
8073
9840
10992
12040
12772
13147
13241
13399
13634
13794
13860
14046
14083
14369
14567
14850
15168
15660
16027
16571
16973
17291
17486
17617
17593
17304
16859
16144
15303
14180
13111
12143
11497
11098
11266
11290
11225
11300
11447
11297
11450
11633
11681
11565
11846
11870
11843
11874
11893
11994
11920
11918
11852
12228
12597
12890
13098
13131
12905
12859
12785
12708
12491
12427
12446
12212
11893
13795
18283
24038
23633
10373
8240
10133
11762
12522
13027
13213
13368
13446
13647
13880
14041
14145
14286
14586
14830
15135
15347
15863
16215
16699
17031
17502
17660
17719
17410
17234
16880
16031
14985
14070
13097
12141
11526
11252
11210
11097
11226
11279
11276
11279
11535
11463
11623
11564
11674
11945
11866
11794
11781
11968
11995
11859
11750
12121
12527
12887
12821
13002
13016
12859
12706
12645
12329
12136
12384
12482
12029
14025
18294
24005
23451
9965
8235
10058
11241
12259
12961
13074
13272
13452
13692
13727
14026
14143
14192
14453
14799
15164
15385
15772
16233
16617
17041
17386
17591
17579
17401
17076
16582
15856
14895
13766
12714
11991
11500
11211
11079
11008
11079
11200
11289
11399
11476
11591
11627
11723
11765
11811
11798
11952
11955
11936
11833
11933
12334
12793
13016
13044
12982
12906
12788
12648
12462
12404
12471
12458
12183
12611
15755
20178
24531
17848
7612
9362
10704
11509
12438
13077
13319
13454
13559
13759
13940
14090
14228
14559
14729
15035
15262
15442
15839
16310
16721
17138
17338
17448
17355
17213
16928
16267
15361
14291
13298
12501
12024
11626
11578
11774
11963
11795
11793
11754
11814
11895
12021
12317
12376
12249
12204
12162
12140
12186
12371
12725
13020
13307
13310
13261
13109
12981
12804
12715
12709
12791
12759
12441
13232
16621
20949
24440
15761
7798
10138
11263
12210
13015
13556
13758
13957
14137
14326
14431
14631
14820
15034
15404
15621
15822
16161
16496
16893
17302
17619
17863
17857
17768
17525
17149
16453
15505
14469
13582
12787
12314
11956
11799
11751
11773
11846
11904
12015
12085
12161
12233
12288
12292
12394
12449
12402
12342
12409
12346
12337
12295
12359
12356
13304
13208
13039
12898
12700
12680
12642
12651
12392
12661
15372
19714
24399
19595
8494
9596
11019
11853
12623
13206
13446
13609
13811
13981
14134
14279
14465
14604
14896
15144
15473
15720
16168
16571
17044
17356
17609
17740
17736
17553
17217
16579
15608
14586
13491
12657
12005
11663
11436
11341
11329
11394
11465
11653
11727
11781
11835
11885
11936
12099
12122
12148
12134
12092
12120
12092
12045
12054
12173
12102
12022
12056
12535
12706
12531
12474
12474
12182
11933
14006
18434
23678
23796
11081
8401
10309
11088
12147
12840
13271
13422
13620
13755
13933
14074
14275
14443
14659
14970
15241
15593
15996
16383
16776
17272
17559
17658
17664
17617
17338
16888
16045
15120
14025
13059
12276
11766
11457
11335
11373
11465
11637
11750
11941
11955
11997
12070
12198
12181
12204
12193
12247
12225
12246
12271
12291
12306
12320
12347
12243
12162
12302
12774
13191
13457
13409
12736
12477
12182
13888
18313
23521
24634
11918
7846
9826
10968
12189
12837
13262
13423
13580
13709
13875
14042
14256
14361
14623
14839
15211
15494
15957
16251
16755
17148
17440
17650
17683
17511
17215
16796
15981
14961
13851
12863
12047
11548
11190
11145
10984
11091
11236
11378
11403
11513
11643
11673
11683
11705
11753
11736
11816
11811
11906
11919
11863
11821
11912
11844
11647
11557
12074
12555
12833
12883
12837
12828
12627
12517
12330
21313
25568
16756
7341
9135
10418
11853
12500
12949
13167
13403
13511
13756
13918
14032
14215
14409
14651
14874
15173
15485
15983
16426
16917
17277
17578
17559
17509
17277
16951
16139
15099
14073
13108
12123
11625
11419
10973
10881
10935
11084
11153
11366
11418
11501
11533
11668
11702
11740
11735
11833
11789
11724
11816
11860
11878
11913
12012
11910
11855
11886
12375
12741
13007
12955
12934
12861
12729
12553
12398
12338
12380
12298
7851
9795
10761
11865
12555
13002
13183
13383
13537
13751
13886
14138
14248
14445
14630
14987
15305
15630
16009
16505
16968
17319
17570
17587
17507
17143
16635
15762
14759
13644
12687
11888
11474
11184
11072
10965
11072
11216
11224
11293
11369
11447
11518
11710
11710
11801
11770
11829
11760
11807
11789
11858
11830
11804
11781
11737
12069
12503
12771
12864
12824
12781
12645
12491
12408
12201
12272
12298
12086
11585
13532
17893
23124
23042
13154
13363
13528
13643
13788
13914
14083
14405
14641
14875
15077
15489
15801
16271
16720
17140
17298
17487
17451
17246
16733
15967
15122
14010
12961
12061
11463
11155
11076
10993
11050
11063
11189
11281
11431
11448
11589
11658
11779
11824
11868
11847
11824
11827
11787
11796
11848
11864
11744
11687
11861
12429
12805
12996
12880
12915
12777
12625
12426
12287
12269
12332
12195
11624
12439
16232
21562
25517
15600
8086
9899
10658
11785
13908
14062
14209
14495
14750
15096
15410
15794
16199
16710
17139
17462
17547
17473
17371
17031
16481
15459
14368
13255
12348
11684
11352
11260
11239
11153
11161
11283
11359
11452
11525
11642
11680
11716
11732
11915
11897
11841
11864
11901
11774
11857
11855
11886
11914
11860
11743
11822
12280
12703
12938
12964
13114
13002
12786
12560
12373
12224
12517
12505
11917
11635
14473
19300
25035
21454
8999
9068
10158
11435
12307
12943
13140
14436
14632
14925
15178
15624
15989
16455
16919
17345
17551
17593
17555
17325
16860
16062
15030
13867
12829
11997
11505
11272
11187
11046
11117
11194
11287
11301
11452
11502
11644
11698
11715
11778
11829
11839
11827
11846
11823
11911
11864
11951
11912
12028
12048
12042
12081
12115
11981
12141
12564
12939
13228
13198
13158
13118
12939
12733
12625
12534
12573
12585
12213
11945
14550
19136
24891
22013
9385
9033
10342
11384
12357
12959
13260
14535
14699
15045
15398
15728
16133
16611
17052
17444
17670
17787
17680
17513
17084
16344
15284
14163
13142
12308
11768
11406
11234
11152
11205
11172
11306
11438
11558
11572
11606
11658
11788
11767
11847
11844
11880
11910
11853
11875
11896
11908
11926
11986
12007
12117
12061
12154
12090
12010
12153
12602
12898
13124
13091
13097
13023
12859
12793
12680
12607
12539
12477
12016
12352
15462
20119
24494
18225
8161
9650
10981
11682
12474
14279
14437
14643
14807
15006
15301
15635
16074
16519
16996
17320
17534
17428
17382
17024
16530
15708
14804
13808
12894
12151
11675
11423
11325
11310
11288
11335
11392
11545
11652
11787
11797
11950
11984
12057
12060
12094
12043
12078
12058
12056
12091
12100
12138
12114
12174
12199
12310
12231
12211
12218
12695
13015
13301
13286
13251
13144
12986
12861
12694
12582
12613
12620
12270
12275
14459
18460
23100
20592
9373
8958
10892
11774
12480
14174
14271
14486
14721
14995
15284
15654
15914
16327
16800
17190
17458
17507
17457
17229
16827
16002
15062
13963
12991
12217
11711
11417
11341
11337
11351
11421
11493
11638
11677
11807
11868
11967
11926
12012
12070
12220
12129
12198
12155
12207
12153
12132
12090
12165
12241
12233
12252
12241
12311
12329
12380
12392
12505
12407
12289
12407
12785
13118
13403
13433
13439
13373
13230
13140
12942
12902
12856
12751
12250
12020
14579
19359
12817
13180
13350
13575
13685
13845
14002
14169
14315
14593
14867
15075
15326
15553
15981
16484
16861
17190
17477
17564
17562
17293
16982
16228
15363
14244
13090
12186
11663
11357
11149
11057
11161
11239
11331
11393
11469
11618
11863
11973
12102
12035
12084
12157
11900
11853
11780
11750
11804
11838
11889
11964
12000
12017
12023
12073
12121
12064
12162
12132
12239
12303
12284
12149
12432
12864
13210
13310
13477
13526
13442
13332
13147
18431
24191
24400
11602
8624
10092
11170
12120
12791
13087
13274
13449
13709
13833
13956
14125
14333
14603
14766
15120
15476
15859
16263
16806
17205
17595
17761
17825
17711
17490
16986
16310
15208
14117
12971
12076
11560
11244
11057
10923
10961
10945
11119
11180
11338
11430
11542
11550
11619
11649
11689
11662
11710
11752
11809
11755
11795
11853
11884
11889
11834
11877
11893
11999
12024
12197
12215
12266
12187
12172
12119
12593
13037
12712
12609
12640
12721
12205
12692
15851
20779
25512
18499
7904
9365
10562
11796
12602
13161
13416
13583
13714
13855
14010
14159
14311
14420
14682
14917
15295
15581
16029
16490
16991
17416
17832
18047
18047
17851
17558
16936
16037
14847
13694
12725
11973
11560
11300
11245
11116
11133
11186
11321
11356
11468
11558
11658
11671
11756
11791
11850
11871
11795
11872
11906
11960
11946
11961
11986
12068
11960
11969
11995
12151
12121
12073
12028
12988
12808
12629
12516
12541
12519
12035
12419
15526
20275
24826
19136
8137
9184
10479
11312
12307
13015
13236
13439
13555
13696
13826
13885
14073
14281
14543
14787
15095
15455
15822
16220
16782
17197
17545
17662
17691
17549
17254
16610
15606
14474
13335
12405
11802
11448
11270
11258
11157
11174
11154
11310
11472
11707
11773
11801
11790
11850
11840
11846
11891
11862
11884
11833
11858
11840
11962
11963
11956
11920
11954
12041
12386
12453
12349
12297
12412
12248
12131
13714
17164
20957
22857
14821
7769
9587
10955
11692
12355
12942
13121
13293
13413
13624
13738
13910
14012
14289
14482
14679
14904
15222
15601
15951
16439
16798
17073
17134
17197
16943
16554
15770
14975
13983
13123
12452
11913
11599
11489
11442
11423
11507
11519
11656
11694
11815
11976
12077
12073
12158
12484
13052
12997
12673
12369
12318
12309
12512
12281
12187
12362
12708
13070
13171
13206
13141
13054
12248
13553
16236
19262
19854
12033
8358
9952
10735
11822
12501
12910
13091
13314
13401
13451
13549
13751
13986
14138
14257
14545
14798
15079
15477
15834
16246
16566
16752
16907
16874
16524
15986
15227
14322
13450
12672
12144
11806
11686
11614
11642
11635
11805
11817
11816
11919
12123
12203
12151
12300
12350
12377
12441
12499
12396
12409
12395
12502
12406
12335
12267
12538
12824
13023
13171
13197
13118
13050
12915
12745
12624
12564
20962
12424
8876
10567
11469
12322
12930
13209
13403
13494
13674
13710
13850
13981
14120
14282
14457
14699
14979
15313
15645
16047
16470
16859
17088
17146
16975
16822
16269
15535
14580
13632
12809
12208
11817
11614
11550
11512
11554
11594
11674
11705
11781
11841
11987
12014
12088
12074
12137
12200
12158
12118
12192
12256
12200
12210
12241
12247
12138
12052
12194
12600
12929
13083
12982
12978
12972
12892
12725
12597
12592
12642
12521
8512
10246
11118
11955
12555
13003
13229
13425
13516
13627
13711
13922
14104
14280
14438
14669
14922
15296
15604
16033
16458
16801
17069
17084
17056
16818
16411
15655
14732
13773
12823
12130
11815
11594
11544
11447
11514
11585
11680
11748
11817
11910
11998
12060
12049
12124
12113
12173
12154
12250
12198
12261
12198
12206
12189
12269
12269
12202
12110
12410
12838
13054
13142
13133
13162
12984
12837
12639
12637
12631
12634
12528
12117
13238
16331
16720
17056
17285
17351
17206
16968
16436
15540
14537
13519
12681
12021
11669
11406
11396
11370
11439
11458
11618
11691
11734
11776
11858
11873
11908
11939
11906
12003
12054
12058
11993
11982
11948
12010
12046
12214
12238
12170
12026
12268
12779
13143
13336
13210
13176
13137
12988
12794
12661
12553
12637
12576
12124
11782
14437
18895
24403
20794
9407
9368
10702
11576
12302
12940
13259
13453
13501
13721
13875
14060
14121
14321
16875
17281
17459
17633
17587
17394
16882
16188
15231
14076
13061
12228
11729
11387
11286
11218
11317
11431
11566
11622
11664
11653
11799
11821
11793
11763
11768
11806
11933
11936
11900
11902
11894
12006
11972
12021
12035
12083
12116
12187
12076
11996
12319
12821
13075
13155
13121
13094
13060
12831
12643
12514
12537
12546
12272
11715
13389
17545
23128
24257
12521
8681
10418
11116
11953
12747
13083
13263
13432
13602
13687
13876
13952
16302
16740
17113
17414
17585
17503
17485
17175
16546
15617
14552
13452
12512
11862
11509
11333
11201
11210
11248
11315
11381
11476
11548
11616
11638
11701
11660
11706
11713
11770
11746
11812
11805
11810
11875
11901
11991
12012
12072
12067
12155
12131
12104
11959
12350
12790
13110
13220
13270
13233
13191
13021
12821
12621
12552
12628
12490
11909
12655
16424
21529
25232
15491
8309
10034
10861
11837
12629
13084
13302
13485
13596
13767
13913
15792
16172
16629
16963
17386
17571
17674
17545
17320
16795
15953
14881
13804
12823
12123
11591
11349
11300
11261
11292
11352
11500
11543
11635
11691
11768
11683
11740
11779
11804
11824
11869
11849
11835
11852
11868
11945
12021
12098
12077
12107
12145
12252
12284
12248
12148
12172
12567
12954
13175
13380
13276
13219
13148
12963
12743
12586
12650
12669
12351
11757
13481
17676
23157
23899
11979
8548
10261
11098
12101
12953
13250
13407
14633
14933
15268
15567
15960
16399
16879
17414
17703
17775
17794
17697
17291
16734
15895
14836
13747
12785
12051
11550
11404
11374
11328
11390
11434
11466
11624
11665
11758
11867
11934
11932
11913
11939
12022
12050
12066
11980
11984
12142
12183
12239
12206
12255
12268
12308
12293
12351
12316
12233
12270
12781
13048
13285
13232
13275
13220
13106
12916
12577
12532
12663
12500
11928
12163
15123
19942
25203
19405
8569
9522
10487
11634
14033
14156
14212
14374
14599
14904
15276
15809
16236
16484
16970
17420
17720
17744
17671
17440
17037
16296
15415
14179
13068
12173
11678
11372
11111
11019
11095
11231
11242
11421
11451
11574
11512
11632
11612
11764
11821
11814
11682
11877
11814
11800
11827
11980
12190
12202
12129
12004
12019
12069
12111
11954
11856
12253
12619
13048
13216
13096
13087
13064
12799
12532
12456
12476
12563
12502
12107
13215
16893
21946
25054
15019
8254
10058
13840
13907
14031
14322
14353
14536
14852
15168
15557
16003
16445
16883
17380
17700
17958
17964
17897
17484
16954
16106
15152
13967
13009
12215
11726
11461
11348
11340
11383
11503
11650
11700
11710
11799
11854
11978
11997
12005
11997
12110
12094
12047
12002
12054
12099
12063
12030
12237
12287
12303
12416
12402
12212
12189
12490
12880
13293
13544
13478
13398
13395
13255
13092
12832
12842
12813
12787
12370
12900
16310
21379
25559
17285
13876
13957
14137
14327
14485
14580
14849
15065
15317
15561
15951
16378
16790
17226
17728
18119
18357
18376
18252
17976
17463
16682
15617
14446
13345
12608
12132
11718
11529
11479
11648
11740
11713
11844
12008
11984
11966
12020
12139
12056
12150
12196
12195
12190
12284
12244
12258
12194
12139
12230
12208
12398
12477
12382
12218
12432
12896
13247
13346
13323
13309
13337
13135
12912
12839
12818
12721
12499
12016
13266
17097
22401
25122
13358
13722
13961
13975
14138
14410
14478
14564
14791
15034
15419
15851
16245
16771
17296
17689
18075
18354
18314
18148
17826
17299
16457
15282
14184
13207
12479
11972
11849
11675
11575
11755
11878
11962
11992
12139
12237
12424
12467
12489
12512
12559
12620
12696
12716
12546
12558
12645
12778
12908
12855
12927
12975
12951
12900
13057
13440
13936
14192
14112
14094
14007
13872
13745
13515
13509
13569
13507
13159
13367
16457
21230
25947
14216
14348
14557
14775
14891
15077
15307
15440
15629
15869
16132
16400
16791
17242
17768
18291
18694
18864
18922
18858
18609
18085
17341
16239
15031
14151
13324
12696
12405
12341
12265
12286
12296
12352
12502
12697
12769
12804
12800
12780
12812
12834
12914
12842
12899
12924
12936
12933
12938
12948
13070
13044
13170
13292
13336
13121
13110
13681
14077
14316
14480
14567
14516
14324
14155
14131
14126
14290
14305
14238
14149
16354
20987
16311
16879
17139
17249
17362
17529
17743
17839
17887
18002
18284
18508
18642
18962
19311
19705
20050
20471
20696
20736
20668
20424
19837
19187
18075
16781
15649
14630
13952
13433
13221
13150
12986
12810
12915
13077
13180
13031
12966
13117
13097
13042
12971
12900
12821
12750
12703
12689
12713
12562
12473
12506
12443
12355
12322
12369
12185
12055
12534
12994
13237
13202
13085
12973
12724
12511
12424
12276
12176
12131
11916
11358
13147
11196
11924
12311
12427
12611
12789
12898
13153
13315
13508
13610
13821
14103
14385
14684
15021
15538
16072
16498
16776
16794
16782
16566
16212
15721
14695
13592
12448
11435
10786
10318
9981
10011
10118
10114
10271
10325
10327
10253
10353
10471
10544
10541
10678
10698
10769
10835
10834
10713
10796
10857
10831
10909
11065
11039
10865
10940
10929
10851
10988
11544
12008
12115
12147
12264
12166
11938
11798
11632
11469
11674
11656
11157
11337
10166
11245
11989
12317
12505
12666
12736
12920
13129
13285
13338
13672
14023
14251
14563
14962
15396
15823
16281
16628
16865
16987
16957
16764
16329
15509
14484
13348
12325
11409
10872
10597
10417
10489
10561
10626
10765
10890
10984
11093
11128
11257
11272
11312
11403
11443
11569
11711
11778
11810
11787
11916
11997
12016
12135
12174
12162
12454
12595
12509
12772
13305
13719
13988
14048
14004
14157
14129
14272
14275
14417
14600
14730
12161
13728
14668
15429
15970
16224
16411
16479
16618
16683
16756
16840
16915
16888
17165
17408
17753
18202
18579
18748
19195
19559
19757
19725
19629
19253
18662
17866
16731
15590
14457
13613
12988
12655
12451
12443
12301
12315
12344
12412
12422
12490
12543
12491
12505
12441
12429
12384
12379
12263
12311
12275
12275
12234
12241
12146
12191
12209
12230
12064
11863
11967
12419
12783
12981
12952
12856
12862
12664
12474
12228
12235
12222
12703
8028
9930
10608
11662
12449
12834
13042
13273
13465
13654
13814
13963
14160
14311
14544
14749
15114
15446
15904
16312
16786
17072
17290
17318
17224
16952
16503
15752
14717
13630
12537
11684
11119
10864
10695
10601
10562
10681
10763
10882
10873
10989
11043
11147
11130
11185
11181
11205
11224
11202
11227
11183
11167
11171
11255
11282
11348
11399
11420
11349
11315
11636
12103
12383
12480
12437
12343
12196
12057
11946
11825
11933
18261
7513
8826
9949
11100
11947
12411
12708
12851
13055
13192
13325
13501
13659
13845
14078
14326
14632
15082
15446
15957
16370
16853
17149
17314
17260
17165
16806
16142
15130
14038
12937
12002
11377
10970
10770
10670
10668
10725
10852
10938
11120
11189
11266
11346
11438
11446
11480
11502
11556
11574
11569
11574
11617
11626
11612
11699
11741
11840
11881
11933
11824
11822
12046
12444
12788
13069
13081
12989
12807
12671
12417
12179
12146
22476
9242
8400
10025
11282
12185
12893
13049
13167
13420
13673
13978
13952
14003
14214
14546
14669
15017
15385
15847
16132
16685
17020
17517
17672
17752
17636
17420
16843
15949
14914
13704
12685
11953
11489
11023
11040
11157
11235
11242
11359
11444
11573
11492
11447
11617
11696
11678
11745
11838
11919
11919
11844
11771
11865
12051
11958
12020
12038
12123
12053
11934
11718
12119
12672
13094
13201
13239
13180
13053
12952
12672
12470
25422
18098
7713
9517
10566
11615
12446
13056
13253
13460
13530
13731
13861
13988
14116
14277
14592
14876
15158
15526
15944
16313
16840
17226
17496
17604
17696
17413
17027
16306
15357
14231
13251
12342
11735
11361
11169
11040
10983
11119
11230
11417
11408
11438
11398
11613
11770
11825
11754
11825
11761
11712
11725
11765
11926
11938
11920
11854
12021
12116
12003
11774
12141
12684
13139
13137
13131
12982
12814
12585
12534
12407
12446
12511
8104
9025
10324
11443
12228
12760
12854
13209
13378
13635
13739
14073
14273
14461
14619
14880
14992
15468
15918
16226
16753
17195
17533
17846
17794
17637
17296
16558
15511
14348
13312
12276
11731
11465
11207
10998
11047
11107
11189
11253
11464
11689
11624
11461
11649
11840
11813
11776
11876
11890
11793
11931
11921
11862
11820
11830
11887
11943
11826
11752
12090
12512
12883
13124
13106
13010
12912
12696
12574
12321
12406
12396
12261
9189
10470
11464
12338
12946
13293
13340
13553
13791
13785
14013
14226
14379
14573
14979
15190
15451
15839
16376
16792
17287
17606
17767
17794
17596
17284
16557
15561
14510
13432
12399
11811
11310
11126
10970
11048
11145
11232
11199
11343
11373
11555
11678
11745
11750
11753
11799
11845
11813
11757
11796
11780
11830
11831
11893
11876
11966
11859
11791
12001
12536
12860
13057
12947
12885
12847
12675
12489
12371
12353
12440
12424
11886
10137
11256
12121
12816
13201
13360
13515
13650
13826
14011
14228
14417
14595
14795
15121
15439
15812
16281
16797
17392
17627
17948
17933
17746
17400
16862
15889
14659
13564
12655
11905
11438
11167
11174
11114
11115
11279
11266
11358
11491
11511
11598
11726
11663
11738
11812
11929
11867
11773
11757
11764
11831
11965
11878
11922
12079
11882
11813
11856
12279
12691
13054
13041
13130
13071
12858
12791
12488
12332
12399
12407
12020
11989
14694
11958
12703
13021
13134
13426
13531
13756
13997
14218
14316
14526
14771
15117
15411
15707
16150
16619
17148
17508
17892
17839
17745
17586
17241
16338
15224
14023
13020
12143
11562
11256
11192
11117
11172
11206
11245
11417
11467
11552
11586
11740
11649
11785
11939
11972
11897
11976
11907
12000
11903
11906
11977
12050
12228
12228
12093
11965
12414
12887
13143
13249
13281
13143
13050
13022
12847
12561
12668
12600
12352
12013
13716
18144
12320
12861
13142
13354
13456
13698
14013
14180
14246
14503
14729
14997
15171
15603
16038
16513
16894
17330
17649
17762
17778
17621
17170
16483
15484
14327
13325
12356
11717
11179
11083
11051
11064
11127
11150
11166
11368
11456
11582
11610
11696
11778
11835
11919
11797
11837
11890
11986
12001
12017
11934
12027
12088
12134
11879
11926
12447
12972
13265
13269
13223
13192
13000
12885
12800
12591
12628
12703
12397
12190
14884
19553
25151
13239
13435
13645
13872
14011
14211
14273
14425
14649
14940
15233
15506
15880
16336
16857
17285
17647
17788
17967
17779
17587
17232
16457
15205
14122
13186
12285
11684
11362
11222
11185
11226
11291
11439
11521
11634
11656
11768
11756
11744
11696
11896
11971
11947
11931
11967
12064
12036
12079
12043
12023
11989
11908
11883
12352
12796
13172
13214
13198
13172
13077
12810
12578
12472
12472
12591
12363
11958
13858
18365
24112
24111
10731
13459
13416
13537
13809
14126
14243
14424
14580
14778
15136
15606
16007
16490
16895
17358
17732
17879
17757
17468
17188
16468
15413
14222
13198
12299
11693
11245
11116
10951
10983
11221
11195
11253
11424
11531
11604
11674
11643
11758
11734
11823
11924
11888
11824
11983
11893
12013
11896
11842
11829
12031
12463
12958
13146
13019
13057
12893
12750
12487
12383
12336
12380
12028
11747
13493
18015
23650
24763
11745
8177
10121
11091
12098
13973
14234
14392
14679
14858
15162
15528
16094
16460
16882
17293
17714
17875
17881
17618
17204
16428
15557
14369
13228
12342
11727
11368
11108
11106
11165
11265
11270
11410
11596
11628
11609
11788
11841
11898
11927
11858
11822
11879
11928
11900
11942
11958
12008
11839
11905
12210
12707
13013
13153
13089
13040
12797
12740
12578
12403
12420
12308
12050
11847
13942
18451
24384
23880
10375
8445
10263
11153
12059
12685
13069
13334
13469
13618
15231
15577
15979
16413
16830
17229
17551
17806
17747
17483
16964
16324
15259
14128
13003
12096
11569
11309
11118
10984
11029
11061
11144
11327
11423
11523
11649
11657
11858
11813
11839
11879
11793
11814
11804
11753
11857
11862
12028
11902
11748
11935
12458
12784
12949
13023
12868
12832
12658
12494
12315
12335
12325
12169
11664
12572
16500
21973
25931
16691
7833
9773
10566
11617
12329
12803
13086
13296
13503
13591
13769
13808
14178
16666
17086
17366
17521
17441
17375
17073
16458
15514
14537
13442
12393
11768
11241
11080
11041
10977
10950
11124
11219
11351
11363
11485
11626
11618
11701
11793
11761
11742
11838
11838
11865
11792
12033
11890
11810
11780
12182
12535
12932
12956
13015
12870
12655
12518
12391
12238
12259
12226
11916
11857
14505
19388
24822
21831
8893
8857
10350
11398
12223
12880
13064
13303
13550
13685
13839
13965
14062
14221
14613
14906
15204
15522
17492
17158
16721
15889
14932
13765
12670
11885
11592
11346
11278
11119
11172
11257
11328
11386
11517
11610
11706
11801
11794
11850
11870
11976
11914
11880
11933
12017
11918
11998
11937
11808
12209
12741
13064
12938
12945
13000
12904
12647
12493
12300
12286
12303
12042
11645
13965
18623
24374
23213
9941
8793
10443
11351
11976
12665
13065
13263
13353
13513
13607
13895
14045
14150
14397
14714
14966
15355
15867
16239
16633
17065
17404
17571
12872
12001
11488
11222
11135
11081
11020
11081
11312
11310
11428
11543
11602
11630
11800
11804
11704
11863
11902
11833
11776
11809
11923
12014
11854
11789
11968
12458
12892
13055
12894
12973
12969
12696
12460
12291
12252
12310
12232
11777
12503
16203
21724
25798
15902
7866
9751
10748
11787
12554
12891
13050
13325
13523
13583
13772
13962
14180
14264
14633
14858
15115
15530
16062
16495
16983
17220
17417
17524
17615
17372
16873
16089
11069
11030
11024
11092
11296
11360
11430
11511
11637
11714
11655
11666
11660
11710
11855
11841
11707
11878
11895
11727
11703
11922
12342
12774
13043
12989
13009
12904
12676
12484
12366
12278
12376
12204
11679
12488
16337
21652
25717
15785
7733
9729
10668
11860
12702
13005
13111
13385
13374
13670
13838
13953
14063
14474
14671
14920
15274
15794
16067
16398
16959
17385
17651
17759
17602
17277
16774
15908
15020
13868
12814
11902
11514
11274
