12747
12351
12296
12333
12301
11973
12140
14911
19361
24536
20843
8440
8590
10076
11264
12209
12773
13111
13346
13489
13679
13719
13872
14185
14340
14495
14750
15092
15343
15768
16169
16738
17098
17192
17435
17613
17454
17015
16274
15351
14323
13347
12521
11835
11336
11145
11248
11257
11183
11122
11276
11428
11638
11615
11621
11718
11803
11840
11902
11869
11790
11816
11890
11916
11822
11839
11944
12265
12531
12909
13001
12900
12853
12641
12320
12269
12402
12413
12150
11664
13210
17213
22607
25036
13479
7836
9643
10729
11783
12555
12917
13187
13376
13572
13846
13872
14035
14189
14536
14847
15052
15241
15564
16024
16432
16948
17397
17556
17490
17275
17045
16774
15992
14975
13873
12857
12064
11418
11319
11272
11076
11029
11184
11417
11405
11426
11531
11550
11753
11791
11758
11864
11922
11835
11782
11798
11902
11842
11969
11767
11693
12074
12442
12854
13131
12991
12863
12863
12651
12429
12213
12379
12356
12054
11838
13795
17990
23637
24535
11435
7873
9643
10925
12012
12786
12978
13103
13385
13631
13689
13819
14098
14276
14431
14625
14953
15207
15409
16016
16605
17002
17314
17441
17478
17423
17183
16628
15896
14865
13740
12727
11832
11511
11284
11179
11074
11081
11172
11358
11545
11576
11484
11610
11777
11826
11783
11908
11871
11769
11900
11885
11865
12022
11978
12077
12036
11990
11950
12271
12670
12994
13161
13138
13046
12905
12690
12495
12495
12545
12616
12340
11999
13805
18071
23744
24492
11377
7654
9704
11013
12200
12955
13146
13308
13454
13554
13787
14066
14261
14293
14444
14765
15006
15304
15725
16081
16534
16861
17274
17544
17643
17528
17274
16763
15968
14951
13976
13063
12186
11603
11292
11197
11032
11202
11288
11408
11482
11563
11565
11664
11813
11953
11888
11817
11912
11871
11785
11892
11856
11940
11999
12000
11969
11873
11929
12327
12723
13033
13171
13059
13081
12888
12704
12671
12582
12620
12669
12300
12113
14059
18405
24038
24136
10757
7960
9919
11218
12206
12861
13137
13234
13416
13666
13850
13890
14076
14336
14494
14766
15169
15490
15858
16319
16637
17072
17512
17711
17682
17602
17299
16713
15893
15079
14032
12914
12069
11580
11342
11187
11018
11068
11178
11380
11493
11575
11629
11601
11711
11760
11925
11947
11933
11943
11953
11920
11916
11961
12047
12134
11987
11886
12163
12525
12855
13094
13019
12932
12917
12903
12751
12556
12428
12428
12306
11980
13168
17287
22634
25147
13754
7256
9483
10492
11640
12660
13092
13234
13344
13496
13711
14003
14133
14244
14436
14712
15103
15268
15642
16093
16473
16908
17375
17556
17543
17428
17261
16850
16091
14999
13872
13019
12202
11665
11329
11179
10970
10974
11121
11343
11430
11354
11421
11688
11812
11762
11861
11962
11890
11833
11766
11837
11898
11912
12008
12039
11904
11982
12424
12790
13012
12883
12969
12927
12598
12463
12443
12387
12409
12380
12101
12482
15521
20395
25488
19269
7853
8886
10205
11448
12380
12977
13287
13486
13491
13656
13867
13999
14020
14226
14579
14937
15104
15448
15926
16322
16736
17098
17403
17546
17495
17283
16913
16219
15360
14448
13288
12318
11604
11325
11142
11034
11054
11112
11177
11359
11422
11486
11666
11780
11738
11734
11733
11876
11847
11875
11798
11885
11949
11881
11954
11971
11790
12102
12499
12935
13197
13057
13040
12955
12827
12571
12320
12260
12387
12340
12031
12767
16378
21580
25854
16317
7651
9479
10570
11778
12495
13158
13390
13470
13573
13854
13944
14149
14310
14634
14864
15039
15096
15520
16079
16466
16911
17236
17350
17408
17642
17549
17000
16018
15172
14294
13231
12347
11624
11334
11202
11105
11051
11097
11345
11427
11394
11566
11679
11728
11707
11777
11776
11735
11668
11833
11921
11877
11868
11903
11977
12081
11973
11819
11903
12379
12920
13128
13035
12989
12995
12871
12698
12510
12485
12460
12341
11899
12683
16051
21251
25809
17271
7474
9196
10397
11738
12601
13092
13256
13336
13579
13792
14006
14217
14335
14496
14670
15074
15299
15739
16085
16511
16945
17261
17436
17574
17690
17536
17020
16311
15517
14486
13329
12440
11744
11370
11147
11081
10909
10991
11256
11368
11466
11589
11713
11694
11720
11875
11880
11856
11851
11885
11936
11795
11944
11964
11998
11951
12060
11910
11869
11964
12623
12983
13219
13194
13192
13040
12809
12674
12411
12438
12538
12481
12079
12816
16163
21334
25784
17651
7277
8915
10232
11625
12372
12998
13262
13659
13800
13793
13912
14132
14259
14243
14537
14852
15322
15668
16114
16578
17054
17445
17684
17667
17500
17334
17058
16519
15563
14506
13320
12521
11911
11501
11240
11248
11168
11116
11302
11608
11548
11678
11711
11853
11774
11736
11606
11645
11743
11641
11835
11984
12095
12177
12098
11834
11810
11956
12350
12502
12963
13034
12975
12784
12659
12619
12346
12167
12295
12294
11992
12074
14285
19033
24298
22342
9356
8048
9736
10886
12010
12828
13113
13310
13397
13480
13671
13862
14045
14265
14542
14695
15103
15372
15886
16164
16733
17067
17562
17631
17573
17470
17132
16674
15859
14786
13640
12649
11877
11377
11104
10981
10890
11095
11273
11379
11429
11493
11593
11572
11545
11808
11816
11814
11748
11777
11760
11916
11856
11674
11608
11755
12229
12682
12861
12928
12908
12621
12383
12196
12118
12123
12190
12192
11952
12463
15402
20060
24777
19966
8028
8393
9919
11085
12197
12955
13279
13400
13457
13559
13753
13969
14178
14448
14677
14990
15127
15491
15877
16363
16738
17340
17752
17870
17688
17494
17188
16414
15633
14574
13644
12598
11830
11376
11202
11051
11076
11021
11204
11430
11426
11575
11751
11768
11823
11824
11796
11920
11890
11916
11865
11912
11763
11487
11778
12263
12428
12928
13008
12920
12761
12668
12467
12309
12198
12082
12148
12121
11871
14138
18657
23978
23806
10945
7622
9467
10576
11910
12731
12966
13361
13558
13715
13760
13982
14162
14245
14561
14751
15036
15244
15686
16046
16645
17184
17497
17567
17694
17523
17315
16724
15830
14799
13740
12645
11899
11547
11317
11227
11152
11222
11268
11358
11332
11528
11580
11706
11723
11775
11780
11967
11895
11961
12035
11940
12008
11840
11788
11861
12161
12539
12755
12996
12961
12884
12813
12575
12359
12241
12346
12311
12151
11859
13086
17109
22502
25317
14362
7024
8909
10105
11648
12554
12836
13136
13287
13586
13768
13919
13981
14102
14349
14577
14876
15244
15627
16008
16470
16968
17352
17633
17719
17548
17362
16798
16122
15154
14069
12880
12051
11567
11293
11195
11115
11077
11146
11340
11353
11426
11586
11653
11617
11746
11917
11940
11860
11908
11820
11833
11826
11765
11787
11844
12084
12465
12786
12933
12931
12901
12830
12505
12421
12205
12242
12290
12267
11842
12526
15927
20997
25647
18297
7562
8739
10043
11551
12342
12812
13115
13339
13510
13773
13889
13856
13921
14310
14631
14851
15156
15514
16071
16528
16904
17369
17669
17715
17713
17699
17298
16510
15355
14230
13203
12330
11631
11361
11043
11016
11067
11216
11317
11355
11440
11550
11599
11586
11539
11824
11930
11684
11787
11889
11947
11927
11880
11858
11874
11922
12327
12693
12829
12816
12816
12613
12526
12438
12261
12190
12216
12257
11834
12387
15929
21013
25458
17747
7609
9029
9933
11263
12234
12786
12985
13149
13308
13588
13722
14034
14109
14319
14515
14698
15121
15604
15891
16104
16912
17513
17624
17686
17638
17245
16856
16075
15169
14075
12966
12094
11479
11175
10995
10973
10866
11007
11163
11303
11193
11411
11584
11587
11511
11703
11788
11883
11808
11826
11823
11800
11720
12001
11897
12049
12411
12726
12892
12898
12823
12719
12481
12414
12343
12249
12205
12111
11823
12392
15744
20708
25538
18437
7965
9155
10233
11334
12403
12993
13212
13329
13582
13711
13860
14045
14255
14363
14547
14748
15142
15627
15918
16331
16879
17244
17602
17607
17701
17459
16994
16237
15237
14010
12979
12138
11770
11375
11238
11216
11225
11368
11455
11472
11567
11666
11807
11901
11873
11860
11921
11863
11873
11940
11969
12014
11968
11994
12120
12055
11852
11883
12327
12794
13046
13114
13000
12989
12751
12806
12710
12597
12481
12564
12301
11908
14140
18734
24603
23239
10395
8629
10033
11098
12223
12798
13135
13409
13470
13605
13899
13969
14120
14481
14670
14761
15145
15391
15759
16105
16754
17223
17359
17675
17975
17859
17420
16656
15826
14760
13540
12255
11755
11342
11004
11121
11246
11134
11286
11473
11449
11388
11499
11697
11737
11826
11872
11787
11851
11872
11906
11917
11782
11803
12066
12020
12091
12071
12091
12128
12231
12339
12246
12015
12116
12666
13035
13124
13143
13100
13196
13126
12868
12710
12693
12669
12607
12148
11827
14115
18585
24330
23806
11070
8489
9902
11032
12161
12929
13158
13401
13637
13661
13773
13965
14152
14363
14392
14613
15090
15290
15710
16105
16612
17227
17673
17805
17795
17669
17310
16631
15689
14698
13666
12665
11863
11331
11251
11203
11174
11209
11180
11104
11346
11589
11620
11547
11561
11774
11838
11759
11826
11843
11841
11862
11771
11835
12010
12102
12043
12030
12094
12070
12275
12342
12312
12236
12183
12341
12620
12565
12421
12373
12912
13330
13437
13267
13203
13434
13349
13045
12796
12659
12845
12994
12693
12120
13242
17078
22700
25680
15236
7968
9655
10988
12315
12912
13305
13426
13572
13814
14022
14149
14138
14255
14635
14905
15251
15372
15729
16136
16758
17260
17599
17728
17739
17934
17709
17173
16364
15369
14206
13182
12359
11772
11307
11074
11096
11181
11256
11297
11277
11340
11506
11681
11565
11714
11762
11746
11792
11826
11838
11819
11732
11688
11717
11862
12003
12020
12073
12128
12185
12237
12263
12212
12184
12110
12231
12347
12719
13089
13280
13338
13414
13308
13158
12916
12698
12702
12658
12766
12427
12066
14383
18971
24827
23707
10841
8536
10006
11362
12529
13090
13428
13527
13719
14005
14055
14064
14216
14359
14578
14658
15130
15549
15853
16299
16784
17334
17720
17966
17960
17878
17629
17076
16238
15267
14133
13083
12296
11681
11228
11171
11146
11063
11089
11155
11300
11352
11392
11406
11602
11691
11658
11684
11770
11806
11759
11649
11743
11826
11910
11931
11960
11993
12028
12093
12138
12117
11952
11838
12176
12826
13183
13245
13263
13127
12891
12768
12617
12453
12443
12423
12225
12018
14570
19304
24659
22021
9236
8390
10025
11108
12231
12863
12968
13301
13544
13664
13975
14078
14162
14329
14591
14795
14961
15280
15692
16314
16883
17234
17671
17926
17990
17778
17449
16888
16143
14921
13653
12830
12094
11437
11184
11028
10969
11079
11113
11048
11175
11380
11527
11565
11505
11720
11848
11713
11744
11776
11749
11923
11986
12043
11907
11844
11951
12105
12106
11981
11838
12345
13025
13076
13266
13236
13045
12948
12974
12709
12445
12472
12641
12299
11900
14002
18330
24160
23584
10660
8135
9820
11027
12241
12914
13077
13392
13694
13731
13749
13964
14206
14439
14625
14791
14886
15483
15930
16412
16562
17111
17717
17985
18015
17775
17521
17093
16210
15017
13882
12776
12029
11517
11095
11135
11052
11017
11060
11251
11412
11406
11445
11419
11567
11799
11865
11799
11710
11891
11961
11845
11721
11898
11924
11915
12008
12104
11946
11977
12517
12908
13038
13030
12924
12946
12749
12693
12624
12516
12529
12547
12167
12067
14362
18853
24599
22232
9351
8360
9875
11222
12340
13004
13293
13407
13505
13621
13779
13950
14160
14340
14528
14686
14997
15428
15826
16314
16756
17068
17557
17851
17861
17710
17572
17042
16150
14990
13753
12721
11902
11309
11098
11038
10976
11124
11378
11323
11393
11313
11368
11571
11558
11659
11801
11681
11728
11754
11956
11807
11787
11958
11910
11863
11808
12054
12463
12729
12888
13097
13036
12908
12610
12459
12216
12403
12476
12370
11941
12445
15953
20961
25549
17684
7664
9146
10265
11612
12564
13002
13252
13417
13663
13663
13920
14049
14298
14387
14605
14848
15241
15601
16003
16600
17038
17315
17616
17960
17874
17624
17216
16642
15543
14427
13283
12326
11646
11246
11210
11234
11142
11122
11252
11367
11418
11439
11527
11431
11694
11803
11854
11721
11776
11762
11879
11677
11728
11961
12167
12402
12711
12855
12887
12826
12824
12618
12405
12195
12016
12354
12291
11943
12239
15531
20502
25593
18886
7795
8817
10052
11495
12393
12755
12854
13212
13552
13569
13664
13905
14026
14245
14434
14674
14980
15357
15715
16348
16795
17151
17449
17610
17549
17279
16910
16335
15449
14274
13146
12043
11524
11258
10921
10858
10919
11000
11065
11034
11261
11409
11520
11433
11559
11566
11604
11470
11612
11907
11734
11472
11629
12059
12219
12548
12829
12791
12564
12517
12330
12323
11944
12055
12120
11920
11629
12632
16382
21827
25009
14439
7368
9173
10441
11678
12495
12870
13040
13042
13324
13633
13696
13841
14034
14180
14397
14667
15153
15475
15800
16394
16901
17234
17397
17501
17298
16924
16648
16032
14887
13999
12934
12084
11515
11454
11291
11025
11001
11129
11418
11491
11465
11619
11642
11659
11720
11826
11851
11720
11876
12069
11876
11679
11837
12130
12557
12826
12957
12824
12881
12735
12531
12295
12251
12278
12164
11911
11798
14062
18281
24034
22989
10070
7968
9861
11283
12047
12687
13039
13332
13526
13658
13750
13895
13970
14146
14321
14691
15011
15530
15834
16294
16590
16937
17149
17485
17477
17307
17054
16576
15815
14751
13666
12587
11768
11457
11530
11265
11157
11208
11479
11636
11686
11599
11719
11908
11872
11941
11834
11788
11856
12012
11896
11814
11750
11633
11821
12308
12782
13033
12977
12837
12677
12489
12358
12302
12116
12326
12341
11904
12377
15519
20518
25483
19349
7689
8649
10035
11411
12251
12921
13175
13259
13507
13718
13797
13753
13987
14237
14401
14653
14986
15323
15786
16151
16610
17036
17200
17310
17389
17106
16673
16068
15283
14172
13150
12273
11657
11322
11113
10954
10886
10999
11306
11395
11406
11442
11436
11644
11794
11701
11649
11689
11661
11834
11628
11538
11599
11870
12186
12540
12676
12757
12746
12618
12385
12123
12053
12064
12198
12160
11758
12423
16019
21065
24988
16669
7488
9342
10133
11225
12238
12791
12871
13014
13338
13528
13563
13811
14050
14231
14438
14695
14995
15343
15784
16261
16572
16952
17184
17202
17136
16872
16355
15723
14956
13762
12588
12014
11563
11137
11027
10960
11082
11042
11158
11463
11493
11535
11650
11669
11715
11856
11886
11822
11969
11985
11899
11861
11959
12004
12231
12605
12836
12985
12958
12873
12531
12284
12143
12345
12320
12412
11966
11712
13993
18524
23869
22933
9984
8159
9956
10887
11818
12743
13078
13240
13270
13450
13881
13956
14105
14229
14547
14708
14986
15195
15589
16061
16675
17012
17130
17215
17345
17104
16863
16279
15377
14335
13333
12547
11910
11514
11192
11107
11003
11157
11287
11393
11531
11601
11618
11616
11753
11821
11879
11862
11874
11924
11814
11832
12002
11982
12012
11944
11789
12165
12639
12904
13017
13112
12966
12764
12739
12663
12481
12544
12455
12365
11819
12696
16543
21780
25585
15820
7591
9298
10408
11883
12676
13066
13154
13236
13500
13677
13798
13958
14191
14485
14722
15083
15344
15616
16039
16489
16844
17325
17485
17634
17434
17256
16899
16090
15134
14244
13131
12314
11755
11500
11222
11275
11395
11404
11399
11663
11660
11731
11748
11791
11818
11945
11829
11928
12144
11965
11941
11966
11995
11986
11952
12271
12436
12077
12098
12435
12788
13085
13263
13091
13142
13057
12991
12710
12566
12653
12659
12440
12021
13490
17532
23111
25118
12964
7775
9701
10908
12119
12958
13375
13482
13581
13707
13869
14036
14242
14313
14384
14742
15109
15444
15912
16301
16659
17097
17445
17519
17584
17632
17380
16896
16170
15232
14342
13273
12450
11758
11328
11238
11253
11371
11444
11481
11535
11513
11831
11970
11920
11875
11889
11924
12049
12109
12066
11919
11978
12173
12132
12105
12189
12217
12148
12456
12293
12096
12281
12822
13141
13438
13361
13238
13227
13013
13023
12803
12495
12634
12808
12312
12637
15866
20859
25874
19200
8001
9076
10513
12021
12828
13355
13582
13645
13726
13994
14168
14238
14455
14732
14917
15131
15540
15754
16206
16564
17011
17405
17743
17707
17724
17529
17346
16704
15728
14670
13649
12682
11958
11514
11254
11206
11200
11253
11337
11421
11645
11796
11843
11847
11774
11648
11636
11773
11886
11908
11892
11792
11834
11997
12054
12010
12043
12043
11995
11885
12089
12437
12851
13082
13086
13066
13191
12890
12750
12493
12425
12483
12373
11931
12530
16184
21298
25657
17340
7568
9232
10375
11619
12517
13002
13245
13368
13661
13771
13952
14060
13995
14362
14833
15031
15246
15511
16068
16575
16910
17341
17401
17530
17646
17477
16932
16429
15468
14317
13186
12311
11647
11414
11094
11072
11063
11319
11444
11483
11517
11710
11710
11716
11789
11801
11835
11828
11926
11898
11928
11949
11839
11775
11873
11970
11890
11777
12060
12594
12927
13146
13073
13002
12883
12483
12566
12534
12407
12319
12249
12101
12887
16277
21258
25365
16347
7537
9364
10319
11548
12614
13153
13384
13523
13715
13791
13993
14135
14304
14498
14621
14852
15170
15624
16106
16614
17094
17481
17743
17745
17566
17430
17001
16155
15197
13983
13064
11845
11486
11322
11228
10937
11048
11182
11274
11310
11391
11530
11717
11749
11886
11827
11886
11886
11852
11949
12007
11911
11863
11967
12012
12137
12171
12019
11796
12220
12791
13128
13207
13155
12988
12913
12872
12638
12353
12490
12555
12261
11822
13603
18002
23691
24382
11594
8157
9685
10921
12245
12955
13201
13437
13571
13720
13925
14061
14062
14217
14502
14757
15108
15419
15782
16126
16636
16980
17301
17692
17799
17630
17349
16568
15692
14522
13354
12593
11897
11335
11063
11006
11105
11101
11195
11316
11492
11499
11404
11586
11770
11882
11768
11759
11894
11917
11977
11844
11872
12004
11973
11953
12028
12033
12155
12208
12201
12149
12018
12264
12839
13077
13155
13117
13310
13199
12864
12684
12650
12655
12568
12446
12150
12999
16608
22054
25742
15565
7531
9307
10632
12069
12865
13172
13308
13446
13647
13744
13877
14107
14277
14347
14631
14956
15304
15579
16192
16664
17043
17462
17638
17576
17537
17416
16919
16196
15137
14071
13021
12303
11727
11335
11081
11066
11164
11266
11412
11432
11571
11592
11743
11740
11805
11791
11805
11886
11839
11841
11911
11945
11897
11831
12005
12135
12123
12142
12127
12156
12338
12248
12109
12038
12536
13012
13337
13259
13301
13323
13019
12704
12789
12700
12759
12623
12196
12305
14944
19573
25228
21545
8660
8523
10055
11466
12557
13052
13197
13365
13689
13959
14075
14138
14201
14346
14730
15042
15376
15616
16076
16463
17042
17415
17612
17790
17723
17376
17096
16578
15694
14574
13434
12564
11913
11432
11180
11112
11092
11110
11186
11233
11316
11412
11590
11812
11828
11704
11659
11903
11879
12012
12010
11958
11790
11999
11983
11812
12098
12038
11897
11877
12216
12613
12999
12983
13084
13043
12919
12821
12785
12487
12327
12413
12260
11996
13654
18021
23429
24370
12038
7545
9511
10676
12134
13058
13239
13430
13624
13652
13816
14038
14320
14634
14677
14680
15056
15595
16065
16401
16850
17209
17509
17811
17869
17639
17360
16532
15656
14786
13581
12482
11865
11438
11205
10970
10918
10921
10921
11177
11395
11417
11486
11554
11606
11693
11707
11770
11819
11889
11832
11760
11823
11993
12003
11958
11827
11686
11866
12255
12662
12813
13017
12875
12866
12827
12639
12329
12326
12402
12394
12089
12038
13973
18325
23837
23696
10889
8881
10128
11292
12368
13082
13255
13461
13499
13597
13885
14174
14255
14292
14538
14810
15131
15350
15815
16375
16961
17309
17408
17517
17655
17642
17226
16581
15568
14489
13344
12401
11686
11322
11057
11117
11079
11193
11143
11329
11387
11429
11667
11702
11673
11635
11562
11745
11889
11766
11711
11884
12067
12044
12083
11935
11853
11947
12174
12511
12933
13118
13132
13131
13020
12846
12520
12264
12240
12518
12460
12058
12845
16575
21910
24019
10994
8061
9691
10932
12170
12795
13136
13415
13628
13670
13802
13890
14100
14230
14445
14722
15063
15341
15834
16200
16789
17223
17545
17831
17869
17632
17390
17023
16101
15084
13794
12859
12060
11581
11152
11059
10903
11020
11051
11182
11507
11595
11584
11796
11785
11660
11907
11967
11844
11873
11992
11880
11806
11686
11960
11925
11966
11957
12343
12707
12923
13159
13034
12935
12729
12562
12403
12556
12365
12484
12409
11929
14610
19411
25030
22088
8976
8403
10035
11480
12416
13070
13256
13390
13519
13597
13672
13760
14090
14480
14749
14909
15174
15495
15876
16341
16783
17039
17416
17647
17640
17634
17442
16800
15837
14687
13553
12545
11759
11294
11094
10922
10814
10915
11197
11231
11239
11544
11514
11708
11725
11679
11839
11793
11707
11801
11901
11882
11884
11832
11845
11969
11990
11857
11988
11878
12069
12427
12903
13226
13153
13053
13028
12802
12733
12520
12476
12384
12144
12026
13481
17549
23076
25109
13160
7670
9537
10856
12035
12826
13115
13396
13510
13575
13675
13886
14138
14391
14477
14623
14987
15225
15622
16077
16598
17058
17390
17500
17598
17577
17363
16819
16280
15348
14249
13138
12252
11544
11212
11057
10958
10988
11019
11077
11185
11440
11473
11624
11679
11658
11753
11823
11668
11731
11802
11851
11939
11969
11847
11855
11916
12012
12050
11956
12114
12410
12840
13160
13066
13061
12896
12699
12488
12312
12376
12486
12263
11976
13649
17880
23413
24436
12180
7816
9778
10766
11961
12767
13148
13330
13511
13900
13890
14049
14163
14329
14497
14669
15009
15424
15864
16119
16569
17038
17516
17748
17786
17674
17394
16772
16032
15088
14044
12826
11909
11385
11032
11044
11028
11062
11171
11232
11307
11332
11458
11599
11682
11654
11698
11865
11918
11950
11941
11910
11907
11949
11914
12006
11945
11938
11901
12142
12791
13071
13021
12918
12911
12788
12604
12439
12314
12453
12601
12177
12044
14678
19176
24845
21760
9051
8574
9918
11320
12337
12964
13083
13407
13550
13697
13740
13901
14096
14372
14643
14800
15071
15450
15743
16206
16882
17323
17641
17851
17878
17807
17438
16649
15719
14767
13563
12502
11740
11292
11188
11123
11140
11121
11055
11316
11346
11516
11651
11639
11595
11817
11903
11861
11848
11862
11931
11959
11860
11965
11989
12015
12042
12037
12115
12087
12117
12419
12991
13276
13289
13129
13179
13156
12966
12710
12566
12653
12681
12301
12145
14474
18901
24856
22934
9832
8348
9843
11163
12331
13013
13307
13315
13563
13886
14015
14007
14165
14361
14492
14763
15078
15451
15812
16243
16709
17222
17685
17835
17956
17748
17460
17042
15999
14938
13880
12906
12031
11490
11305
11099
11057
11019
11048
11093
11372
11537
11573
11664
11711
11740
11719
11723
11860
11877
11850
11793
11848
11932
11977
11963
11925
11914
12005
12161
12195
12208
12281
12291
12162
12312
12585
13048
13271
13285
13285
13183
13061
13057
12817
12577
12625
12665
12243
12009
14424
19004
24906
22726
9721
8231
10054
11439
12371
12956
13318
13467
13648
13861
13974
13995
14203
14474
14672
14775
14922
15393
15842
16247
16559
17027
17528
17843
17809
17707
17523
17100
16271
15377
14214
13189
12302
11520
11437
11265
11180
11163
11209
11236
11419
11559
11679
11673
11613
11683
11716
11962
11988
11946
11857
11867
11807
11927
12065
12051
11833
11881
12045
12204
12097
12020
12246
12362
12215
12034
12521
13001
13052
13108
13184
13159
13002
12893
12874
12709
12619
12600
12434
12168
13637
17643
23232
24852
13150
7639
9539
10785
12162
12978
13235
13388
13576
13776
13922
14035
14140
14233
14463
14807
15031
15364
15617
16077
16572
17071
17599
17860
17902
17763
17658
17304
16639
15536
13915
12915
12028
11430
11202
11208
11038
10915
11054
11184
11228
11428
11390
11597
11756
11688
11685
11733
11817
11896
11856
11804
11881
11875
11837
11875
11887
11854
11915
12087
12150
12034
12155
12506
12904
13098
13075
13073
13008
12810
12632
12467
12576
12606
12510
12149
12475
15438
20232
25366
19757
8210
8911
10076
11432
12471
13074
13323
13526
13594
13742
13896
14046
14121
14434
14798
14845
15078
15750
16091
16498
16983
17336
17630
17902
17942
17682
17287
16466
15443
14302
13149
12218
11619
11154
10986
11023
11007
11049
11120
11274
11374
11441
11581
11567
11824
11773
11691
11867
11811
11941
11918
11891
11876
11868
11891
11987
12021
12084
12053
12009
12076
12397
12831
13201
13195
13154
13236
13005
12826
12719
12505
12545
12586
12272
11940
13445
17545
23486
24725
12432
7891
9641
10841
12186
12936
13251
13294
13573
13753
13805
14019
14217
14269
14455
14844
15201
17162
17507
17692
17705
17804
17683
17152
16245
15174
14025
13016
12157
11517
11120
10964
11082
11096
11025
11140
11245
11372
11563
11557
11616
11728
11718
11732
11739
11797
11885
11891
11833
11736
11746
11974
11956
11942
11940
12195
12152
12047
12238
12752
12987
13204
13268
13157
12999
12868
12828
12585
12585
12612
12633
12229
12369
15415
20411
25655
19323
7956
8771
10225
11714
12655
13008
13234
13440
13444
13809
13960
14111
14243
14294
14715
14971
15205
15575
15989
16402
16946
17435
17801
17933
17798
17594
17350
16564
15472
14425
13337
12241
11714
11436
11215
11127
11016
11008
11225
11298
11313
11296
11323
11594
11681
11662
11605
11574
11645
11777
11826
11821
11843
11824
11783
11956
11999
12033
12116
12092
11917
12104
12650
13152
13284
13050
13069
13165
12857
12712
12559
12502
12528
12473
12144
12300
15156
20202
25565
20095
7930
8567
10199
11566
12437
13005
13302
13499
13690
13923
14100
14167
14303
14438
14628
15067
15404
15642
15915
16529
17061
17484
17648
17801
17838
17692
17330
16614
15734
14562
13467
12554
11733
11364
11129
11101
11068
11016
11057
11303
11418
11425
11479
11514
11818
11825
11803
11769
11701
11728
11839
11772
11740
11910
12046
12053
12003
11882
11817
11857
12359
12811
12819
12907
13023
13050
12845
12530
12455
12457
12496
12427
12038
12049
14034
18307
23820
23478
10707
7991
10150
11332
12279
12868
13289
13418
13473
13737
13975
14144
14247
14295
14447
14761
15176
15468
15860
16411
16819
17347
17716
17691
17642
17598
17298
16766
15591
14675
13770
12611
11868
11324
11205
11070
10926
10864
11047
11393
11493
11457
11507
11679
11814
11785
11651
11786
11982
11819
11922
11922
12002
11841
11797
12075
12073
11979
11812
12148
12658
13099
13024
12904
12879
12730
12665
12451
12337
12398
12426
12229
11826
12942
16800
22385
22826
9723
8287
9799
11101
12328
12846
13021
13328
13501
13651
13797
13831
14019
14324
14467
14699
15103
15433
15831
16138
16612
17051
17334
17747
17726
17572
17263
16893
16027
14852
13681
12628
11895
11368
10969
10943
10957
11171
11125
11149
11139
11301
11279
11411
11569
11646
11783
11709
11739
11702
11787
11797
11827
11815
11895
12194
12120
12079
11855
12105
12569
12956
13077
13055
13066
13069
12834
12621
12451
12459
12517
12334
12076
13241
17080
22672
24994
13539
7528
9442
10711
12035
12769
13122
13344
13475
13693
13858
13885
14047
14345
14569
14736
14967
15193
15605
16181
16543
16903
17358
17626
17795
17795
17554
17025
16152
15285
14328
13299
12443
11692
11289
11253
11211
11085
11114
11294
11500
11481
11689
11694
11655
11800
11876
11962
11882
11761
11818
11972
11902
11928
11913
12105
12097
12218
12169
11993
11990
12233
12501
12956
13191
13238
13338
13233
13022
12849
12654
12506
12532
12404
12097
13188
17039
22522
25253
14073
7391
9346
10768
12058
12774
13146
13435
13558
13621
13630
13910
14156
14421
14590
14629
14979
15338
15774
16058
16293
16974
17611
17805
17912
17721
17556
17142
16448
15540
14334
13247
12432
11936
11482
11275
11050
11052
11163
11238
11171
11454
11659
11651
11609
11647
11784
11825
11743
11713
11742
11809
11912
11883
11871
11812
11997
11908
11802
11999
12432
12853
13186
13009
12791
12619
12487
12464
12258
12282
12373
12243
11974
13617
17670
23154
24134
11750
7503
9720
10626
11798
12432
12982
13276
13395
13629
13914
14003
14110
14196
14218
14585
14981
15321
15601
16042
16584
17137
17477
17573
17553
17706
17399
16881
16115
15077
14029
12870
11927
11462
11178
11018
10909
10825
11031
11164
11204
11317
11465
11584
11637
11672
11797
11728
11704
11832
11896
11867
11772
11877
11976
12121
12071
11951
11862
12279
12892
12999
13006
13121
12875
12689
12590
12546
12345
12356
12399
12130
11964
14226
18533
24152
23132
10190
7948
9611
11144
12260
12971
13050
13445
13515
13728
13823
13993
14215
14336
14460
14527
14824
15416
15906
16101
16603
17203
17514
17580
17664
17535
17391
16785
15845
15013
13931
12672
11978
11563
11195
10997
10972
11147
11159
11107
11183
11487
11591
11605
11583
11727
11812
11757
11585
11708
11960
12003
11812
11737
11828
12022
11978
12011
11735
11769
12287
12808
12991
12994
13119
13027
12873
12739
12593
12296
12370
12500
12388
11911
13172
17013
22564
25255
13964
7326
9186
10596
11917
12783
13130
13345
13465
13641
13895
14098
14210
14305
14452
14694
14923
15321
15544
15973
16587
17106
17374
17650
17878
17774
17474
17011
16341
15348
14276
13380
12735
11887
11485
11219
11216
11217
11221
11307
11445
11526
11581
11743
11871
11822
11723
11838
11928
11910
11737
11909
11936
12108
12073
11989
11973
12176
12195
11917
11938
12628
13044
13154
13105
13078
13111
12889
12680
12304
12441
12628
12658
12406
12064
13875
18092
23766
24095
11102
7517
9552
11114
12375
13021
13242
13419
13627
13637
13823
13936
14108
14241
14508
14670
15149
15478
15826
16074
16581
17021
17427
17721
17702
17470
17348
16977
16187
15246
14131
13010
12237
11698
11285
11188
11217
11214
11180
11217
11344
11500
11509
11510
11579
11812
11842
11879
11880
11810
11870
11858
11847
11915
11890
12009
11975
12105
12044
12410
12789
13115
13177
13027
12972
12943
12742
12452
12331
12413
12589
12368
12062
13381
17356
22897
24993
13182
7070
9330
10868
12030
12756
13184
13367
13356
13559
13823
13967
14106
14247
14371
14457
14947
15099
15380
15864
16481
16842
17346
17576
17710
17603
17331
16748
16139
15279
14233
13074
12183
11571
11180
11025
11039
10929
11060
11200
11230
11407
11309
11540
11699
11807
11810
11880
11833
11856
11878
11942
12015
11905
11940
11815
12035
12044
11823
12004
12481
12866
13060
12883
12827
12841
12779
12425
12184
12318
12519
12355
12034
12789
16451
21773
25522
15750
7200
8812
10152
11886
12688
13033
13213
13446
13546
13807
13974
14007
14114
14247
14531
14912
15256
15572
15946
16451
16916
17277
17640
17609
17438
17399
17265
16418
15392
14192
13215
12365
11649
11245
11064
11211
11256
11100
11376
11404
11400
11567
11646
11678
11737
11713
12007
12018
11956
11979
11917
12035
11949
11728
11827
12133
11912
11944
11995
12443
12867
13000
12999
13051
12813
12685
12761
12394
12329
12351
12428
12078
12130
14980
19914
25456
20281
7988
8334
10025
11628
12618
13111
13123
13281
13721
13861
13892
13912
14111
14535
14726
14866
15160
15447
15835
16365
16853
17237
17516
17638
17597
17580
17311
16709
15742
14709
13652
12689
11888
11508
11154
11118
11059
11215
11069
11306
11619
11614
11639
11671
11745
11829
11905
11820
11814
11909
11977
11842
11831
12062
12250
11983
12190
12204
12046
11894
12223
12793
13132
13290
13273
13210
13040
12882
12657
12563
12419
12497
12569
12238
13012
16837
22093
25439
15073
7130
9047
10907
12155
12815
13160
13379
13567
13709
13863
13910
14146
14465
14652
14697
14844
15285
15799
16007
16400
16838
17386
17745
17798
17684
17399
17029
16297
15075
14087
13121
12290
11759
11340
11039
11093
11180
11040
11271
11573
11614
11560
11572
11734
11859
11695
11794
11678
11884
11883
11953
12014
11885
11902
11924
11994
12085
12067
12143
12001
11790
12253
12700
12963
13092
13035
12952
12992
12863
12574
12482
12535
12487
12379
12163
13063
16703
22030
25442
15208
7143
8874
10586
11995
12591
13043
13216
13358
13563
13715
13824
13847
14212
14581
14661
14934
15162
15638
16123
16655
16945
17275
17638
17661
17507
17289
16883
16134
15279
14075
13132
12157
11405
11206
11087
11031
11091
11138
11131
11346
11423
11458
11336
11434
11900
11879
11866
11776
11861
11811
11837
11824
11807
11913
11916
12067
12073
12071
11786
11877
12267
12808
13122
13174
12986
12951
12702
12637
12487
12380
12395
12323
11995
12333
15458
20086
25404
19320
7694
8599
10050
11410
12470
13015
13147
13235
13405
13757
13879
14062
14265
14361
14587
14847
15066
15557
15993
16489
17032
17523
17796
17982
17650
17373
16995
16332
15247
14158
13200
12314
11511
11300
11217
11081
11028
11143
11125
11243
11544
11689
11757
11685
11791
11645
11860
11938
11894
11958
12116
12045
12036
12050
12113
12177
12177
12014
11890
12081
12381
12939
13198
13284
13132
13018
12839
12771
12633
12498
12373
12510
12420
12274
14442
18830
24552
22810
9588
7831
9845
11434
12492
13083
13397
13449
13538
13691
13819
14009
14293
14491
14758
14961
15089
15485
15860
16373
16920
17271
17493
17577
17550
17390
17196
16569
15603
14546
13474
12725
11951
11468
11230
11124
11112
11162
11152
11189
11397
11437
11693
11796
11669
11745
11833
11879
11845
11771
11863
11950
11945
11924
11871
11978
12126
12013
11805
12051
12618
12999
13107
13171
13056
13034
12659
12631
12466
12473
12494
12584
12118
12752
16131
21113
25431
17153
7239
8727
10278
11797
12538
13046
13412
13497
13576
13750
14041
14113
14287
14578
14835
15084
15512
15734
16092
16568
17061
17302
17588
17751
17519
17198
16963
16279
15329
14246
13161
12184
11628
11328
11026
11069
11126
11136
11391
11500
11500
11539
11578
11647
11719
11740
11702
11750
12037
11965
11899
11977
12038
11915
12028
11960
11915
11970
12474
12860
13000
12959
12894
12966
12869
12708
12456
12417
12427
12381
12141
12256
14842
19506
24687
21500
8761
8210
9825
11189
12427
13031
13285
13460
13579
13710
13913
13932
14173
14347
14449
14857
15106
15326
16019
16561
17036
17234
17468
17686
17647
17319
17018
16265
15398
14331
13209
12322
11667
11336
11077
10991
10880
11023
11170
11425
11436
11588
11538
11796
11626
11588
11816
11838
11774
11966
11941
11866
11834
12007
11735
11693
11894
12324
12764
12910
12993
12927
12811
12557
12479
12215
12059
12209
12333
11978
11826
13924
18201
23815
23128
10305
7651
9402
10827
12432
12936
13082
13257
13552
13513
13731
13844
13980
14270
14605
14796
15031
15379
15852
16237
16649
17006
17522
17740
17677
17502
17000
16361
15464
14496
13226
12339
11694
11205
10914
11038
10977
10980
11168
11250
11349
11580
11686
11549
11479
11617
11889
11865
11838
11772
12002
11934
11857
11833
11905
11864
11929
12074
12451
12764
13049
13091
13076
13035
12830
12679
12388
12385
12422
12390
12066
12056
14418
18750
24422
23026
9818
7773
10005
11693
12626
13086
13232
13440
13591
13787
14013
14064
14214
14328
14595
14819
15259
15504
15889
16350
16792
17316
17595
17536
17527
17318
17156
16614
15524
14649
13598
12652
11810
11503
11247
11276
11219
11256
11256
11489
11644
11615
11690
11763
11790
11777
11835
11778
11922
11976
11898
11851
11832
11913
12058
12011
11989
11890
12138
12463
12798
13111
13084
12970
12808
12742
12707
12535
12289
12292
12268
12144
12786
16041
21047
24405
11724
7137
9240
10809
12107
12885
13057
13398
13487
13510
13530
13897
14293
14370
14503
14676
14859
15193
15796
16115
16516
16723
17383
17666
17698
17596
17336
16802
15998
15226
14247
13083
12200
11717
11430
11201
11117
11254
11162
11320
11396
11630
11643
11570
11754
11948
11863
11822
11818
11880
11990
11971
11980
11883
11898
11932
12188
12053
11882
11846
12482
12887
13210
13166
13096
12996
12736
12635
12517
12398
12374
12576
12066
12535
15872
20864
25627
18067
7350
8660
10190
11651
12616
13264
13259
13528
13746
13742
13888
14088
14143
14313
14677
14843
15135
15476
15907
16398
16884
17129
17582
17595
17533
17268
17060
16424
15749
14617
13585
12621
11948
11367
11249
11146
11092
11065
11031
11243
11406
11479
11469
11585
11603
11679
11618
11661
11638
11862
11823
11753
11687
11623
11730
11987
12019
11791
11735
12229
12755
12997
13012
12832
12842
12628
12604
12438
12315
12332
12350
11965
12275
15224
20105
25095
18672
7583
8702
9887
11401
12484
12995
13264
13397
13501
13645
13715
13892
13995
14088
14348
14665
15070
15376
15597
16093
16547
17044
17396
17396
17238
17242
17008
16381
15363
14348
13237
12334
11693
11353
11099
11013
10872
10918
11024
11352
11413
11418
11445
11460
11533
11540
11689
11676
11799
11817
11753
11668
11800
11919
12024
11960
11894
11761
12094
12702
13009
13045
12926
12797
12609
12657
12504
12386
12257
12398
12049
12096
14780
19500
25129
20712
8231
8214
9755
11573
12557
12968
13156
13373
13600
13669
13854
14125
14241
14281
14546
14683
15181
15423
15778
16086
16615
16983
17514
17598
17595
17453
17155
16730
15752
14688
13634
12627
11872
11501
11257
11187
11072
11266
11231
11327
11407
11634
11705
11787
11751
11736
11862
12019
12012
11927
12014
12005
12036
12113
12193
12022
11951
11903
12493
12883
13163
13158
13115
13113
12986
12733
12644
12419
12565
12621
12303
12418
14973
19540
25068
21132
8421
8243
10007
11597
12548
13164
13381
13585
13608
13701
13998
14254
14341
14474
14713
14911
15123
15584
16017
16286
16793
17205
17518
17715
17759
17369
17299
16845
15768
14805
13900
12909
12029
11720
11480
11229
11068
11264
11302
11513
11609
11765
11748
11883
11894
11939
11879
11939
11959
11961
12033
11924
11953
12126
12235
12105
12046
11991
12427
13031
13252
13171
13186
13031
12813
12648
12590
12468
12551
12459
12239
12615
15783
20687
25487
18477
7153
8447
10414
11904
12623
13145
13312
13521
13694
13894
13886
14096
14203
14428
14646
14948
15191
15658
15949
16328
16796
17021
17352
17659
17536
17240
17101
16441
15771
14757
13751
12685
11991
11431
11123
11152
11300
11289
11447
11612
11499
11592
11607
11760
11839
11656
11564
11769
11894
11964
11903
11979
11942
11871
11838
11778
12114
12630
12849
13017
13031
12978
12626
12666
12499
12306
12411
12470
12235
12075
14607
18906
24316
22200
9194
8008
9675
10907
12217
12971
13236
13355
13391
13555
13763
13840
14044
14543
14684
14891
15030
15524
15792
16221
16620
17128
17297
17473
17465
17183
16899
16409
15694
14733
13719
12616
11866
11475
11269
11139
11124
11105
11188
11368
11581
11636
11634
11569
11682
11880
11824
11880
11804
11937
11883
11925
11768
11929
11848
12049
12611
12850
12884
12937
12829
12599
12474
12444
12247
12294
12335
11927
11847
14392
19126
24817
21695
8771
8456
9796
11214
12217
12867
13017
13252
13336
13564
13774
13913
13939
14220
14536
14750
15031
15360
15631
15894
16537
16890
17369
17416
17388
17090
16833
16412
15528
14403
13280
12364
11722
11517
11277
11094
11060
11285
11410
11332
11277
11714
11669
11594
11701
11822
11884
11945
11820
12094
12082
11974
11922
11904
11768
12097
12583
13065
13087
13022
12972
12782
12650
12394
12455
12458
12366
12231
12007
12698
16156
21203
25647
16683
7220
8848
10380
11795
12527
12988
13099
13225
13564
13730
13996
14100
14146
14388
14441
14700
15074
15565
15908
16307
16639
17197
17407
17568
17426
17210
16707
16068
15083
14219
13424
12355
11726
11438
11263
11179
11172
11203
11438
11337
11500
11636
11707
11731
11781
11689
11801
11810
11736
11764
11739
11984
11879
11883
11906
12158
12649
12961
12982
12966
12838
12661
12551
12473
12400
12376
12222
12032
11927
14225
18940
24639
22262
9071
8053
9805
11331
12349
12880
13129
13295
13462
13504
13652
14035
14221
14363
14454
14781
15068
15251
15634
16146
16660
16825
17134
17268
17445
17311
17065
16527
15680
14667
13579
12550
11776
11412
11114
11124
11115
11098
11229
11403
11376
11391
11440
11766
11737
11872
11848
11885
11755
11827
11925
11865
11842
11745
11739
12030
12518
12986
12991
12830
12756
12654
12641
12312
12155
12001
12302
11972
12077
14713
19375
24712
21012
8167
8239
9689
11074
12354
13047
13161
13260
13431
13611
13782
13882
14050
14241
14498
14765
14932
15422
15885
16071
16505
16961
17189
17332
17328
17242
16889
16324
15367
14431
13236
12402
11779
11427
10995
11161
11242
11334
11311
11313
11391
11507
11739
11827
11903
11900
11876
11772
11922
11936
11923
11730
11690
11720
12166
12530
12789
12933
12748
12728
12685
12509
12247
12065
12149
12222
11992
12032
14466
18998
24877
21579
8751
8543
9900
11242
12218
12810
13073
13326
13307
13566
13831
14092
14189
14193
14445
14891
15213
15397
15757
16201
16526
16918
17387
17499
17504
17087
16664
16177
15518
14328
13183
12370
11783
11360
11224
11233
11027
11054
11207
11441
11609
11620
11421
11805
11951
11944
11874
11926
11901
11997
11902
11979
12044
11944
11816
11847
12717
13082
13096
12863
12944
12739
12541
12222
12162
12225
12352
12072
12142
14662
19207
25004
21361
8548
8411
9935
11267
12220
12821
13105
13117
13235
13553
13818
13830
14166
14223
14325
14695
15098
15274
15525
16082
16647
16872
17210
17252
17182
17133
16961
16364
15448
14533
13498
12608
11884
11449
11184
11095
11182
11203
11242
11428
11491
11557
11616
11805
11838
11776
11904
11850
11906
11890
11974
11820
11895
11941
12062
11923
12049
12376
12840
13102
13117
12965
12778
12577
12481
12303
12322
12427
12224
11939
13808
18148
23650
24019
11107
7085
9442
11162
12199
12774
13007
13273
13382
13598
13759
13856
13995
14308
14551
14629
14911
15230
15644
15931
16430
16986
17276
17392
17448
17224
17107
16651
15905
14955
13981
13020
12115
11685
11298
11151
11131
11130
11175
11441
11611
11696
11689
11818
11932
12028
11962
11884
11885
11915
11893
11948
12050
12127
11829
11675
12032
12428
12753
13070
13010
12785
12814
12610
12564
12347
12263
12160
12422
12233
12708
15629
20555
25309
19432
7554
8187
9908
11320
12488
12965
13064
13351
13712
13748
13869
14011
14281
14365
14485
14767
15149
15402
15775
16265
16682
17042
17325
17575
17464
17261
16902
16437
15589
14598
13324
12411
11949
11555
11292
11443
11332
11243
11226
11330
11410
11377
11496
11613
11699
11695
11844
11788
11938
11907
11875
11710
11697
11672
11753
11923
12080
12543
12970
12968
12732
12609
12592
12441
12175
12200
12191
12084
11719
13264
17108
22224
24508
14156
7069
9228
10335
11652
12399
12923
13142
13390
13628
13699
13886
13975
14102
14203
14547
14790
15147
15650
16164
16528
17184
17499
17645
17590
17454
17206
16854
16097
15022
14043
12874
12061
11594
11287
11034
11041
11038
11150
11166
11434
11414
11328
11795
11937
11821
11868
11860
11903
11912
11808
11880
11993
12077
11837
11936
11915
12243
12743
12849
12800
12720
12756
12489
12307
12378
12292
12467
12532
12178
12532
15709
20633
25450
18696
7456
8517
9928
11462
12352
12902
13113
13357
13489
13734
13806
14006
14179
14134
14469
14973
15258
15464
15917
16336
16817
17228
17633
17658
17490
17311
17152
16472
15394
14290
13300
12318
11666
11346
11151
11049
11059
11128
11176
11358
11287
11476
11605
11721
11656
11886
11876
11966
11978
11952
11879
12023
11858
11838
11843
11965
11883
12107
12621
12957
13226
13111
13014
12928
12877
12523
12394
12538
12640
12541
12086
12519
15920
21084
25735
18245
7357
8493
10311
11712
12504
13035
13279
13438
13534
13735
13972
14123
14303
14551
14651
14953
15197
15531
15770
16297
16894
17378
17663
17637
17587
17411
17266
16511
15377
14334
13469
12571
11898
11418
11258
10980
10989
11175
11301
11313
11388
11372
11492
11664
11849
11957
11885
11902
11845
11834
11700
11884
11861
11850
11774
11893
11889
12043
11995
12411
12843
13063
13155
13016
12989
13030
12866
12650
12472
12386
12555
12347
12039
13621
17932
23572
24461
12149
7573
9376
10674
11979
12955
13294
13392
13510
13728
13912
13908
14064
14265
14634
14783
15106
15367
15734
16019
16541
17109
17453
17555
17746
17837
17450
16920
16305
15183
14131
13130
12284
11772
11245
10946
11038
11081
11040
11209
11316
11483
11558
11414
11502
11768
11743
11657
11773
11806
11840
11847
11891
11931
11884
11947
12007
11879
11876
12160
12646
12695
13073
13082
12975
12899
12742
12446
12418
12457
12579
12335
11868
12691
16289
21542
25352
16534
7531
9054
10191
11604
12624
13167
13261
13344
13604
13743
13879
14054
14272
14382
14669
14850
15193
15463
15876
16418
16922
17224
17653
17740
17835
17552
17016
16326
15516
14203
13271
12288
11696
11344
11148
11180
11120
11187
11170
11397
11443
11619
11562
11574
11737
11841
11776
12005
11895
11923
11989
11990
11801
11829
12001
11976
12156
12066
11867
12039
12443
12820
12970
13033
13245
13145
12946
12879
12764
12463
12389
12469
12093
12152
15127
19982
25530
20245
8066
8489
9858
11390
12534
13096
13235
13566
13629
13763
13887
13990
14174
14372
14533
14860
15185
15424
15955
16220
16723
17151
17538
17576
17653
17478
17313
16883
15962
14669
13650
12729
11989
11501
11212
11113
11217
11287
11265
11367
11360
11437
11683
11805
11761
11536
11623
11895
11891
11862
11751
11730
11871
12092
11935
11816
11908
12082
12130
12192
11996
11837
12649
13116
13201
13063
13162
13127
13043
12817
12757
12575
12544
12502
12248
12153
14372
18917
24782
21981
9073
7980
9884
11517
12437
13048
13182
13382
13466
13751
13962
14162
14239
14380
14556
14789
14965
15255
15840
16189
16714
17027
17542
17783
17838
17644
17371
16923
16325
15251
14158
13089
12177
11731
11540
11440
11264
11305
11531
11645
11591
11551
11633
11675
11778
11790
11725
11802
11889
11858
11860
11919
11935
11933
11907
11941
11915
11966
12051
12072
12281
12248
12138
12197
12590
12960
13356
13268
13272
13156
13097
12945
12759
12541
12621
12633
12306
12455
15234
20014
25300
19756
8117
8560
10220
11847
12765
13282
13395
13639
13771
13923
13912
14082
14328
14471
14777
14934
15286
15680
16112
16478
16929
17277
17555
17709
17871
17656
17251
16781
16010
14664
13546
12634
12020
11524
11188
11070
11164
11134
11338
11482
11381
11440
11391
11622
11641
11714
11812
11835
11674
11753
11800
11895
11874
11852
11727
11919
11991
11925
11892
12193
12519
12923
13137
13050
12923
12872
12738
12473
12391
12333
12474
12419
12125
12886
16325
21234
24960
16088
7293
9076
10381
11686
12588
12989
13182
13491
13693
13867
13774
13932
14198
14419
14703
14903
15158
15419
15854
16332
16742
17341
17777
17749
17531
17300
16889
16103
15001
13994
12962
12095
11575
11250
10994
11019
11030
11187
11360
11234
11268
11566
11661
11687
11742
11703
11769
11658
11563
11593
11797
11836
12000
12029
11825
11823
11913
12228
12568
12802
12981
12914
12801
12698
12567
12405
12321
12259
12369
12177
11971
13035
16987
22279
24864
14190
6967
8930
10447
11765
12547
12787
13167
13523
13653
13672
13885
14094
14198
14438
14674
14942
15032
15493
16028
16631
17097
17494
17625
17736
17642
17400
16859
16055
15104
14107
12966
12209
11690
11363
11331
11251
11256
11281
11370
11302
11557
11484
11552
11832
11934
12033
12068
12010
11888
11886
11842
11929
12028
11932
11836
11883
12083
12459
12748
12824
12743
12840
12731
12621
12374
12270
12212
12327
12238
12028
13754
17979
23216
23217
11208
7415
9422
10713
11884
12553
13074
13216
13456
13325
13497
13903
13961
14190
14473
14676
14816
15144
15561
16066
16400
16808
17246
17513
17428
17352
17018
16487
15564
14451
13345
12481
11729
11365
11054
10981
10913
10928
10993
11105
11233
11242
11197
11321
11417
11510
11555
11478
11600
11654
11571
11699
11795
11641
11512
11544
11644
12218
12693
13077
13064
12826
12530
12212
12000
12202
12283
12278
12040
11963
14257
18509
23462
22625
10529
7910
9831
10548
11807
12660
12977
13074
13375
13620
13677
13676
13993
14243
14402
14593
14775
15270
15934
16252
16749
