11792
12108
12245
12030
11585
13219
17644
23375
25264
12662
7992
9890
10940
11946
12750
13073
13245
13487
13547
13718
13892
14142
14145
14370
14679
15031
15522
15849
16151
16704
17032
17337
17570
17411
17252
17130
16649
15738
14724
13623
12699
11938
11502
11219
11067
10989
11008
11162
11323
11455
11589
11660
11708
11786
11597
11596
11814
11821
11814
11758
11800
11943
12056
12181
11972
11717
11808
12276
12916
13153
13055
12978
13017
12775
14237
18989
25182
22418
8902
8606
10241
11630
12498
12878
13071
13308
13425
13540
13799
14016
14044
14204
14473
14861
15050
15293
15769
16305
16567
17170
17496
17570
17475
17212
16953
16383
15469
14395
13351
12441
11717
11377
11332
11054
10921
11113
11227
11380
11459
11517
11607
11746
11594
11530
11719
11845
11761
11852
11805
11781
11751
11786
11837
11890
11851
11647
11961
12503
12822
13066
12981
12975
12982
12775
12515
12270
12086
22764
9033
8228
9943
11341
12333
12844
13137
13242
13453
13686
13759
13898
14213
14463
14535
14694
15137
15475
15861
16326
16762
17220
17478
17608
17645
17399
17106
16683
15701
14642
13578
12585
11817
11482
11256
11016
11021
11120
11140
11161
11361
11476
11433
11583
11625
11616
11813
11731
11715
11601
11558
11639
11781
11778
11764
11792
11800
11802
11713
11901
12392
12865
12995
12896
12914
13008
12753
12508
12332
12369
12434
12148
11710
10007
11299
12256
12817
12977
13322
13445
13547
13858
14092
14041
14337
14729
14790
15079
15447
15895
16319
16926
17231
17446
17539
17549
17375
16943
16398
15513
14447
13343
12433
11791
11165
10933
11062
11122
11117
11133
11250
11425
11486
11591
11638
11711
11801
11674
11687
11862
11770
11745
11706
11711
11767
11780
11909
12041
12031
11677
11713
12329
12722
12848
12982
13014
12942
12699
12701
12601
12322
12309
12328
11925
12179
15404
12011
12543
13014
13473
13401
13579
13892
14114
14151
14233
14611
14932
15113
15432
15815
16321
16759
17177
17548
17693
17858
17521
17222
16713
16016
14980
13779
12740
11999
11536
11268
11065
11014
11118
11228
11427
11411
11441
11625
11661
11701
11674
11697
11846
11799
11684
11856
11939
11903
11883
11935
11951
12043
12036
12076
11992
11940
12148
12728
13038
13189
13143
13117
13018
12856
12653
12480
12501
12630
12318
11931
13357
17559
13140
13489
13655
13837
14090
14300
14567
14851
15111
15472
15796
16188
16727
17053
17469
17673
17657
17588
17330
16866
15949
14935
13854
12728
11962
11383
11172
11126
11113
11060
11191
11200
11373
11521
11575
11572
11682
11706
11728
11608
11685
11772
11715
11921
11992
11916
11725
11841
11893
11970
11910
11825
11878
11856
12321
12839
13055
13150
13254
13145
12887
12750
12447
12426
12424
12332
12007
12157
15495
20943
26012
19401
8024
8975
13557
13868
14094
13997
14170
14595
14832
15013
15349
15824
16164
16844
17195
17449
17662
17787
17652
17441
16832
16227
15007
13929
12940
12189
11650
11299
11049
10998
11090
11199
11155
11106
11375
11546
11482
11601
11646
11754
11690
11616
11736
11714
11810
11639
11659
11801
11770
11766
11717
11617
11760
12124
12653
13013
13001
13034
12888
12642
12575
12451
12246
12433
12250
11689
12461
16220
21495
25910
17255
7608
9447
10424
11476
13754
13880
14100
14509
14704
14930
15278
15716
16151
16586
16999
17394
17579
17594
17490
17226
16674
15851
14819
13532
12544
11717
11180
11110
11119
10931
10871
11084
11280
11270
11314
11478
11585
11666
11769
11702
11659
11717
11812
11671
11646
11738
11889
11998
11985
11757
11714
12137
12602
12905
12938
12837
12942
13086
12834
12446
12323
12365
12376
12121
11727
13191
17538
23660
25149
11926
8010
9857
11201
12081
12708
13020
13136
13324
14768
15112
15478
15918
16288
16670
17153
17592
17725
17740
17486
17058
16484
15596
14326
13153
12346
11626
11249
10974
10874
11011
11202
11426
11338
11243
11374
11594
11778
11734
11720
11749
11736
11702
11871
11957
11724
11765
11792
11803
11808
11748
11893
12353
12767
13053
13067
13049
13012
12759
12532
12354
12386
12267
12079
11696
12063
15047
20031
25730
20661
8054
8596
10192
11715
12453
12887
13060
13197
13441
13820
13986
13939
15987
16451
16994
17390
17557
17816
17748
17429
17039
16152
14977
13810
12807
12052
11604
11212
10984
11009
11095
11169
11201
11238
11354
11512
11594
11642
11727
11783
11635
11576
11678
11746
11672
11611
11671
11890
11864
11750
11682
12025
12519
12900
12877
12857
12902
12769
12566
12595
12414
12434
12469
12298
11850
12749
16716
22266
25823
15190
7389
9297
10721
12019
12742
13011
13149
13332
13506
13722
13847
13895
14064
14443
14653
17483
17589
17657
17438
17185
16506
15513
14531
13470
12506
11759
11271
11086
10972
10908
11101
11172
11185
11140
11385
11561
11707
11730
11602
11592
11657
11793
11717
11674
11782
11677
11790
11777
11662
11777
12065
12476
12803
12918
12750
12637
12638
12600
12336
12142
12193
12294
11966
11703
13939
18611
24491
23049
9681
8422
10152
11274
12065
12606
12963
13159
13365
13519
13752
13846
13978
14301
14597
14752
15000
15352
15792
16319
16849
16010
14859
13848
12797
11820
11360
11074
11060
11077
11031
11131
11301
11459
11456
11545
11622
11699
11672
11846
11992
12042
11936
11785
11888
11948
12035
11946
11822
11735
12067
12606
12767
13044
13074
13137
12972
12783
12540
12308
12300
12340
12301
11827
12079
15423
20950
26044
19001
8109
9285
10504
11771
12550
12982
13132
13255
13374
13628
13807
13935
14053
14400
14620
14866
15090
15554
16001
16522
16808
17159
17596
17677
17503
11793
11369
11248
11023
10915
11112
11328
11375
11490
11563
11621
11691
11651
11575
11669
11813
11794
11947
11969
11683
11633
11935
12024
12024
11976
11800
11970
12409
12942
13078
13001
13038
13005
12869
12727
12616
12490
12330
12398
11979
12375
15690
21078
26018
18271
7721
9139
10631
11978
12536
12835
13142
13424
13545
13707
13918
14116
14261
14402
14631
14935
15253
15592
15960
16320
16867
17339
17432
17552
17541
17363
16962
16325
15410
10959
10899
11130
11298
11348
11401
11507
11603
11655
11675
11717
11758
11644
11758
11778
11806
11686
11732
11806
11841
11919
11968
11840
11841
12211
12736
13017
13084
13053
12933
12798
12727
12473
12400
12447
12299
12083
12082
14786
19903
25701
21229
8351
8818
10231
11530
12424
12850
13058
13380
13445
13564
13790
13943
14193
14441
14577
14687
15105
15528
15946
16510
16874
17206
17507
17585
17549
17399
17171
16447
15514
14255
13235
11012
11152
11207
11337
11331
11422
11566
11613
11591
11617
11620
11662
11718
11722
11815
11825
11872
11740
11752
11891
11856
11969
12418
12810
13001
13009
12985
12951
12783
12494
12176
12254
12391
12339
11747
12832
16862
22358
25669
14606
7717
9671
10636
11972
12669
12990
13266
13446
13548
13705
13908
14025
14311
14560
14830
15119
15425
15739
16144
16689
17132
17459
17698
17758
17545
17207
16827
15880
14932
13927
12779
12042
11668
11272
11578
11535
11502
11701
11830
11835
11829
11973
11913
11799
11880
11876
12062
11999
12053
12143
12123
12026
12287
12761
13100
13154
13226
13203
13048
12981
12740
12571
12446
12532
12288
11959
13915
18576
24885
24245
10509
8657
10050
11240
12364
13061
13271
13363
13572
13748
13898
13928
14158
14451
14621
14766
15179
15606
15799
16279
16694
17130
17460
17792
17778
17509
17169
16638
15698
14570
13558
12583
11761
11431
11253
11161
11049
11445
11594
11586
11684
11806
11851
11823
11745
11703
11754
11904
11898
11984
12112
11996
11801
12094
12574
12909
13151
13003
13152
13145
12781
12595
12534
12494
12456
12341
11910
12783
16669
22269
25881
15106
7436
9509
11093
12093
12757
13163
13203
13486
13724
13676
13921
14171
14399
14499
14752
14951
15351
15721
16192
16602
16958
17393
17696
17747
17523
17330
17002
16195
15258
14112
12991
12084
11576
11355
11140
11051
11182
11267
11692
11577
11645
11709
11777
11798
11749
11724
11806
11882
11990
12064
11977
11863
11827
12159
12718
12914
13021
13042
13175
13057
12764
12514
12412
12397
12425
12182
11882
14072
18660
24622
23970
10180
8142
9963
11367
12294
12874
13078
13307
13473
13635
13937
14063
14105
14284
14645
14957
15232
15452
15877
16315
16826
17213
17424
17625
17776
17595
17338
16764
15973
14915
13810
12710
11897
11437
11135
10867
10980
11247
11272
11299
11447
11524
11596
11636
11644
11833
11774
11826
12044
12114
11979
11844
11801
12162
12720
13012
13132
13015
13063
13025
12792
12493
12319
12271
12343
12141
12148
14792
19556
25088
21981
8537
8479
10104
11404
12347
12872
13083
13308
13633
13708
13844
14010
14313
14429
14682
14957
15182
15550
16115
16416
16820
17238
17504
17541
17509
17533
17158
16528
15565
14602
13387
12337
11657
11365
11202
11120
11152
11114
11297
11376
11456
11559
11677
11678
11699
11927
11897
11907
12115
12016
11884
12125
12634
12948
13228
13155
13101
12965
12897
12693
12389
12325
12463
12501
11895
12715
16501
22090
25970
16125
7733
9531
10839
12031
12686
13035
13418
13647
13606
13724
13915
14122
14355
14575
14772
14930
15350
15714
16167
16690
17017
17324
17579
17689
17653
17317
16909
16120
15092
14000
12908
12058
11578
11203
10892
10836
11042
11297
11385
11406
11341
11524
11612
11437
11477
11719
11824
11832
11932
11809
11736
11841
12195
12721
13039
12905
12968
13042
13002
12717
12389
12419
12526
12488
12076
11992
14555
19323
25386
22693
9073
8499
10210
11541
12480
13015
13240
13398
13464
13668
13834
14050
14211
14359
14529
14702
15104
15594
15971
16380
16710
17006
17449
17719
17735
17529
17201
16624
15753
14669
13434
12347
11634
11196
11016
11159
11092
11198
11184
11340
11411
11572
11450
11497
11575
11644
11841
11673
11575
11702
11588
11652
11789
12309
12717
12921
12999
12984
12955
12753
12603
12449
12359
12352
12460
12165
12302
15355
20674
25916
19323
7719
8807
10492
11961
12679
12952
13170
13375
13513
13635
13833
14100
14146
14283
14525
15036
15298
15589
16165
16520
17006
17286
17454
17549
17584
17487
17182
16418
15418
14138
13043
12305
11549
11140
11121
11046
11026
11119
11227
11342
11363
11418
11522
11401
11518
11664
11684
11620
11756
11701
11706
11735
12535
12726
12802
12790
12823
12663
12573
12257
12164
12250
12191
11949
11943
14271
18897
24419
23082
9593
8395
9964
11086
12205
12872
13187
13300
13456
13610
13922
13934
14095
14474
14584
14759
15084
15479
15861
16351
16812
17257
17579
17708
17620
17555
17205
16466
15503
14280
13275
12476
11842
11268
11063
11002
11040
10912
11032
11306
11478
11523
11608
11644
11639
11820
11983
11756
11796
11940
11873
11791
11949
12107
11929
12037
11884
12757
12502
12380
12273
12256
12271
11857
12102
15632
20983
25964
19111
8238
9520
10413
11708
12448
12993
13312
13408
13543
13743
13866
13989
14190
14242
14616
14949
15222
15635
15992
16655
17036
17215
17459
17362
17317
17211
16951
16322
15200
13940
12806
11968
11566
11234
11083
11235
11309
11366
11297
11275
11477
11582
11751
11736
11825
11995
11841
11712
11749
11898
11664
11660
12045
12090
12195
12019
11911
11998
12425
13021
13144
12379
12173
11999
11850
13831
18402
24320
23969
10577
8558
9977
11399
12088
12869
13260
13343
13417
13652
13809
13903
14053
14248
14373
14533
14959
15510
15869
16186
16757
17046
17275
17520
17493
17415
17145
16480
15518
14497
13289
12391
11649
11260
11249
10916
10783
11144
11305
11319
11301
11535
11665
11650
11542
11675
11909
11933
11635
11746
11720
11820
11796
11560
11987
12373
12004
11547
11689
12229
12728
12985
13132
12811
12974
13109
12046
15002
20318
25888
19976
8020
8930
10478
11842
12498
12746
13113
13348
13437
13663
13870
13935
14071
14428
14543
14745
15255
15605
15956
16370
16746
17236
17487
17640
17591
17443
16892
16239
15348
14193
13207
12277
11580
11216
11126
11102
11086
11107
11090
11173
11421
11609
11740
11700
11873
11789
11745
11862
11836
11794
11785
11748
11789
11942
11854
11898
12052
12112
11982
11930
12047
12545
12966
13114
13013
13014
13138
12925
14357
19222
25197
22790
9324
8478
10172
11592
12539
12994
13211
13467
13706
13829
13886
13934
14220
14401
14674
14964
15140
15462
15963
16510
16839
17268
17570
17531
17605
17548
17283
16642
15708
14619
13554
12612
11799
11287
11129
11091
11072
11098
11234
11430
11440
11491
11560
11587
11700
11664
11655
11734
11751
11767
11919
11937
11993
11978
12024
11966
12076
12005
11712
11935
12515
12744
12967
12910
12989
12981
12818
12618
12419
12337
21656
8675
8754
10244
11376
12393
12937
13129
13321
13580
13650
13855
14163
14378
14491
14685
14872
15036
15496
15969
16549
16942
17290
17649
17766
17701
17477
17090
16487
15476
14335
13344
12337
11684
11199
11048
11024
11038
11102
11142
11301
11430
11373
11559
11678
11886
11889
11909
11933
11996
11813
11713
12005
12032
11967
12069
12142
11878
11814
11898
12322
12652
13087
13112
13039
13103
13006
12698
12355
12324
12522
12509
12104
9296
10642
11953
12444
12987
13328
13520
13640
13693
13793
14009
14164
14360
14676
15000
15316
15678
16224
16681
16966
17506
17774
17768
17655
17414
17103
16353
15173
13943
12909
12062
11547
11229
11127
11032
11096
11128
11241
11353
11427
11578
11666
11603
11607
11779
11820
11788
11851
11925
11914
11965
11872
11887
11936
11996
12021
11969
11889
12331
12880
13071
13097
13058
13062
12963
12782
12656
12532
12465
12459
12093
11886
13932
11883
12600
12943
13273
13376
13694
13879
13962
14167
14316
14352
14682
14999
15337
15681
16058
16583
17073
17317
17677
17837
17805
17574
17114
16333
15542
14296
13100
12137
11674
11400
11157
11090
10994
11184
11227
11413
11413
11446
11564
11726
11640
11864
11784
11745
11705
11603
11685
11858
11895
11997
11980
11848
11997
11844
11658
11877
12520
12926
13065
13065
12992
12814
12876
12761
12436
12348
12356
12534
12054
12258
15433
20850
25879
13009
13240
13545
13690
13878
14082
14190
14408
14632
14876
15181
15460
15680
16190
16756
17312
17706
17813
17682
17473
17288
16957
16168
14908
13683
12748
12049
11485
11125
10963
11008
11094
11216
11222
11226
11377
11636
11533
11564
11665
11651
11631
11714
11757
11807
11712
11686
11795
11780
11957
12051
11835
11755
12169
12649
12817
12918
12936
12813
12654
12632
12470
12348
12381
12498
12062
11782
14030
18680
24352
23438
9917
8191
13513
13667
13751
13952
14142
14431
14721
14956
15265
15564
16095
16590
16943
17414
17748
17911
17747
17486
16768
16137
15310
13985
12831
12050
11673
11174
10993
10987
10970
11162
11385
11318
11315
11408
11510
11808
11919
11855
11829
11749
11802
11884
11802
12046
12071
11881
11972
11994
11870
12008
12527
12841
12998
12945
13007
13056
12892
12627
12523
12567
12473
12272
11798
12166
15401
20341
25819
20180
8353
9002
10254
11661
12510
14013
14255
14385
14686
15041
15354
15765
16089
16633
17040
17568
17810
17826
17720
17580
16939
15931
14860
13820
12541
11723
11412
11100
11089
11098
11221
11141
11261
11413
11566
11586
11599
11721
11743
11786
11762
11838
12032
11960
11839
11882
12064
11902
11932
12031
12059
11890
12152
12619
13070
13268
13137
13128
13027
12847
12665
12446
12291
12321
12348
11914
12890
16813
22646
25779
14839
7731
9530
10901
12150
12710
13075
13219
13378
14785
15040
15435
15886
16244
16725
17296
17604
17850
17804
17643
17256
16542
15570
14532
13389
12517
11771
11432
11235
11196
11041
11050
11092
11255
11431
11463
11440
11512
11776
11744
11671
11842
11807
11768
11823
11787
11845
11908
12009
12106
11969
12037
12054
11893
11809
12161
12778
13178
13178
13163
13129
12862
12695
12525
12439
12484
12563
12259
12042
14240
18910
24950
23408
9861
8226
9980
11555
12342
12978
13120
13370
13628
14931
15291
15643
15893
16593
17270
17604
17688
17750
17693
17506
17071
16306
15320
14150
13183
12238
11643
11244
11267
11143
11133
11304
11384
11444
11512
11605
11701
11782
11598
11585
11836
11942
11740
11879
11929
11914
11904
12066
12259
12083
11939
12024
12045
11892
11943
12385
12867
13295
13350
13250
13158
12790
12682
12555
12451
12402
12373
11948
12126
15095
20148
25843
20763
8393
8871
10443
11702
12547
13055
13278
13412
13629
13742
15292
15679
16128
16612
17120
17555
17687
17761
17733
17398
16993
16153
15140
13961
12785
11856
11401
11265
11036
10911
11007
10981
10949
11175
11327
11475
11477
11641
11655
11598
11566
11543
11793
11933
12003
11956
11844
11749
11886
11804
11858
11864
11804
12150
12601
13014
13235
13031
12992
12965
12786
12652
12533
12322
12410
12119
11710
13823
18504
24735
24330
10897
8522
9972
11199
12191
12779
13094
13338
13547
13760
13923
14197
15935
16603
17053
17333
17555
17805
17819
17544
17004
16300
15320
14284
13250
12295
11559
11239
11097
11117
11252
11254
11336
11366
11393
11362
11623
11877
11924
11828
11887
12083
12071
11835
11940
11954
11943
12056
11989
12107
12150
12119
11982
12521
12892
13093
13210
13213
13157
13029
12970
12834
12465
12518
12647
12303
11977
13890
18310
24486
24386
10823
8440
10088
11612
12453
12863
13321
13514
13594
13747
13939
14166
14249
14327
14646
17314
17662
17732
17693
17467
16980
16334
15256
14090
13008
12254
11757
11241
11030
11020
10973
11153
11231
11297
11282
11262
11345
11581
11660
11726
11652
11724
11709
11737
11808
11783
11820
11756
11923
11994
11803
11741
12060
12575
12995
13008
12969
13007
12965
12701
12464
12315
12341
12319
12227
11723
12672
16554
22411
25906
15126
7571
9326
10848
12076
12752
12980
13126
13352
13629
13901
14073
13954
14076
14550
14697
15057
15465
17604
17492
17185
16479
15644
14578
13372
12379
11766
11310
11134
11190
11095
10976
11131
11248
11354
11432
11688
11670
11719
11776
11708
11696
11810
11713
11798
11899
11866
11887
11874
11854
11810
11957
12383
12863
13071
13197
12919
12938
12775
12633
12394
12281
12285
12310
11904
12285
15564
20905
25985
19376
7920
8985
10583
11834
12525
12976
13237
13387
13621
13705
13946
14111
14387
14506
14686
15080
15342
15786
16198
16774
17235
16263
15173
14137
13152
12494
12016
11736
11705
11793
11698
11865
11953
12034
12142
12358
12321
12316
12466
12505
12441
12539
12552
12485
12528
12628
12744
12621
12487
12610
12998
13410
13487
13681
13685
13621
13342
13269
12971
12961
13216
13235
12754
12878
16009
21100
26002
21628
9428
10052
11344
12609
13553
14064
14431
14608
14753
14977
15246
15206
15584
15864
16100
16339
16712
17033
17501
17934
18348
18686
18952
19064
19135
19049
18525
12554
12481
12339
12616
12853
12962
13053
13073
13227
13413
13630
13713
13727
13671
13782
13877
13931
13952
13887
14129
14164
14059
14069
14593
14966
15258
15393
15448
15366
15158
15151
14906
14766
14737
14827
14492
14330
17000
22008
26153
25331
12543
11334
12687
14162
15125
15597
15791
16052
16199
16293
16494
16735
16906
17176
17245
17417
17706
18396
18848
19356
19755
20003
20265
20589
20703
20522
20218
19505
18483
17429
16605
15729
15153
15099
15124
15139
15377
15285
15083
15335
15959
16228
16214
16180
16170
16003
15745
15589
15349
15256
15282
15050
14492
15614
19689
25467
26158
18259
10455
12129
13633
14800
15400
15655
15909
16061
16346
16677
17074
17339
17719
17932
18257
18519
18879
19311
19637
20200
20518
20769
20926
20796
20677
20386
19931
18988
17720
16517
15422
14328
13703
13495
13436
13256
13144
13234
13260
13447
13341
13274
13380
13229
13172
13162
13193
12626
12600
12773
13070
13549
13837
13659
13685
13680
13614
13424
13225
12995
12923
13016
12884
12891
15669
20901
26039
22726
9673
9476
11158
12499
13362
13921
14279
14462
14543
14789
14918
15138
15375
15615
15726
16141
16481
16915
17387
17761
18301
18784
19163
19225
19278
19355
19102
18297
17327
16175
15049
14065
13297
12836
12785
12587
12551
12614
12576
12665
12976
13384
13756
14181
14523
14732
14810
14876
14806
14763
14694
14645
14424
14401
14412
14210
13838
13551
13473
13239
13101
12934
12448
12123
14348
19184
24896
23081
9513
8169
9579
10553
11698
12138
12268
12432
12598
12813
12722
12771
12875
13041
13161
13509
13634
14038
14275
14624
15052
15396
15557
15741
15686
15452
15039
14317
13440
12212
11043
9914
9297
8792
8691
8567
8552
8507
8605
8745
8910
8940
8973
9037
9060
9111
9026
9130
9189
9217
9241
9290
9283
9345
9051
9405
9946
10163
10224
10369
10320
10110
8794
11170
16389
22423
21278
7790
5871
7455
8711
9799
10502
10752
11011
11343
11373
11543
11921
12004
12189
12421
12667
13044
13404
13841
14390
14916
15209
15598
15868
16001
15827
15453
14872
13803
12554
11398
10648
10033
9688
9478
9461
9437
9680
9761
9863
9982
10143
10221
10373
10443
10513
10572
10645
10589
10622
10752
10765
10703
10583
10675
10755
11258
11707
12107
12098
11991
12047
11829
11594
11405
11383
11424
11380
11062
10841
9112
10617
11529
12188
12499
12696
12872
12914
13056
13389
13608
13828
14066
14335
14661
15042
15466
15939
16565
16971
17218
17281
17202
17121
16830
16018
14801
13594
12569
11763
11168
11023
10874
10635
10556
10705
10987
10972
11031
11419
11370
11313
11251
11351
11433
11393
11358
11538
11534
11643
11596
11339
11202
11384
11783
12265
12503
12548
12597
12490
12369
12384
12067
11834
12008
12192
11742
11673
14591
19389
24803
20830
8055
13029
13211
13503
13589
13807
14047
14159
14229
14766
15211
15443
16095
16483
16925
17314
17521
17646
17574
17498
17087
16160
15119
13939
12606
11778
11564
11175
10953
10973
11003
11040
11058
11064
11199
11404
11527
11642
11682
11691
11762
11861
11700
11628
11779
11894
11814
11694
11796
12246
12587
12689
12795
12792
12753
12571
12474
12227
12133
12107
12168
11923
11827
14236
18979
24070
21801
9413
7941
9870
10450
11730
12717
13181
13296
14419
14576
14847
15299
15971
16383
16809
17215
17627
17692
17633
17479
17094
16213
15031
14085
12638
11637
11215
11085
10914
10968
10940
10930
10959
11081
11192
11289
11358
11511
11565
11540
11507
11492
11681
11846
11970
12006
11761
11605
11863
12237
12628
12676
12569
12538
12364
12263
12174
12209
12321
11993
11551
11052
12995
17827
23307
24461
12499
7928
9826
10260
11864
12339
12013
12296
12744
13085
13288
13387
13699
13814
14115
16680
17005
17199
17425
17284
17129
16156
14989
13849
12740
11707
11266
10987
11104
11013
10921
11003
11347
11172
11159
11389
11510
11497
11520
11600
11625
11570
11777
11941
11828
11835
11819
11683
11725
11973
12392
12799
12944
12778
12833
12814
12662
12497
12272
12209
12312
12250
12009
11874
14268
18934
24351
21809
9311
8322
10195
10951
11926
12643
12964
13138
13213
13410
13590
13722
13886
14095
14287
14542
14804
15196
15749
16248
16600
16089
14967
13746
12708
11723
11267
11024
10980
10991
10950
11017
11066
11157
11165
11313
11454
11469
11516
11635
11373
11351
11861
12040
11984
11992
11827
11771
11697
11817
12084
12677
13070
12992
12825
12662
12489
12196
11812
12039
12296
11994
11577
12377
16116
21435
25638
16825
7530
9163
10244
11359
12261
12843
13131
13155
13384
13563
13648
13820
14095
14284
14459
14774
15070
15450
15939
16534
17019
17342
17635
17729
17691
17446
11210
10937
10932
10964
11037
11095
11233
11232
11304
11432
11502
11582
11641
11665
11729
11757
11753
11770
11755
11848
11853
11956
11978
11866
11606
11702
12088
12605
12867
12982
12971
12975
12809
12734
12533
12427
12457
12483
12090
11488
13569
18257
24161
24078
11551
8158
9845
10860
12056
12751
13162
13363
13571
13677
13819
14002
14122
14328
14503
14820
15102
15502
15889
16363
16769
17289
17578
17762
17769
17690
17405
16845
15903
14687
10875
10826
10985
11107
11284
11389
11508
11551
11469
11368
11453
11469
11579
11696
11745
11810
11774
11795
11772
11943
11920
11880
11887
12208
12647
12912
12923
12943
12857
12803
12695
12609
12422
12495
12599
12374
11706
12305
16185
21211
25254
16962
8031
9583
10434
11459
12437
12982
13289
13428
13613
13728
13861
14080
14170
14335
14480
14754
14987
15346
15838
16430
16848
17407
17594
17754
17671
17505
17038
16041
14882
13640
12619
11047
11193
11318
11561
11637
11791
11753
11858
11908
11995
11905
11944
11935
12001
12107
12126
12191
12215
12287
12118
11920
11936
12537
12899
13124
13053
13138
13011
12863
12706
12531
12468
12496
12384
11629
12165
15983
21476
25795
17099
8155
9514
10271
11586
12461
12962
13191
13495
13612
13767
13926
14065
14181
14375
14636
14847
15146
15374
15760
16186
16799
17171
17535
17674
17670
17421
17003
16227
15145
13983
12883
12009
11446
11245
11266
11356
11446
11626
11706
11766
11689
11810
11833
11869
11876
11777
11695
11597
11202
11323
11639
11704
11749
12093
12738
13013
13133
13115
13200
13086
12994
12772
12576
12489
12549
12445
11802
12307
15997
21297
25725
17207
7962
9260
10253
11691
12422
13003
13222
13469
13688
13856
13967
14123
14244
14452
14690
14926
15297
15613
16060
16463
17041
17413
17748
17780
17773
17510
17167
16371
15282
14105
13081
12199
11643
11390
11212
11496
11502
11669
11612
11672
11661
11734
11732
11841
11851
11914
11930
11932
11974
11973
12038
12058
12018
11891
12118
12546
13011
13204
13076
12911
12761
12480
12382
12317
12405
12536
12569
12079
11977
14928
19810
25531
20861
8982
9074
10325
11577
12514
13036
13309
13461
13654
13763
13929
14061
14236
14452
14712
14939
15082
15453
15869
16401
16875
17326
17603
17832
17761
17615
17287
16665
15618
14454
13349
12393
11793
11373
11283
11379
11467
11608
11843
11916
11767
11590
11570
11498
11436
11574
11649
11416
11382
11467
11665
11867
11865
11897
12397
12943
13089
13223
13193
13247
13030
12870
12721
12640
12677
12747
12322
11646
13385
17827
23489
24535
12568
8594
10244
10958
12046
12632
13071
13307
13516
13603
13818
13920
13968
14148
14419
14692
14996
15402
15698
16153
16573
17061
17382
17654
17663
17588
17304
16773
15878
14808
13643
12635
11828
11319
11072
10908
10943
11499
11585
11630
11720
11746
11808
11756
11799
11812
11905
11951
11942
11964
11966
11935
11842
12119
12458
12850
12984
13050
12987
12968
12704
12622
12437
12403
12443
12311
11761
11946
15234
20271
25584
19023
8473
9394
10368
11547
12413
12907
13217
13356
13493
13660
13837
13969
14179
14330
14515
14866
15148
15452
15803
16274
16728
17190
17282
17329
17303
17213
16823
16124
15077
13980
12741
11847
11188
11010
10968
11009
11117
11188
11472
11403
11548
11633
11770
11868
11880
11964
11931
11989
11982
11992
11903
12271
12637
13021
13103
13145
13138
13101
12878
12724
12542
12546
12603
12486
11763
12064
15712
20939
25463
16555
8155
9586
10380
11453
12421
12919
13288
13502
13765
13786
13671
13820
13925
14112
14493
14902
15264
15674
16039
16601
17039
17480
17716
17868
17759
17461
17045
16368
15348
14196
13106
12162
11542
11269
11187
11133
11168
11294
11476
11561
11657
11625
11684
11718
11835
11841
11905
11896
11951
12024
11994
11915
12013
12377
12745
13113
13123
13070
13005
12787
12519
12283
12092
12256
12356
12144
11751
13791
18110
23825
23477
10626
8421
9878
11007
12002
12742
13043
13338
13514
13791
13962
14114
14208
14422
14595
14902
15193
15514
15846
16269
16778
17150
17508
17698
17757
17560
17295
16708
15908
14745
13581
12564
11914
11413
11233
11117
11127
11182
11259
11348
11486
11596
11653
11714
11715
11779
11811
11830
11648
11577
11593
11588
11593
12139
12692
13134
13242
13189
13168
13046
12855
12572
12370
12343
12483
12216
11780
13392
17768
23369
24562
12114
8288
10013
11236
12305
12976
13247
13423
13614
13832
13945
14016
14122
14260
14573
14735
15055
15370
15747
16161
16649
17095
17410
17593
17674
17589
17407
16908
16089
15055
13880
12861
12020
11579
11317
11257
11131
11126
11048
11153
11144
11319
11443
11616
11679
11655
11643
11712
11869
11969
11848
11683
11943
12379
12829
13061
13054
12890
12912
12756
12637
12420
12387
12388
12350
11936
12233
15515
20471
25387
18576
8078
9450
10516
11562
12462
12888
13163
13364
13609
13790
13909
13989
14213
14420
14603
14814
15031
15428
15802
16303
16707
17200
17373
17505
17350
17131
16445
15816
14818
13792
12802
12062
11538
11231
11145
11087
11118
11225
11357
11403
11606
11618
11699
11751
11880
11854
11874
11879
11925
11709
11829
12202
12605
12954
13035
13032
12915
12766
12568
12445
12316
12404
12368
11879
12243
15512
20333
25139
17859
7863
9273
10372
11650
12464
13029
13190
13426
13608
13715
13741
13853
13883
14145
14456
14823
15144
15566
15942
16346
16764
17202
17423
17493
17437
17204
16881
16153
15197
14075
13040
12051
11429
11018
10968
10995
11128
11205
11419
11559
11683
11682
11679
11787
11836
11883
11886
11909
11867
11954
11929
11937
11873
12684
12705
12841
12877
12771
12612
12553
12449
12448
12492
12188
11934
14311
18922
24699
22134
9453
9105
10303
11533
12289
12874
13112
13369
13504
13671
13788
14001
14183
14351
14569
14776
15045
15329
15751
16163
16588
16951
17299
17388
17379
17152
16982
16343
15485
14415
13361
12515
11883
11477
11224
11150
11162
11237
11237
11391
11491
11652
11624
11721
11800
11928
11854
11832
11834
11843
11858
11844
11872
11861
11968
11972
11878
12593
12436
12296
12055
12019
12203
12228
11930
12546
16003
21154
25742
16746
7744
9314
10598
11972
12682
13022
13224
13443
13628
13773
13900
14065
14185
14478
14695
14992
15279
15663
15975
16383
16858
17210
17416
17465
17470
17197
16846
16151
15225
14140
13094
12227
11684
11367
11193
11091
11138
11231
11289
11370
11467
11560
11584
11694
11702
11758
11786
11857
11774
11787
11718
11684
11574
11642
11613
11621
11640
12063
12597
12934
13116
12960
13101
13341
13502
13778
13888
14111
14332
14569
14830
15058
15314
15617
16062
16509
16955
17289
17532
17486
17406
17157
16790
16048
15122
14063
13062
12231
11708
11382
11202
11196
11227
11349
11443
11623
11655
11693
11635
11725
11704
11794
11746
11796
11822
11824
11818
11838
11927
11850
11779
11679
12044
12410
12828
12939
12836
12777
12748
12461
12343
12095
12203
12202
12005
11646
12900
16892
22390
25303
13959
7671
9588
10956
13768
13923
14088
14231
14457
14825
15128
15327
15645
16220
16669
17140
17298
17375
17331
17129
16874
16198
15299
14299
13381
12528
11940
11422
11240
11181
11236
11354
11488
11594
11756
11779
11839
11888
11865
11870
11906
11882
11858
11843
11840
11885
11923
11885
11785
11772
12025
12491
12780
12839
12824
12742
12597
12451
12272
12135
12245
12297
12109
11709
14057
18832
24310
22945
9804
8519
9913
10915
12022
12722
13033
13156
13292
13528
14896
15156
15619
16177
16586
17007
17209
17364
17203
17035
16570
15886
14864
13869
12782
11999
11433
11167
10967
10689
11017
11262
11456
11638
11643
11611
11648
11455
11504
11688
12071
12255
12223
12118
12042
11960
11816
11742
11780
12189
12626
12953
12930
12875
12864
12685
12434
12249
12135
12120
12212
11863
12122
15395
20455
25636
18588
8070
9516
10477
11657
12425
12877
12972
13098
13372
13531
13766
13980
14155
14272
14520
14799
17173
17244
17201
16972
16379
15496
14434
13246
12386
11977
11561
11217
11270
11326
11277
11357
11521
11657
11684
11773
11871
11688
11783
11944
11950
11969
11969
11953
11970
12162
11939
11662
11703
12233
12861
13054
12992
12990
12979
12627
12471
12232
12157
12186
12201
11769
12079
15432
20654
25643
18436
7940
9205
10538
11778
12516
12897
13087
13239
13372
13709
13943
13970
14152
14385
14710
14987
15092
15377
15862
16373
16804
17138
17351
13323
12320
11616
11157
11045
10898
11011
11180
11231
11360
11438
11506
11585
11621
11641
11684
11711
11832
11809
11675
11605
11692
11905
11962
11758
11548
11804
12421
12906
13046
12881
12753
12641
12569
12295
12208
12312
12436
12270
11816
12829
16772
22366
25695
14878
7232
9161
10660
11964
12591
13009
13272
13399
13454
13652
13870
13944
14157
14441
14582
14867
15346
15832
16160
16514
17008
17292
17497
17580
17436
17118
16829
16126
10906
10864
11044
11235
11372
11475
11510
11588
11613
11641
11609
11789
11835
11872
11949
11919
11916
11926
11923
11955
11858
11756
11943
12444
12842
13148
13277
13111
13023
12671
12390
12256
12167
12426
12412
12049
12545
15946
21363
25962
18223
7512
8882
10288
11678
12552
12967
13245
13380
13495
13763
13952
14054
14187
14415
14629
14799
15159
15538
15847
16391
16787
17051
17511
17708
17540
17347
17012
16174
15142
14081
12976
12096
11523
11156
11199
11347
11426
11641
11636
11704
11719
11745
11838
11826
11775
11699
11841
11740
11781
11692
11854
12406
12767
13015
12986
12917
12703
12613
12543
12213
12188
12255
12119
11788
13830
18470
23905
23891
10868
8095
10069
10671
11794
12763
13068
13347
13479
13711
13819
13855
14073
14301
14500
14787
15037
15388
15863
16183
16688
17062
17440
17559
17492
17410
17166
16615
15633
14442
13240
12408
11788
11297
11109
11081
11060
11108
11612
11590
11629
11701
11632
11899
11957
11935
11924
11892
11827
11967
12360
12746
13004
12937
12942
12873
12706
12626
12395
12304
12348
12281
11745
12263
15880
21236
25978
18129
8157
9504
10347
11665
12554
13010
13261
13502
13669
13603
13684
13960
14262
14510
14568
14733
15123
15671
16162
16720
17037
17400
17622
17674
17550
17231
16803
16066
15030
13906
12837
11909
11439
11170
11094
11077
11135
11208
11234
11335
11352
11360
11483
11560
11607
11416
12027
12299
12095
11805
12077
12564
12822
12986
13166
13105
12920
12614
12770
12626
12303
12148
12044
11724
13130
17238
23085
25416
13441
8024
9912
11052
12169
12705
13003
13229
13370
13549
13709
13839
14052
14209
14476
14791
15047
15364
15709
16136
16536
17196
17649
17845
17823
17542
17381
16951
16108
14875
13622
12692
11910
11383
11222
11080
11004
11037
11190
11303
11389
11454
11569
11637
11690
11669
11655
11723
11729
11804
11786
11803
12105
12617
12911
13055
13013
12917
12867
12665
12518
12429
12427
12358
12245
11958
13302
17449
23172
25344
13320
7879
9699
10988
12189
12826
13134
13285
13445
13609
13823
13884
14085
14268
14448
14734
14955
15301
15669
16131
16575
16968
17429
17724
17865
17661
17457
17019
16128
14861
13789
12820
12026
11406
11070
11000
10881
10925
11091
11223
11196
11368
11530
11675
11638
11694
11670
11666
11743
11755
11802
11810
11896
11774
11869
12368
12886
13176
13226
13227
13163
13033
12718
12630
12622
12594
12613
12237
12033
14450
19364
25299
22879
9603
8550
10191
11498
12445
13008
13287
13455
13634
13758
13936
14084
14214
14351
14555
14878
15153
15564
15988
16505
16898
17237
17549
17837
17868
17724
17325
16748
15864
14636
13539
12530
11761
11229
11073
11048
11014
11090
11077
11204
11282
11520
11540
11568
11642
11683
11679
11680
11668
11578
11629
11801
11791
12197
12180
12239
12384
12385
11736
12819
17201
22860
25710
15071
7982
9881
10534
11838
12710
13038
13271
13513
13697
13840
13989
14049
14222
14511
14921
15266
15524
15838
16219
16713
17176
17349
17704
17975
17821
17504
16891
16096
14997
13823
12777
11933
11540
11095
10892
10769
10788
10948
11149
11045
11190
11488
11558
11539
11528
11635
11818
11905
11860
11716
11728
11780
11915
11922
11753
11840
12092
12025
11828
12121
12728
13053
12302
12282
12423
12049
11725
13750
18270
24046
24472
11622
8497
10121
10967
12159
12850
13099
13383
13427
13635
13823
13933
14082
14333
14469
14945
15243
15371
15939
16279
16601
17173
17574
17796
17852
17799
17581
16880
15882
14571
13483
12598
11807
11270
11197
11128
11008
11036
11237
11238
11258
11326
11452
11554
11725
11748
11780
11798
11874
11912
11872
11863
11818
11902
11939
12056
12066
11952
12055
12180
12026
11907
12374
12864
12391
12348
12477
12441
12206
11900
14020
18737
24872
24077
10775
8310
9935
11451
12497
13077
13253
13462
13577
13725
14154
14242
14256
14422
14587
14811
15118
15407
15760
16253
16813
17249
17639
17833
17941
17788
17594
17051
16206
14993
13682
12669
12015
11573
11184
10904
10866
11069
11352
11307
11379
11527
11665
11663
11626
11527
11783
11852
11916
11837
11769
11863
11861
11899
11804
11820
11888
12012
12100
12170
12297
12243
12028
12405
12750
12433
12516
12670
12526
12118
11864
14108
18661
24793
23814
10524
8362
10021
11458
12511
13117
13335
13453
13658
13717
13902
14100
14152
14433
14841
15117
15377
15682
15968
16429
16869
17288
17743
17982
17926
17958
17700
17266
16371
15067
13957
12828
11921
11374
11152
11030
10954
11007
11241
11382
11532
11494
11522
11690
11632
11667
11722
11798
11848
11863
11856
11840
11920
11970
11814
11824
11836
11955
11987
12185
12211
11975
12934
12659
12583
12600
12498
12492
12268
11712
13032
17303
23057
25883
15020
8069
9759
10701
12011
12869
13122
13165
13213
13538
13801
13876
14056
14309
14518
14726
15019
15359
15812
16164
16491
17005
17516
17799
17898
17750
17537
17084
16312
15197
13957
12832
11952
11416
11110
10868
10935
10911
10967
11059
11220
11382
11441
11542
11587
11612
11621
11567
11609
11637
11741
11783
11757
11706
11846
11913
11804
11900
12027
12043
11831
12818
12765
12608
12294
12245
12406
12190
11684
12813
16825
22381
25879
15647
7957
9601
10631
11943
12548
12855
13185
13437
13627
13720
13872
14062
14248
14388
14544
14925
15124
15306
15826
16471
17060
17622
17719
17720
17710
17459
16967
16290
15152
13954
12905
12121
11496
11184
11045
10971
10957
11046
11132
11367
11363
11342
11471
11614
11821
11780
11675
11711
11780
11681
11623
11678
11848
11920
11960
11996
11942
11967
11919
11836
11861
12746
12533
12367
12261
12429
12510
12278
11807
14046
18747
24955
23532
10069
8572
10121
11505
12412
12833
13127
13476
13617
13719
13810
14035
14186
14379
14574
14873
15166
15416
15758
16315
16876
17253
17691
17970
17962
17846
17570
17002
16050
14835
13759
12725
11886
11373
11276
11226
11141
11047
11101
11218
11323
11372
11468
11686
11715
11667
11679
11792
11814
11828
11948
12130
11974
11929
11770
11797
11888
12081
12244
12110
11905
13025
12843
12600
12267
12278
12644
12566
11950
12286
15692
21044
26025
18911
7930
9078
10525
11971
12788
13126
13241
13474
13597
13831
13982
14024
14127
14417
14647
14765
15223
15704
16043
16534
17036
17450
17713
17819
17818
17776
17347
16578
15629
14401
13255
12443
11755
11354
11141
11000
11077
11192
11224
11288
11330
11363
11428
11628
11733
11725
11719
11721
11731
11757
11781
11806
11813
11848
11851
11912
11918
11921
11873
12031
12511
12332
12169
12240
12299
11942
11514
13504
18475
24301
24932
11716
8194
9978
11070
12186
12844
13100
13312
13460
13596
13931
13963
14022
14363
14657
14848
15072
15306
15734
16238
16653
17124
17485
17754
17639
17514
17381
16886
15919
14866
13655
12596
11827
11331
10974
10893
10971
11009
11151
11350
11355
11485
11612
11519
11512
11614
11743
11828
11916
11833
11758
11789
11821
11659
11744
11830
11736
11702
12167
12592
12825
13012
13049
12217
12141
11703
12814
16925
22387
25838
15297
7867
9516
10432
11902
12654
12916
13092
13392
13724
13902
13885
13994
14317
14512
14614
14933
15342
15611
16073
16544
17057
17421
17666
17751
17715
17380
16912
16197
15114
13940
12901
12011
11599
11404
11110
10994
11090
11220
11223
11143
11382
11562
11576
11510
11680
11729
11719
11759
11827
11873
11830
11821
11810
11883
11948
11957
11812
11753
12137
12531
13025
13223
12994
12893
12909
11696
13838
18564
24743
23973
10223
8246
9888
11379
12267
12731
13016
13185
13415
13703
13802
13886
14104
14309
14532
14712
14961
15331
15749
16237
16667
17097
17529
17736
17702
17646
17434
16769
15766
14699
13674
12609
11810
11432
11218
11070
10961
10991
11190
11406
11396
11490
11537
11635
11750
11690
11677
11788
11702
11671
11850
11863
11819
11851
11913
11957
11813
11716
11837
12470
12918
13087
13034
12946
12970
12780
12598
12343
12205
25875
15473
7496
9256
10691
11940
12716
13116
13264
13412
13469
13616
13850
14047
14174
14289
14608
15025
15385
15675
16118
16543
17104
17495
17719
17840
17717
17510
17166
16287
15207
14147
13037
12152
11523
11209
11006
10961
10947
11063
11205
11342
11430
11446
11535
11659
11742
11799
11821
11779
11688
11786
11807
11872
11949
12043
11990
11887
11811
12002
12525
12936
13115
13048
12976
12975
12728
12507
12312
12275
12371
12242
11693
9413
10545
11902
12707
13030
13251
13425
13555
13702
13844
13981
14159
14483
14846
15060
15283
15633
16206
16692
17115
17570
17750
17748
17649
17323
16765
16023
14905
13719
12709
11849
11259
11156
11125
11030
11056
11108
11146
11302
11317
11341
11556
11639
11767
11740
11705
11717
11707
11772
11826
11736
11876
11885
11835
11702
12017
12520
12917
13033
12955
12849
12664
12567
12501
12327
12244
12192
12092
11655
12660
16868
22558
25879
15435
13096
13268
13504
13757
13905
14090
14248
14417
14654
15114
15389
15633
16044
16720
17201
17440
17590
17738
17604
17199
16670
15793
14717
13468
12497
11868
11469
11187
10955
10955
11061
11032
11168
11285
11345
11545
11572
11598
11731
11790
11848
11836
11763
11813
11844
11907
11858
11741
11736
12091
12470
12770
12925
12807
12878
12930
12774
12508
12309
12281
12334
12315
11679
12419
16451
22174
26007
16399
8037
9400
10622
11908
12582
13949
14165
14410
14635
14888
15216
15776
16209
16679
17156
17532
17800
17700
17672
17439
16792
15964
14822
13613
12543
11923
11329
11238
11095
11007
11060
11103
11256
11362
11392
11398
11565
11709
11678
11650
11837
11813
11758
11780
11883
11775
11692
11661
11986
12406
12818
12914
12872
12878
12860
12648
12330
12128
12159
12296
12164
11568
12436
16397
22325
25897
15437
7901
9473
10605
11759
12426
12810
13040
13204
13346
13536
13642
15409
15815
16389
16845
17200
17582
17713
17472
17195
16664
15656
14534
13437
12433
11663
11242
11003
10851
10938
11131
11066
11335
11389
11352
11504
11571
11585
11586
11500
11634
11827
11910
11815
11802
11695
11858
12249
12617
12811
12869
12834
12805
12635
12570
12325
12201
12194
12126
11703
11592
14379
19741
25735
20877
8429
8825
10212
11540
12420
12847
13042
13267
13426
13474
13659
13820
13917
14253
14387
14678
15090
15362
15809
16339
16673
15879
14817
13792
12715
11898
11454
11190
11046
10952
11003
11195
11282
11360
11400
11379
11491
11638
11719
11745
11716
11804
11797
11810
11844
11821
11723
11947
12347
12674
12993
12983
12881
12840
12608
12323
12294
12320
12396
12275
11638
12002
15588
21242
26010
18058
7961
9254
10431
11675
12543
12958
13096
13246
13440
13678
13827
13915
14065
14340
14647
14853
15174
15611
16005
16407
16870
17233
17512
17575
17489
17354
17009
11112
10930
10905
11031
11130
11308
11401
11339
11587
11742
11720
11758
11828
11825
11901
11842
11865
11855
11769
11665
11863
12307
12678
12977
13014
12910
12876
12660
12442
12224
12178
12239
11985
11463
12590
16603
22146
25901
15946
7891
9826
10599
11700
12526
12885
13058
13254
13379
13620
13760
13930
14102
14206
14503
14733
15163
15614
15934
16397
16896
17184
17432
17469
17348
17066
16616
15800
14695
13570
12621
11800
11336
11117
10990
11534
11603
11704
11726
11707
11835
11822
11819
12033
11901
11857
11722
11951
12422
12768
13024
13077
12982
12791
12691
12542
12234
12137
12312
12211
11561
12270
16371
22179
25960
16045
8169
9706
10639
11650
12471
12854
13117
13331
13407
13532
13816
13960
14078
14252
14636
14951
15170
15455
15904
16328
16736
17284
17385
17333
17270
17078
16548
15604
14531
13435
12485
11740
11301
11152
11154
11008
11071
11204
11323
11253
11403
11587
11688
11605
11649
11755
11697
11764
11962
12493
13053
13147
12874
12987
12938
12580
12540
12390
12223
12303
12233
11745
12479
16389
22172
25943
15619
7888
9435
10683
11987
12555
12904
13252
13398
13498
13681
13804
13814
14106
14548
14758
14914
15257
15649
15979
16491
16973
17031
17446
17606
17457
17208
16721
15940
14835
13670
12735
