17649
17858
17733
17444
16852
15957
14882
13681
12639
11882
11401
11048
10986
10919
10992
11116
11276
11350
11423
11516
11609
11592
11568
11582
11695
11838
11772
11787
11822
11855
11911
11906
11708
11710
12022
12413
12738
12983
12883
12835
12778
12519
12321
12155
12171
12186
12084
11845
12731
16314
21438
24999
15121
6763
8970
10274
11547
12471
12963
13135
13374
13554
13761
13909
14000
14190
14366
14671
14872
15297
15623
16103
16523
17088
17645
17755
17681
17694
17441
17013
16116
15040
13912
12862
12044
11514
11255
11136
11019
11022
11168
11292
11482
11446
11587
11645
11659
11682
11770
11822
11854
11827
11805
11787
11836
11895
11784
11766
11888
12288
12643
12974
13033
12977
12898
12823
12576
12386
12191
12195
12305
12142
11900
13755
18104
23469
24004
11019
7368
9341
10422
11676
12567
12924
13104
13268
13576
13779
13937
14083
14332
14626
14789
14979
15270
15829
16203
16761
17172
17587
17715
17705
17507
17140
16503
15582
14413
13435
12452
11764
11330
11098
10984
11038
11023
11127
11318
11370
11456
11507
11631
11739
11796
11788
11815
11739
11882
11794
11782
11908
11976
11927
11916
12120
12496
12811
13028
12998
12891
12861
12605
12456
12223
12207
12181
12169
11697
12645
16343
21512
25225
15191
7128
9115
10143
11524
12487
12929
13203
13398
13576
13773
13916
14051
14265
14428
14690
14886
15270
15587
15994
16751
17288
17551
17780
17743
17629
17218
16724
15966
14809
13706
12685
11958
11484
11320
11144
11087
11115
11217
11240
11406
11504
11619
11676
11718
11753
11860
11911
11810
11863
11882
11925
11943
11960
12012
11980
11855
11913
12269
12794
13128
13215
13178
13161
12984
12729
12547
12444
12464
12441
12230
11997
14389
18831
24432
22147
8865
8069
9872
11274
12421
13084
13354
13389
13554
13769
13938
14053
14159
14309
14412
14733
15169
15737
16055
16489
16960
17360
17577
17678
17545
17347
16945
16320
15388
14363
13240
12363
11702
11301
11090
11003
11027
11200
11348
11339
11518
11565
11619
11628
11738
11768
11750
11796
11857
11865
11926
11890
11874
11839
11917
11983
12002
12019
11973
12421
12916
13295
13260
13152
13057
13019
12785
12543
12446
12444
12406
12240
12117
14099
18293
24002
23265
9681
7661
9549
11025
12227
12986
13280
13487
13589
13760
13964
14086
14156
14334
14671
14960
15287
15627
16045
16545
17041
17402
17637
17695
17669
17485
17184
16495
15699
14646
13603
12593
11926
11539
11302
11104
11127
11281
11344
11420
11484
11564
11571
11657
11689
11825
11826
11878
11817
11784
11766
11824
11839
11903
11958
12022
12095
12071
11951
11868
12361
12859
13232
13304
13230
13076
13003
12768
12623
12496
12503
12543
12340
11949
13709
17885
23390
23914
10667
7227
9394
10865
11999
12833
13155
13433
13551
13794
13963
14167
14336
14508
14666
14947
15181
15511
15944
16446
16940
17378
17653
17726
17677
17434
17145
16541
15720
14684
13654
12638
11960
11551
11337
11134
11112
11156
11293
11423
11546
11644
11735
11666
11644
11748
11836
11888
11849
11831
11824
11889
11866
11771
11795
11956
12021
11980
11911
12196
12718
13089
13204
13124
13110
12963
12762
12588
12459
12455
12717
12563
12201
13195
17055
22363
25485
14592
6851
9111
10499
11792
12649
13154
13344
13515
13711
13899
14045
14225
14386
14641
14821
15098
15356
15855
16309
16853
17266
17629
17756
17778
17575
17309
16809
15943
14877
13815
12878
11994
11507
11213
11146
11032
11105
11187
11344
11360
11475
11584
11676
11683
11771
11813
11819
11798
11786
11812
11771
11811
11790
11921
11809
11817
11857
12231
12660
13011
12993
12926
12876
12737
12600
12410
12335
12308
12346
12103
12103
14270
18633
23745
22290
9381
7682
9727
11444
12457
13076
13275
13538
13630
13790
13957
14040
14172
14573
14793
15073
15463
15837
16243
16602
17106
17388
17661
17817
17809
17534
17226
16458
15549
14406
13301
12401
11820
11500
11312
11257
11209
11242
11255
11407
11500
11644
11618
11737
11832
11933
11864
11882
11854
11831
11833
11805
11821
11862
12018
11900
11871
11857
12358
12783
13042
13003
12955
12844
12755
12603
12366
12284
12291
12315
12095
12180
14749
19376
24797
21867
8722
8951
10156
11588
12491
13030
13223
13475
13590
13743
13863
14118
14309
14638
14817
15065
15299
15628
16045
16475
16938
17292
17535
17598
17583
17426
17017
16269
15340
14172
13207
12251
11651
11278
11105
10989
11032
11154
11176
11316
11427
11574
11584
11690
11669
11761
11747
11753
11731
11812
11818
11892
11845
11917
11951
11877
11765
11993
12520
12918
13071
12930
12886
12769
12642
12413
12246
12228
12315
12284
12022
12855
16442
21577
23930
10784
7104
9252
10673
11935
12670
13066
13296
13460
13602
13739
13846
14125
14263
14494
14655
14985
15338
15738
16133
16649
17022
17375
17513
17518
17359
17121
16706
15860
14822
13730
12745
11897
11511
11201
11047
10967
11099
11197
11307
11341
11464
11566
11651
11658
11665
11752
11756
11817
11761
11846
11810
11882
11884
12012
11985
11876
11711
12102
12619
13003
13006
12940
13000
12867
12692
12444
12394
12394
12422
12225
11980
14773
19404
24781
21389
8218
7831
9620
11103
12196
12906
13181
13382
13577
13760
13965
14108
14273
14500
14713
14918
15249
15634
16091
16454
16987
17383
17691
17800
17871
17655
17304
16666
15789
14757
13600
12601
11894
11489
11256
11175
11064
11158
11186
11371
11463
11581
11541
11618
11720
11867
11842
11803
11850
11892
11887
11838
11825
11901
11909
11763
11808
12112
12535
12809
12982
12882
12838
12659
12438
12277
12147
12147
12190
12059
12208
15011
19649
24818
20771
8172
8250
9795
10939
12107
12750
13080
13286
13519
13596
13781
13934
14161
14327
14594
14797
15091
15471
15861
16308
16762
17194
17473
17712
17605
17429
17062
16490
15503
14495
13359
12467
11818
11454
11203
11099
11061
11151
11250
11347
11500
11575
11725
11724
11850
11856
11883
11855
11993
11938
11956
11987
12012
12066
11997
11940
11990
12351
12818
13097
13077
13043
12941
12804
12618
12497
12324
12427
12426
12014
12351
15597
20428
25508
18671
7615
8810
10021
11411
12485
13020
13232
13427
13589
13791
13882
14086
14275
14496
14622
14992
15277
15615
15939
16496
16944
17393
17671
17722
17666
17407
16983
16237
15268
14031
13047
12196
11633
11263
11116
10938
10992
11075
11208
11322
11453
11539
11548
11616
11638
11667
11716
11780
11815
11902
11850
11920
11834
12011
11978
11948
11855
12123
12562
12963
13051
12990
12950
12868
12699
12491
12347
12279
12300
12064
11998
14143
18472
24238
23012
9643
7858
9572
11083
12153
12854
13045
13240
13423
13588
13720
13958
14130
14354
14527
14781
15128
15468
15902
16245
16789
17225
17608
17716
17783
17552
17274
16733
15791
14637
13575
12609
11889
11444
11185
11184
11140
11248
11282
11353
11387
11515
11515
11584
11579
11677
11703
11744
11774
11768
11848
11802
11833
11865
11887
11912
11981
11873
11896
12272
12829
13065
13146
13046
13059
12934
12710
12472
12431
12418
12474
12156
12269
14938
19608
25113
20837
8052
8241
9936
11330
12426
12915
13195
13347
13587
13651
13848
14054
14271
14418
14639
14950
15262
15650
15980
16503
16975
17487
17736
17926
17809
17681
17237
16616
15712
14638
13539
12609
11881
11487
11278
11161
11164
11150
11236
11345
11480
11530
11629
11609
11732
11711
11761
11804
11826
11772
11791
11827
11825
11821
11844
11928
11990
11991
11846
11993
12448
12916
13139
13032
12920
12876
12650
12557
12346
12399
12369
12281
11970
13054
16665
21854
25355
15385
7258
9296
10347
11613
12588
12977
13223
13342
13577
13655
13907
14093
14314
14446
14699
14959
15331
15770
16110
16560
17052
17471
17687
17758
17628
17394
16915
16174
15111
13995
12919
12174
11585
11307
11070
11076
11118
11163
11219
11319
11412
11503
11661
11715
11799
11814
11946
11915
11869
11817
11871
11856
11935
11927
11983
12032
12133
12153
11977
12016
12465
12880
13090
13054
13011
13008
12846
12713
12490
12447
12446
12491
12089
12352
15275
20118
25463
20195
8085
8849
10194
11439
12447
12968
13174
13271
13492
13726
13955
14062
14358
14597
14691
14851
15089
15387
15929
16387
16906
17402
17674
17777
17680
17520
17101
16511
15515
14456
13341
12487
11724
11390
11178
11032
10901
11030
11212
11264
11345
11482
11645
11684
11655
11672
11747
11692
11758
11799
11818
11769
11843
11849
11885
11870
11978
11966
11888
12143
12729
13034
13188
13059
13067
13073
12790
12671
12486
12438
12498
12467
12023
12638
16076
21336
25882
17831
7302
8909
10281
11569
12473
13081
13407
13576
13758
13868
14011
14186
14418
14488
14647
14928
15358
15624
16064
16689
17224
17488
17842
17973
17833
17619
17133
16325
15422
14352
13163
12463
11837
11438
11211
11103
10985
11137
11272
11379
11553
11651
11745
11796
11566
11592
11849
11820
11887
12031
11938
11865
11826
11756
11850
11765
11985
11835
11873
12408
12927
13202
13216
13073
13028
12651
12490
12474
12402
12345
12350
12235
12400
15070
19582
25032
21486
8314
7850
9918
11358
12256
12720
13207
13280
13755
14028
14096
14339
14518
14515
14689
14823
15041
15725
16149
16630
17039
17386
17556
17666
17696
17621
17224
16791
15828
14721
13686
12758
12017
11486
11199
11092
11099
10941
11188
11468
11678
11594
11592
11699
11822
11744
11799
11860
11859
11699
11847
11891
12003
12012
11966
11890
11983
12343
12805
13095
13142
13122
13083
12961
12647
12481
12445
12492
12582
12372
12150
14120
18547
23978
23835
10676
7579
9578
10705
11967
12708
13046
13301
13452
13641
13777
13933
14086
14330
14558
14871
14993
15281
15660
16133
16604
17069
17389
17388
17567
17535
17366
16742
15795
14614
13483
12476
11775
11313
11070
10921
10831
10964
11140
11211
11235
11239
11333
11523
11536
11629
11695
11835
11807
11628
11730
12022
12008
11812
11748
11989
12242
12613
12897
12961
12912
12790
12547
12472
12339
12244
12397
12346
12176
12178
14282
18508
23668
22306
9768
8003
10086
11007
12036
12867
13141
13290
13473
13647
13795
13957
14252
14641
15051
15132
14922
15134
15587
16147
16726
17208
17636
17848
17627
17292
17044
16450
15595
14562
13408
12421
11850
11497
11244
11028
10991
11154
11346
11272
11340
11459
11537
11780
11893
11821
11867
11931
11919
11909
11946
11832
11841
11729
11949
12406
12730
12993
12939
12921
12629
12571
12539
12268
12140
12280
12244
11825
12404
15927
21115
25778
17624
7640
9272
10207
11427
12317
12874
13054
13217
13402
13618
13789
14009
14203
14341
14351
14756
15297
15640
16122
16536
17077
17328
17646
17676
17561
17336
16929
15996
14991
13893
12929
11910
11388
11130
11039
11019
10946
11050
11209
11322
11480
11482
11495
11736
11745
11672
11780
11864
11825
11773
11816
11823
11675
12079
12506
12828
12951
12933
12825
12689
12608
12376
12190
12272
12311
12242
11831
12196
15614
20842
25751
18008
7330
8775
10344
11582
12358
12957
13102
13172
13376
13541
13751
13946
14092
14337
14560
14724
15109
15673
15968
16368
16893
17338
17500
17517
17619
17436
16976
16142
15118
13954
12982
12101
11564
11213
11028
10983
11024
11000
11184
11384
11484
11462
11555
11588
11559
11713
11717
11681
11893
11970
11803
11737
11701
12130
12550
12873
12957
12920
12815
12718
12444
12276
12119
12092
12087
11967
11624
12956
17077
22794
25345
13483
7000
9031
10509
11667
12468
12861
13096
13266
13468
13620
13852
14021
14157
14245
14506
14865
15248
15666
16154
16640
17075
17449
17551
17606
17456
17229
16702
15796
14669
13660
12754
12058
11536
11204
11028
10987
11043
11124
11328
11417
11564
11620
11678
11732
11934
11916
11949
11863
11872
11954
11927
11810
11771
11931
12310
12732
13037
12977
12941
12885
12725
12471
12370
12314
12374
12245
11808
13012
17059
22614
25724
14973
7345
9341
10618
11941
12726
13064
13191
13389
13632
13778
13893
13937
14126
14339
14668
14895
15269
15652
16136
16497
17064
17453
17610
17535
17404
17097
16570
15828
14729
13483
12591
11872
11362
11187
10986
11017
11063
11159
11228
11387
11412
11526
11559
11613
11723
11724
11718
11758
11816
11809
11845
11741
11694
11805
12211
12606
12946
12873
12837
12781
12642
12419
12199
12157
12295
12275
11943
12092
14972
19725
25038
20214
7992
8651
10145
11248
12193
12901
13107
13259
13479
13713
13875
14119
14218
14408
14521
14758
15129
15461
15798
16356
16849
17234
17437
17484
17469
17211
16833
16110
15201
14057
12906
12158
11682
11338
11070
11049
11065
11154
11283
11426
11510
11684
11718
11802
11847
11778
11716
11858
11889
11945
11979
11900
11746
11850
12242
12704
13018
12892
12757
12799
12658
12547
12332
12157
12239
12225
11894
11933
14635
19306
25119
21258
8505
8462
9830
11181
12238
12845
13114
13199
13317
13622
13791
13874
14049
14290
14429
14715
15003
15464
15823
16288
16651
17156
17403
17533
17466
17306
16901
16094
15103
14019
12995
12047
11480
11122
11099
11059
11157
11176
11290
11349
11566
11598
11613
11656
11774
11720
11779
11813
11828
11845
11739
11935
11892
11794
11752
12229
12739
13001
12900
12869
12764
12647
12576
12420
12187
12303
12377
12077
11773
13918
18447
24354
23516
9982
7950
9653
11116
12125
12809
12972
13174
13387
13551
13673
13954
14104
14322
14499
14723
15158
15531
15878
16269
16775
17193
17524
17555
17558
17468
17146
16470
15467
14427
13406
12479
11760
11370
11194
11165
11151
11228
11292
11316
11336
11483
11622
11812
11761
11765
11779
11842
11840
11810
11758
11813
11754
11874
11867
11777
12051
12548
12946
13023
12962
12872
12876
12587
12493
12297
12252
12305
12200
11689
12720
16652
22156
25703
14952
7214
9154
10426
11729
12626
12965
13099
13333
13638
13691
13874
13950
14196
14548
14772
14926
15251
15611
16031
16494
16941
17326
17558
17643
17519
17247
16725
16006
14903
13789
12767
12033
11515
11225
11125
11115
11052
11170
11261
11386
11548
11615
11681
11639
11683
11738
11816
11849
11842
11796
11835
11714
11735
11873
12027
12017
11892
11874
12362
12816
13119
13164
13163
13062
12908
12828
12567
12456
12568
12621
12192
12253
15024
19831
25468
21188
8042
8338
9995
11503
12475
12984
13268
13450
13588
13788
13904
13991
14256
14453
14721
14890
15316
15659
16094
16465
16905
17235
17634
17746
17603
17415
17209
16546
15563
14452
13451
12542
11746
11324
11251
11212
11132
11130
11185
11290
11387
11498
11620
11606
11648
11665
11695
11641
11601
11710
11857
11849
11764
11834
12041
11970
11817
11763
12182
12674
13064
12967
12886
12882
12769
12579
12342
12296
12451
12438
12019
12203
15174
19905
25116
20428
7713
8418
9948
11178
12200
12947
13185
13353
13484
13683
13805
13973
14169
14429
14669
14909
15191
15589
15974
16423
16984
17325
17521
17530
17596
17362
16949
16222
15198
14132
13114
12329
11699
11323
11076
11065
11054
11112
11279
11444
11536
11649
11623
11721
11793
11811
11811
11796
11855
11944
11834
11880
11995
12084
11925
11889
12139
12589
12917
13220
13189
13064
12893
12632
12515
12454
12495
12435
12404
12014
12822
16403
21851
25816
15861
7202
9274
10439
11656
12567
12977
13391
13553
13694
13801
13969
14068
14317
14575
14810
15061
15304
15698
16180
16640
17104
17413
17613
17574
17407
17236
16786
16029
14902
13796
12842
12092
11599
11335
11204
11201
11197
11258
11328
11469
11637
11648
11805
11957
11903
11868
11947
11924
11935
11931
11951
11901
11993
12038
12001
11813
11980
12459
12944
13164
13145
13138
13023
12810
12629
12454
12353
12377
12337
12170
12393
15381
20085
25601
20082
7702
8620
10143
11515
12542
13040
13228
13400
13648
13798
13897
14046
14151
14424
14669
15046
15269
15661
16089
16571
16946
17283
17599
17759
17657
17458
17105
16401
15381
14372
13319
12402
11871
11462
11270
11079
11147
11308
11463
11473
11547
11597
11667
11721
11885
11825
11879
11854
11792
11793
11900
11893
11983
11995
11823
11781
12007
12453
12892
13158
12994
13045
12917
12712
12579
12363
12364
12347
12201
11953
13005
16772
22178
25516
14299
6896
9059
10401
11872
12648
13028
13162
13306
13520
13782
13890
14086
14230
14344
14683
15021
15327
15699
16127
16555
17021
17383
17601
17589
17528
17213
16811
16048
15037
13836
12846
12072
11586
11368
11172
11070
11114
11303
11324
11362
11569
11664
11617
11659
11756
11838
11831
11841
11818
11948
11894
11892
12026
12049
11887
11826
12238
12822
13088
13055
13091
13125
12949
12742
12531
12360
12412
12374
12175
12182
14675
19334
24983
22308
8576
8010
9861
11277
12287
13008
13263
13372
13369
13569
13832
14022
14155
14359
14622
14875
15102
15452
15781
16254
16783
17182
17483
17573
17581
17379
16986
16286
15509
14389
13281
12309
11690
11250
11086
10926
10992
11071
11199
11275
11414
11498
11610
11640
11767
11730
11737
11759
11777
11756
11706
11708
11875
11814
11715
11879
12213
12658
12910
13059
12964
12906
12699
12535
12317
12233
12292
12272
12019
12074
14668
19209
24706
21567
8270
8189
9812
11085
12064
12699
13064
13226
13371
13505
13753
13913
14080
14314
14480
14764
15174
15562
15856
16355
16766
17094
17287
17482
17375
17119
16868
16288
15337
14286
13236
12380
11760
11326
11145
10998
10990
11059
11317
11504
11568
11572
11658
11699
11756
11666
11725
11763
11846
11945
11942
11947
11929
11810
11777
12116
12539
12919
13104
12953
12823
12729
12404
12292
12167
12189
12167
12159
11920
13354
17387
23127
24837
12027
7645
9540
10763
11992
12791
13076
13197
13284
13477
13579
13910
14100
14293
14506
14776
14969
15319
15793
16202
16561
17018
17325
17363
17340
17193
16944
16376
15615
14663
13557
12567
11891
11409
11250
10989
10959
11042
11218
11333
11410
11537
11636
11657
11725
11797
11755
11696
11749
11824
11738
11923
11887
11887
11824
12154
12632
13032
13085
12961
12830
12891
12669
12454
12243
12205
12276
12151
11862
13343
17505
23222
24750
11605
7326
9440
10844
11927
12649
12999
13193
13404
13565
13658
13829
14077
14246
14439
14716
14935
15274
15679
16155
16650
16987
17354
17479
17489
17305
17078
16529
15693
14650
13502
12592
11876
11486
11272
11211
11043
11064
11198
11425
11572
11735
11720
11771
11751
11759
11770
11874
11873
11898
11934
11818
11792
11896
12218
12598
12932
12971
12910
12846
12688
12441
12100
12162
12338
12277
12039
11848
14074
18824
24510
22810
9176
7889
9707
11127
12200
12831
13047
13351
13513
13611
13816
13994
14155
14454
14637
14837
15079
15395
15830
16265
16708
17199
17601
17647
17583
17280
16970
16252
15381
14322
13295
12420
11805
11416
11237
11087
11062
11114
11269
11450
11412
11581
11721
11701
11712
11710
11747
11809
11817
11917
11803
11771
11819
12175
12594
12907
12916
12822
12716
12598
12409
12145
12071
12088
12203
11857
12051
14811
19613
24783
20476
7815
8503
10035
11294
12173
12817
12947
13176
13383
13562
13750
13801
14028
14316
14555
14752
15146
15476
15939
16383
16891
17262
17459
17441
17434
17162
16704
15887
15030
13998
12895
12078
11510
11305
11082
11005
10942
11059
11175
11272
11395
11564
11694
11799
11852
11887
11848
11878
11722
11854
11771
11629
11977
12424
12840
13008
12891
12858
12684
12353
12340
12139
12183
12189
12070
11619
12759
16614
22161
25321
14288
7390
9515
10548
11725
12519
12890
13140
13301
13442
13584
13821
13897
14160
14375
14658
14928
15279
15632
16055
16590
17111
17348
17427
17437
17240
17009
16436
15563
14468
13467
12568
11936
11411
11237
11078
11015
11093
11244
11386
11458
11605
11647
11758
11809
11847
11839
11849
11832
12053
11920
11823
11792
12079
12489
12859
12965
12925
12893
12853
12656
12421
12234
12169
12144
12133
11699
12366
16108
21727
25803
16205
7509
9238
10362
11695
12578
12935
13109
13331
13507
13653
13849
14074
14167
14336
14552
14880
15199
15712
16146
16522
16884
17358
17521
17535
17375
17078
16531
15765
14706
13647
12603
11910
11529
11230
11096
10952
11026
11120
11278
11399
11660
11635
11655
11661
11772
11789
11792
11818
11859
11896
11939
11899
11786
11852
12321
12853
13032
12864
12821
12831
12595
12462
12239
12245
12208
12112
11757
12180
15482
20798
25747
18283
7178
8625
10102
11514
12288
12701
13062
13283
13361
13407
13541
13770
14095
14265
14579
14782
15123
15480
15956
16413
16882
17284
17476
17488
17323
17098
16696
16037
15015
13970
12848
12122
11615
11310
11101
11064
11115
11244
11327
11417
11526
11539
11614
11682
11786
11815
11879
11788
11874
11834
11889
11847
11975
11885
11829
11828
12065
12552
12975
13078
12974
12937
12953
12781
12556
12300
12394
12493
12293
11973
12926
16729
22210
25885
15468
7028
9013
10350
11697
12637
13077
13254
13472
13625
13821
13839
13979
14135
14393
14467
14953
15333
15792
16239
16633
17024
17434
17691
17632
17480
17190
16846
16212
15146
14050
12958
12070
11550
11202
11063
10920
11036
11155
11306
11403
11432
11590
11668
11660
11721
11774
11759
11793
11726
11761
11862
11908
11999
12006
11812
11821
12228
12692
12647
12675
12807
12873
12452
12366
12220
12217
12289
12339
11917
12163
15228
20139
25492
20829
7951
8498
9960
11204
12266
12790
13058
13210
13421
13527
13705
13751
14178
14399
14563
14767
14996
15505
15995
16551
16910
17239
17500
17570
17464
17321
16894
16170
15094
14061
13094
12244
11583
11256
11078
11000
10925
11057
11144
11211
11383
11451
11594
11695
11801
11740
11922
11865
11977
11750
11764
11860
12052
11933
11949
11895
12196
12634
13006
13098
12963
12909
12872
12645
12401
12348
12406
12550
12282
12062
14141
18612
24240
23758
10211
7886
9798
10938
12015
12793
13137
13310
13553
13710
13858
13931
14194
14271
14616
14842
15096
15391
15904
16330
16862
17272
17656
17757
17695
17532
17106
16553
15664
14594
13414
12388
11797
11494
11185
11009
10963
11181
11347
11465
11487
11552
11605
11705
11720
11795
11881
11811
11860
11734
11884
11956
11944
11962
11869
11602
11879
12455
12894
13084
13032
12989
13050
12821
12626
12382
12241
12247
12270
11956
12610
16122
21536
25973
17152
7270
8882
10221
11668
12605
12960
13172
13312
13625
13829
13975
13978
14043
14355
14586
14936
15287
15659
15990
16517
17061
17492
17644
17766
17630
17386
16870
16068
15015
13892
12841
12003
11474
11142
11052
10926
11048
11083
11219
11260
11464
11555
11498
11657
11679
11671
11811
11686
11800
11721
11780
11764
11933
11950
11961
11880
11964
12426
12934
13157
12978
12984
12887
12673
12493
12453
12286
12409
12376
12025
12823
16413
21792
25884
16231
7112
9016
10310
11698
12500
12837
13031
13370
13569
13752
13828
14064
14254
14517
14828
15043
15333
15734
16227
16698
17124
17449
17738
17874
17780
17462
16901
16084
15277
14068
12965
12086
11476
11272
11080
10971
10990
11110
11290
11373
11402
11554
11590
11646
11645
11703
11744
11819
11780
11983
11886
11917
11968
11963
11914
11859
12159
12685
13043
13079
12975
12936
12775
12597
12458
12229
12226
12179
11924
12046
14912
19833
25491
21858
8328
8216
9763
11051
12173
12765
13111
13284
13433
13602
13795
13997
14114
14332
14595
14936
15240
15618
16026
16480
16906
17394
17651
17679
17670
17433
17104
16362
15472
14327
13220
12149
11584
11317
11101
11001
10958
10848
11124
11317
11523
11687
11687
11699
11710
11728
11800
11777
11751
11646
11698
11951
11957
11857
11781
12063
12575
12918
12920
12902
12804
12620
12539
12433
12340
12381
12392
12095
11849
13793
18199
23818
23944
10778
7750
9631
10774
11921
12741
13048
13329
13532
13624
13752
13914
13952
14224
14538
14772
15078
15439
15826
16247
16808
17172
17494
17633
17678
17375
17121
16451
15614
14490
13364
12409
11597
11210
11099
11093
10980
11095
11166
11379
11465
11611
11580
11548
11626
11914
11787
11706
11890
11979
11940
11923
11923
11973
11905
11777
11968
12340
12866
13059
12920
12855
12782
12630
12480
12329
12337
12214
12086
11800
13399
17559
23313
25253
12711
7389
9365
10695
11822
12649
13099
13331
13408
13605
13774
13983
14051
14167
14401
14707
14982
15418
15865
16285
16787
17171
17473
17657
17641
17453
17197
16744
15953
14790
13664
12597
11810
11315
11215
11166
11105
11176
11317
11324
11407
11503
11594
11578
11662
11644
11742
11782
11832
12011
11996
12028
11931
11978
12038
11977
11836
12055
12475
12882
13048
13085
13040
12949
12748
12632
12455
12425
12427
12327
12034
12727
16321
21756
25948
16702
7243
8967
10355
11722
12578
12955
13171
13433
13538
13607
13774
14062
14419
14618
14696
14922
15289
15676
16084
16551
16979
17419
17573
17749
17654
17372
16987
16242
15337
14229
13167
12150
11606
11296
11110
10963
11085
11166
11321
11381
11475
11442
11666
11571
11651
11692
11733
11656
11711
11812
11795
11809
11898
11883
11827
11969
11882
11747
11954
12558
12943
13131
13109
13168
13061
12876
12632
12562
12505
12522
12469
12160
12781
16207
21462
25927
17107
7090
8993
10405
11950
12764
13172
13344
13511
13581
13812
14059
14178
14241
14455
14679
15019
15402
15767
16182
16575
17031
17389
17770
17748
17708
17410
17022
16498
15584
14407
13294
12314
11638
11316
11146
11122
10984
11138
11301
11381
11468
11635
11693
11681
11750
11824
11744
11741
11650
11796
11736
11883
11911
11949
11841
11868
11790
12093
12580
12894
13040
12946
12882
12684
12652
12415
12331
12164
12287
12071
11967
14246
18858
24354
23119
9434
7817
9783
10852
11983
12694
12979
13103
13264
13483
13653
13843
14069
14346
14654
14818
15133
15488
15855
16354
16869
17328
17547
17594
17608
17594
17163
16656
15710
14624
13363
12437
11702
11305
11004
10911
11040
11067
11105
11204
11305
11467
11604
11677
11710
11760
11794
11797
11857
11806
11804
11800
11847
11811
11834
11820
12097
12412
12836
13007
13078
12965
12832
12676
12484
12219
12223
12404
12266
12007
13119
17081
22646
25553
13849
7222
9336
10484
11700
12571
12993
13219
13422
13555
13695
13815
13966
14174
14464
14653
14995
15290
15642
16096
16770
17175
17411
17630
17708
17590
17310
16800
15863
14811
13796
12736
12004
11555
11183
11106
11023
11173
11216
11369
11360
11365
11494
11602
11630
11717
11766
11712
11886
11876
11833
11876
11891
11940
11938
11842
11909
12208
12703
12948
13001
12916
12982
12809
12631
12429
12247
12246
12371
12070
12122
14781
19547
25302
21463
8225
8377
9943
11215
12151
12790
13194
13269
13508
13722
13880
13951
14083
14287
14455
14825
15083
15424
15864
16401
16739
17145
17421
17630
17492
17391
17028
16314
15408
14417
13315
12312
11701
11266
10986
10945
10886
11024
11127
11309
11421
11512
11609
11563
11639
11590
11611
11636
11653
11676
11808
11793
11779
11859
11893
11788
11678
12140
12645
12988
13000
12957
12846
12637
12457
12356
12334
12289
12245
12101
12247
14967
19737
25471
21104
7897
8229
9976
11484
12421
12959
13088
13317
13422
13631
13717
13940
14109
14352
14599
14887
15174
15538
15920
16512
17037
17352
17572
17691
17713
17508
17141
16494
15648
14510
13410
12434
11785
11237
11100
10989
11050
11152
11276
11333
11381
11446
11642
11751
11612
11729
11782
11804
11779
11750
11764
11825
11852
11912
11849
11915
11945
12331
12707
13027
13087
13044
12942
12848
12697
12446
12328
12310
12389
12156
12367
15058
19827
25246
21421
8009
8271
9921
11192
12269
12950
13108
13305
13531
13642
13833
13942
14196
14317
14605
14789
15141
15518
16025
16442
16945
17276
17501
17572
17546
17427
17000
16333
15432
14402
13271
12372
11592
11250
11044
10970
11015
11157
11204
11360
11385
11591
11677
11777
11821
11772
11714
11719
11687
11776
11866
11783
11814
11819
11875
12012
12330
12579
12933
12997
12934
12824
12688
12576
12352
12271
12257
12321
11949
12071
14985
19716
25318
21275
8093
8471
9991
11384
12320
12889
13141
13374
13565
13801
13830
13948
14133
14308
14600
14866
15154
15543
15987
16398
16898
17369
17657
17658
17597
17302
17010
16220
15331
14279
13241
12111
11622
11268
11214
11173
11150
11221
11372
11465
11596
11688
11723
11807
11796
11877
11996
11954
11959
11977
11979
12124
12120
11990
11826
11917
12311
12725
13082
13251
13192
13155
13066
12759
12474
12373
12448
12489
12275
11895
13861
18392
24419
24306
10392
7579
9727
11112
12024
12823
13162
13317
13486
13668
13698
13923
14145
14369
14524
14703
15065
15501
15863
16205
16605
17095
17434
17617
17628
17437
17149
16550
15725
14623
13603
12186
11650
11308
11152
11069
11111
11035
11141
11270
11452
11624
11588
11624
11778
11829
11807
11832
11868
11801
11803
11816
11980
11986
11793
11739
12069
12608
12944
13072
12997
12938
12865
12661
12577
12418
12337
12333
12219
11943
13048
16812
22368
25700
14635
6961
9097
10466
11905
12645
12969
13190
13413
13556
13606
13796
14131
14377
14494
14632
14929
15336
15621
16108
16554
17013
17420
17619
17587
17532
17252
16841
16123
15101
13613
12581
11791
11339
11258
11151
11127
11190
11329
11504
11605
11521
11683
11727
11813
11852
11907
11788
11825
11857
11903
11898
11924
11983
11989
11940
11849
12218
12557
13007
13230
13180
13081
12971
12725
12564
12351
12333
12412
12153
12043
14111
18664
24365
24058
10158
7524
9597
11031
12142
12845
13022
13287
13444
13636
13784
13983
14112
14280
14497
14780
15047
15418
15818
16187
16658
17081
17495
17540
17492
17334
16956
16519
15445
14317
13217
12334
11669
11217
11065
10922
10980
10997
11148
11249
11369
11522
11617
11716
11756
11799
11794
11817
11802
11909
11873
11949
11818
11796
11837
12103
12476
12870
13002
12828
12633
12637
12522
12360
12257
12189
12209
11865
11897
14382
18995
24390
22059
8600
8174
9856
10925
12072
12751
12909
13130
13340
13503
13718
13821
14048
14228
14536
14710
15009
15401
15831
16195
16681
17193
17566
17640
17491
17222
16884
16329
15346
12736
11983
11515
11195
10886
10991
11159
11179
11161
11263
11425
11552
11541
11733
11768
11736
11789
11864
11857
11856
11923
11859
11771
11776
12137
12386
12719
13060
13074
12891
12700
12342
12255
12172
12182
12167
11981
11683
13484
17781
23501
24648
11406
7541
9593
10744
11782
12742
13090
13237
13402
13588
13632
13889
14079
14246
14343
14669
15011
15350
15709
16103
16734
17062
17373
17578
17368
17284
17102
16358
15562
14621
13519
12075
11669
11307
11107
10909
11000
11082
11209
11329
11402
11503
11723
11749
11662
11748
11886
11921
11870
11883
11856
12024
12042
11886
11727
11773
12379
12876
13022
13010
13011
12979
12747
12439
12211
12203
12354
12243
11766
12324
15754
21022
25957
18178
7306
8850
10239
11673
12577
12971
13209
13407
13557
13665
13855
14101
14174
14359
14611
15017
15202
15585
16031
16506
16978
17330
17490
17573
17536
17289
16850
16098
15149
14004
13110
11902
11361
11391
11320
11144
11126
11251
11431
11479
11527
11409
11734
11860
11837
11797
11855
11892
11880
11860
11797
11855
11985
12038
11884
11891
12315
12757
13041
13159
13051
13026
12777
12690
12463
12286
12362
12316
12035
12302
15400
20495
25788
19816
7437
8447
10114
11443
12362
12915
13258
13363
13526
13656
13970
14030
14229
14393
14516
14884
15299
15654
15932
16478
16789
17196
17390
17537
17465
17348
16867
16232
15373
14334
12819
11979
11509
11282
11025
10972
11073
11202
11360
11536
11616
11613
11611
11658
11746
11759
11906
11887
11970
11862
11797
11888
11978
11910
11842
11795
11862
12380
12815
13070
13044
13049
12951
12836
12653
12399
12318
12481
12424
12100
12674
16174
21409
25965
17729
7155
8838
10142
11791
12613
13058
13255
13395
13484
13687
13785
14029
14274
14458
14641
14970
15287
15636
16058
16612
17085
17291
17632
17647
17559
17236
16733
15977
15200
13578
12658
11943
11491
11113
11166
11108
11145
11252
11306
11208
11443
11555
11555
11744
11776
11788
11769
11835
11864
11873
11776
11796
11770
11781
11702
11959
12355
12758
12839
12764
12833
12753
12527
12254
12104
12155
12258
12095
11859
13165
17269
22714
25251
13336
7278
9484
10539
11741
12654
12918
13102
13237
13474
13599
13749
14059
14107
14410
14599
14884
15318
15672
16014
16593
16990
17427
17523
17536
17294
16918
16405
15655
14164
13160
12251
11701
11379
11105
11037
10998
11164
11230
11382
11404
11540
11622
11809
11818
11807
11782
11816
11809
11906
11923
11868
11933
11976
11891
11843
12139
12563
12967
13095
13005
12897
12918
12738
12520
12338
12344
12414
12259
11854
13297
17587
23346
25412
12826
7587
9538
10761
11987
12771
13032
13294
13502
13688
13741
13935
14150
14379
14559
14875
15074
15293
15805
16327
16650
17074
17449
17467
17551
17337
17033
16491
15750
14355
13263
12371
11743
11309
11162
11096
11107
11167
11326
11337
11428
11558
11614
11776
11704
11712
11675
11754
11769
11846
11753
11884
12008
11963
11833
11755
12073
12576
13013
13133
13044
12964
12933
12630
12414
12204
12302
12344
12251
11926
13315
17365
23329
25332
12478
7282
9320
10681
11995
12798
13057
13236
13474
13677
13792
13959
14082
14300
14442
14630
14877
15261
15633
16145
16663
17088
17384
17551
17523
17332
16951
16467
15452
14454
13375
12414
11732
11359
11159
11020
11045
11105
11235
11326
11505
11559
11649
11638
11748
11773
11896
11904
11784
11794
11922
11913
11877
11949
11991
11918
11837
12221
12644
12998
13129
13032
12932
12756
12599
12330
12260
12337
12282
12071
11951
14092
18804
24530
23641
9629
7688
9705
11190
12272
12882
13103
13334
13451
13592
13752
13961
14168
14306
14626
14889
15191
15465
15907
16312
16768
17221
17506
17480
17621
17494
17128
16133
15368
14243
13079
12278
11705
11318
11141
11148
11140
11192
11254
11346
11367
11690
11712
11694
11749
11831
11645
11619
11782
11810
11806
11868
11994
12034
11962
11873
11898
12138
12504
12916
13143
12964
12950
12789
12637
12389
12231
12180
12225
11879
12236
14618
19051
24468
23251
9388
7694
9717
10907
11985
12640
13263
13348
13506
13688
13894
14012
14087
14266
14571
14874
15107
15477
15823
16419
16823
17197
17465
17574
17499
17164
16729
16088
15114
14057
13071
12177
11625
11315
11021
10992
10967
10995
11138
11286
11360
11584
11663
11718
11845
11863
11919
11836
11918
11808
11844
11979
12018
11744
11737
12034
12401
12745
12956
12797
12832
12983
12667
12483
12187
12178
12250
12264
11876
12581
15938
21167
25746
17305
7100
9008
10241
11563
12399
12905
13249
13374
13558
13723
13897
13923
14152
14323
14551
14790
15250
15540
16035
16478
16992
17245
17359
17469
17467
16991
16407
15469
14462
13393
12529
11785
11216
10994
10966
10971
11065
11210
11246
11357
11435
11626
11688
11720
11781
11756
11818
11876
11908
11914
11918
11888
11961
11990
11937
11876
12049
12490
13012
13161
13112
13036
12984
12791
12597
12470
12394
12458
12320
12001
13232
17372
23080
25701
13701
7262
9312
10550
11874
12819
13053
13207
13347
13607
13742
13892
14069
14249
14475
14747
15049
15274
15758
16075
16656
17058
17443
17578
17606
17383
17030
16389
15546
14433
13396
12409
11707
11302
11142
11145
11245
11214
11253
11365
11476
11528
11558
11670
11634
11722
11791
11862
11828
11830
11828
11779
11896
11977
11873
11798
11772
12148
12745
13069
13162
12994
12991
12872
12650
12478
12372
12308
12421
12229
12029
13755
18013
23966
24845
11222
7196
9406
10871
12123
12860
13130
13283
13661
13757
13856
14021
14136
14225
14392
14794
15106
15419
15854
16262
16691
17134
17515
17465
17400
17339
16878
16381
15435
14333
13209
12340
11632
11373
11161
11083
10950
10988
11191
11440
11526
11566
11537
11617
11802
11834
11804
11741
11784
11689
11817
11714
11879
11909
12008
11941
11929
11860
12194
12633
12958
13029
13119
13059
12884
12763
12571
12378
12378
12447
12297
12158
13881
18323
23989
24608
10963
7323
9432
10904
12097
12816
13137
13317
13593
13688
13877
13913
14009
14285
14640
14821
15192
15517
15957
16307
16922
17216
17523
17670
17627
17274
16952
16329
15429
14355
13259
12374
11704
11369
11166
11101
11039
11185
11253
11454
11489
11587
11598
11567
11583
11617
11631
11856
11945
11834
11818
11917
11904
11878
11853
11792
11802
12182
12623
12880
13002
12885
13054
12946
12696
12408
12181
12276
12322
12092
11881
14027
18383
23906
23970
10446
7397
9618
10808
12006
12734
13039
13200
13393
13540
13655
13929
14111
14291
14429
14625
14894
15303
15872
16345
16925
17320
17443
17446
17381
17267
16816
16085
15116
14045
12993
12111
11538
11294
11095
10998
11000
11079
11220
11384
11442
11425
11601
11685
11690
11779
11867
11840
11930
11994
11972
11958
11994
11937
11872
11820
12228
12639
12883
13102
13043
12975
12715
12598
12417
12359
12380
12387
12042
12210
14912
19733
25445
21522
8116
8375
10003
11364
12359
12790
13014
13338
13541
13573
13810
14068
14278
14420
14679
14948
15253
15544
16131
16561
16988
17354
17489
17484
17425
17116
16630
15894
14842
13797
12753
12091
11532
11234
11010
10942
10966
11058
11196
11254
11322
11566
11675
11776
11837
11789
11823
11828
11996
11981
11871
11832
12042
11876
11949
11986
12295
12516
12888
13108
13085
12960
12738
12599
12400
12299
12360
12308
11999
12284
15157
20151
25659
20254
7473
8450
10021
11414
12375
12909
13152
13313
13422
13577
13789
13969
14108
14242
14483
14766
15176
15723
16160
16505
16949
17255
17432
17518
17444
17109
16657
15897
14874
13759
12783
12039
11519
11231
11077
10945
11016
11217
11223
11327
11401
11639
11674
11700
11749
11841
11833
11786
11850
11947
11870
11784
11874
11880
11895
12069
12504
12860
13164
13058
12943
12806
12714
12417
12326
12359
12428
12119
12098
14607
19552
25164
22582
8817
7787
9718
11129
12236
12831
13152
13290
13452
13653
13888
14012
14129
14279
14579
14832
15173
15537
16158
16597
17085
17367
17601
17667
17582
17246
16670
16099
15045
13906
12929
12161
11626
11453
11235
11052
10964
11170
11323
11398
11468
11580
11593
11622
11756
11774
11806
11811
11884
11820
11832
11826
11906
12033
12341
12598
12855
12976
12816
12651
12471
12221
12125
12263
12255
12191
11820
12388
15707
20774
25267
18017
7168
8963
10176
11321
12202
12900
13190
13347
13477
13634
13760
13948
14241
14381
14633
14812
15232
15589
16027
16634
17020
17266
17452
17439
17324
16912
16462
15503
14451
13421
12499
11714
11274
11078
10962
10914
11079
11250
11236
11407
11467
11534
11570
11687
11707
11747
11777
11831
11871
11838
11695
11855
12002
12221
12517
12807
13002
12874
12763
12482
12395
12196
12095
12094
12226
11829
11753
14639
19725
25314
21327
8439
8474
9776
11074
12158
12676
13058
13176
13471
13636
13762
13835
14092
14262
14575
14851
15124
15475
15843
16330
16842
17231
17524
17391
17294
17066
16481
15598
14480
13469
12526
11919
11466
11236
11059
11029
10974
11248
11329
11427
11457
11514
11567
11645
11717
11786
11841
11869
11981
11920
11968
11899
11846
11640
12012
12436
12838
12972
12795
12764
12701
12493
12384
12264
12161
12208
11983
11654
13414
17975
23694
24850
11697
7447
9373
10677
11812
12526
12944
13168
13299
13473
13634
13810
13955
14207
14511
14726
15093
15380
15704
16132
16695
17187
17506
17496
17415
17232
16875
16122
15169
14086
13009
12166
11620
11247
11125
11082
11067
11102
11218
11356
11459
11548
11617
11735
11661
11785
11853
11803
11736
11742
11793
11837
11988
11931
11772
11767
12090
12577
12920
12982
12900
12847
12757
12531
12319
12214
12279
12272
12069
11923
13825
18373
24130
24153
10590
7364
9354
10830
11938
12662
13011
13286
13479
13753
13867
13970
14091
14323
14473
14874
15143
15443
15870
16338
16810
17297
17599
17657
17632
17440
17014
16231
15291
14181
13179
12238
11658
11249
11027
10925
11130
11205
11306
11335
11402
11483
11596
11635
11661
11666
11729
11836
11801
11911
11817
11781
11839
12020
11955
11898
11836
12049
12560
12927
13116
13105
13027
12879
12647
12560
12568
12482
12479
12336
12037
13148
17249
22761
25733
14595
7067
9005
10274
11702
12498
13069
13250
13491
13629
13879
13987
14173
14297
14548
14700
15020
15397
15865
16269
16641
17265
17657
17725
17714
17525
17224
16673
15754
14530
13420
12545
11853
11411
11117
11071
11075
11265
11201
11170
11231
11428
11476
11629
11703
11741
11707
11852
11819
11850
11843
11852
11886
11822
11927
11883
11970
11890
12244
12700
13037
13116
13086
12971
12778
12581
12412
12367
12410
12468
12176
12062
14429
19205
24732
23418
9712
7769
9623
10808
12015
12806
13159
13353
13427
13534
13817
13961
14110
14247
14543
14898
15318
15557
15988
16589
17010
17355
17583
17700
17638
17254
16834
16144
15213
13926
12841
12065
11492
11213
11012
11048
11117
11126
11109
11208
11420
11537
11525
11613
11662
11757
11656
11747
11758
11804
11822
11818
11960
11882
11847
11754
11991
12405
12843
12911
12926
12883
12818
12627
12510
12208
12254
12244
12106
11731
12877
16930
22468
25773
14902
7180
9026
10260
11651
12646
12960
13228
13364
13598
13794
13938
14060
14192
14442
14714
15053
15379
15928
16490
16978
17335
17621
17752
17731
17512
17167
16550
15600
14406
13307
12346
11784
11350
11177
10984
11032
11176
11305
11438
11507
11556
11537
11746
11876
11912
11889
11955
11933
11966
11892
11999
11966
11982
12060
12082
11959
11994
12412
12966
13216
13188
13238
13169
12965
12715
12585
12433
12498
12491
12181
12073
14717
19489
25331
21983
8575
8126
9856
11244
12386
13034
13248
13323
13570
13808
13988
14144
14244
14497
14626
14976
15315
15811
16265
16651
17090
17551
17721
17877
17748
17391
16951
16236
15211
14069
13014
12191
11660
11323
11192
11114
11151
11176
11337
11412
11541
11494
11610
11791
11794
11756
11785
11712
11709
11879
11902
11883
11950
12020
12003
12035
12030
12018
12120
12555
12962
13197
13053
13183
13142
12932
12761
12464
12422
12544
12549
12148
12577
15858
21222
25941
18132
7266
8679
10199
11772
12652
13133
13350
13578
13797
13875
13915
14154
14448
14607
14885
15191
15515
15909
16321
16719
17234
17631
17868
17779
17680
17321
16809
15876
14971
13754
12756
11850
11368
11174
11038
11063
11051
11192
11203
11323
11406
11538
11501
11628
11720
11795
11757
11783
11763
11849
11878
11908
11929
11916
11981
12007
12025
11817
12051
12549
13091
13338
13270
13091
13145
12879
12694
12431
12341
12369
12428
12077
12746
16244
21506
25919
17586
7294
8664
10115
11569
12595
13137
13365
13457
13791
13903
13945
14147
14392
14544
15015
15277
15560
15933
16418
16775
17177
17578
17728
17618
17618
17491
16786
15979
14870
13782
12604
11854
11372
11094
10915
11021
11072
11159
11230
11331
11462
11483
11527
11650
11678
11545
11738
11794
11872
11769
11780
11786
11753
11821
11848
11721
11774
12181
12624
12903
13073
13019
12885
12743
12563
12445
12336
12439
12411
12148
11725
13318
17398
22937
25017
12598
7351
9359
10621
11845
12574
12884
13158
13427
13721
13785
13829
14068
14332
14437
14755
15079
15631
16013
16454
16878
17209
17500
17716
17616
17382
17006
16417
15361
14311
13172
12229
11482
11098
11145
11020
11027
11009
11211
11244
11388
11461
11524
11554
11585
11668
11659
11791
11826
11805
11812
11842
11858
11885
11813
11845
11814
11913
12322
12872
13112
13175
13134
13073
12961
12692
12487
12306
12457
12467
12164
12094
14343
18866
24824
23266
9592
7879
9609
11206
12679
13015
13190
13299
13534
13731
13983
14055
14163
14392
14656
14926
15233
15672
16087
16520
16904
17349
17608
17794
17635
17423
16950
16273
15195
14098
13003
12088
11568
11242
11174
11089
11112
11116
11281
11313
11397
11413
11475
11649
11788
11744
11763
11757
11814
11844
11802
11834
11893
11895
11955
11923
11889
11875
12130
12771
13070
13114
12982
12952
12915
12663
12409
12327
12265
12259
12113
12055
13910
18306
24263
24008
10361
7373
9928
11543
12514
12951
13179
13348
13582
13651
13807
14010
14167
14335
14629
14924
15173
15579
16048
16491
16898
17244
17470
17719
17715
17477
16993
16349
15381
14332
13153
12247
11632
11362
11080
11024
11012
11160
11322
11331
11378
11461
11524
11542
11612
11595
11686
11681
11743
11712
11692
11760
11822
11879
11925
11762
11794
11716
12178
12681
13061
13223
13033
12982
12808
12659
12447
12370
12261
12415
12339
12034
13687
18098
23918
20437
7675
8164
9841
11537
12514
13030
13237
13396
13558
13724
13896
13992
14162
14245
14633
14933
15321
15591
16054
16511
17002
17406
17672
17699
17643
17491
17127
16478
15525
14404
13165
12228
11786
11423
11169
11185
11106
11177
11269
11399
11523
11644
11603
11604
11567
11709
11861
11919
11893
11845
11827
11768
11826
11741
11712
11892
12314
12557
12864
12869
12898
12830
12622
12431
12222
12201
12219
12165
11775
12512
16006
21149
25613
12361
7237
9361
10452
11818
12458
12881
13078
13365
13571
13738
13780
13908
14252
14437
14492
14774
15312
15776
16275
16634
17101
17467
17711
17544
17433
17055
16492
15527
14543
13426
12425
11748
11358
11048
11018
11021
11084
11102
11166
11398
11455
11558
11558
11688
11888
11908
11822
11786
11743
11872
11970
11870
11843
11883
12155
12461
12796
12986
13059
12886
12765
12553
12454
12283
12289
12282
12233
11863
12903
16820
22296
25709
9937
7974
9674
10831
12085
12810
13186
13324
13605
13703
13835
14051
14144
14308
14489
14839
15123
15457
15852
16315
16711
17209
17508
17659
17576
17374
16999
16288
15297
14078
13204
12307
11641
11106
11080
11030
11076
10967
11125
11323
11391
11483
11557
11596
11810
11822
11762
11719
11759
11840
11791
11885
11873
11811
11790
12096
12387
12778
13072
13016
12798
12773
12695
12518
12249
12175
12209
12268
11972
12531
16177
21503
25855
16628
7441
9383
10847
12000
12747
12990
13169
13427
13681
13721
13868
14086
14306
14423
14752
15035
15317
15754
16197
16676
17174
17595
17596
17450
17417
17168
16565
15695
14543
13382
12457
11912
11461
11178
10954
10914
11062
11227
11287
11376
11512
11501
11610
11605
11743
11750
11755
11720
11741
11845
11857
11888
11820
11907
11952
12198
12667
12958
13039
13022
12914
12782
12568
12418
12213
12248
12307
12157
11928
14074
18759
24697
23383
7239
8619
10269
11620
12548
12980
13098
13247
13476
13707
13892
14078
14101
14366
14596
14889
15197
15526
15920
16418
16960
17425
17697
17782
17635
17377
16860
16001
15089
14068
12990
12071
11457
11177
11076
10995
10979
11009
11185
11319
11501
11543
11545
11616
11711
11747
11760
11813
11749
11898
11882
11908
11939
12050
11968
11948
11813
12175
12661
13017
13095
13022
13077
12943
12715
12550
12431
12353
12437
12200
11963
13441
17848
25489
22066
8440
7984
9908
11396
12242
12908
13136
13345
13547
13663
13913
14088
14223
14403
14641
14882
15255
15599
15965
16401
17001
17429
17750
17800
17622
17458
17128
16500
15559
14455
13370
12419
11776
11426
11162
11096
11015
10943
11130
11330
11413
11503
11640
11662
11593
11607
11728
11789
11832
11807
11749
11847
11950
11907
11864
11800
12275
12618
12903
13016
12923
12822
12769
12612
12499
12211
12214
12427
12212
11884
13547
17844
25129
21346
8305
8433
9916
11193
12149
12806
13035
13254
13466
13733
13938
14153
14184
14399
14534
14835
15210
15435
15928
16552
17085
17473
17694
17676
17621
17367
17034
16113
15097
14047
13138
12128
11566
11232
11117
10983
10897
10973
11129
11270
11417
11570
11657
11738
11680
11739
11806
11823
11793
11919
11934
11953
11863
12002
11830
11788
11858
12270
12578
12812
13142
13144
13120
12793
12500
12300
12305
12367
12406
12077
11737
13811
20473
25813
19645
7693
8676
9966
11396
12365
12975
13150
13374
13528
13535
13736
13970
14183
14384
14692
14864
15204
15544
16063
16482
16880
17363
17777
17922
17750
17427
16979
16195
15154
14033
12932
12059
11383
11222
11201
11130
11024
11159
11208
11366
11387
11514
11597
11677
11699
11889
11889
11868
11886
11925
11902
11912
11986
11999
12089
12008
11972
11949
12375
12830
13107
13081
13027
12910
12828
12610
12512
12370
12279
12407
11934
12473
15931
21314
