12168
13118
13226
13482
13582
13765
13887
14064
14273
14474
14756
15098
15468
15846
16285
16655
17002
17140
17207
17146
16955
16534
15802
14801
13767
12742
12001
11529
11253
11168
11183
11341
11395
11487
11533
11696
11671
11703
11698
11760
11733
11764
11808
11846
11715
11602
11772
12249
12673
12885
12850
12789
12710
12425
12369
12167
12165
12261
12232
11503
12195
15899
21285
25262
14833
8146
10041
10956
11946
12668
12966
13144
13255
13462
14984
15383
15671
16026
16400
16861
17160
17271
17167
17046
16796
16321
15542
14455
13387
12454
11844
11344
11148
11046
11136
11172
11301
11348
11459
11504
11574
11628
11678
11711
11705
11700
11808
11813
11666
11582
11793
12321
12687
12919
12810
12670
12495
12368
12192
12111
12063
12151
11923
11507
13374
17815
23173
23010
10404
8518
10272
11021
12032
12661
13000
13155
13368
13541
13723
13871
13977
14157
14329
14609
14913
15284
15640
17109
16723
16095
15145
14117
13059
12268
11691
11404
11210
11191
11219
11353
11450
11563
11652
11723
11770
11814
11868
11855
11883
11923
11945
11810
11748
11830
12299
12662
12887
12841
12780
12641
12558
12413
12144
12176
12219
12074
11490
12730
16798
22119
24521
13316
8174
10149
10910
11988
12643
13010
13191
13346
13536
13691
13911
13999
14216
14401
14692
14987
15323
15578
16008
16379
16854
17155
17319
17300
17145
16881
16463
15699
11124
11123
11195
11316
11398
11533
11634
11792
11811
11848
11876
11929
11866
11958
11891
11773
11724
12039
12552
12820
12892
12761
12755
12622
12485
12244
12166
12153
12188
11722
11540
14133
19103
24673
21583
9087
9239
10350
11392
12236
12748
12999
13157
13379
13538
13727
13833
14034
14177
14392
14651
14993
15316
15738
16132
16586
16993
17261
17387
17267
17151
16797
16254
15293
14294
13233
12326
11676
11389
11172
11095
11090
11165
11254
11800
11777
11771
11853
11853
11788
11651
11905
12355
12778
12900
12875
12783
12717
12511
12385
12171
12175
12159
11857
11373
13194
17792
23510
24076
11015
8572
10043
11107
12009
12713
13051
13186
13359
13541
13664
13820
13964
14105
14340
14576
14886
15155
15546
15971
16430
16783
17139
17287
17394
17280
17067
16516
15644
14536
13419
12455
11757
11404
11194
11079
11041
11114
11169
11305
11355
11514
11527
11590
11639
11715
11737
11773
11885
12308
12665
12837
12797
12804
12753
12577
12448
12286
12284
12300
12098
11595
13451
17984
23691
24310
11220
8479
10085
11128
12069
12686
12955
13193
13354
13543
13697
13859
14009
14231
14405
14736
15009
15399
15719
16199
16648
17069
17307
17475
17497
17354
17121
16598
15811
14754
13659
12612
11910
11385
11204
11047
11050
11086
11210
11324
11431
11504
11548
11612
11632
11688
11677
11738
11723
11811
11766
11889
11801
11726
11611
12648
12433
12255
12221
12276
12029
11417
12366
16427
21937
25624
15281
7904
9775
10459
11661
12396
12871
13077
13250
13366
13538
13681
13877
14071
14269
14474
14724
15076
15436
15861
16328
16880
17168
17381
17411
17371
17164
16791
15974
14965
13794
12775
11936
11426
11143
10972
10975
11004
11166
11208
11325
11379
11521
11584
11708
11704
11750
11783
11840
11802
11813
11889
11887
11857
11720
11870
12244
12626
12829
12878
12783
12757
12592
15215
20225
25451
19584
8473
9581
10531
11495
12285
12814
13082
13276
13434
13643
13808
14017
14126
14364
14519
14813
15084
15456
15793
16276
16737
17121
17410
17557
17538
17395
17027
16304
15330
14172
13100
12159
11590
11211
11096
11000
11043
11160
11323
11400
11523
11614
11642
11706
11721
11751
11767
11868
11831
11894
11892
11871
11840
11899
11809
11760
11897
12409
12778
13007
13016
12983
12923
12769
12632
12403
12385
12362
12138
9582
10562
11578
12456
12907
13157
13363
13547
13654
13808
13951
14164
14334
14554
14786
15031
15423
15759
16198
16623
17105
17397
17585
17547
17409
17045
16513
15557
14460
13288
12369
11667
11254
11061
10969
10991
11046
11186
11252
11364
11422
11556
11591
11694
11721
11727
11743
11763
11795
11814
11831
11818
11879
11892
11993
11982
11965
11874
12249
12663
13005
13079
13097
13055
12942
12702
12507
12407
12445
12468
12008
11871
14622
19556
12776
13122
13289
13492
13599
13795
13902
14067
14191
14443
14641
14929
15238
15610
15975
16410
16945
17325
17682
17781
17754
17583
17271
16518
15497
14219
13148
12214
11633
11243
11082
11028
11065
11134
11214
11325
11409
11563
11578
11622
11596
11679
11668
11714
11713
11761
11734
11798
11771
11839
11891
11944
11977
12002
12029
12088
12136
12028
12027
12408
12838
13085
13246
13188
13183
12985
12904
12728
12640
12642
12584
12067
12320
11279
12283
12949
13174
13383
13512
13725
13820
14024
14143
14374
14522
14797
15049
15369
15735
16157
16596
17029
17398
17613
17750
17670
17531
17130
16470
15425
14300
13169
12338
11677
11360
11082
11048
11081
11190
11261
11358
11458
11540
11623
11600
11644
11625
11676
11720
11824
11769
11789
11748
11786
11781
11821
11856
11940
12003
12071
12120
11986
11901
12169
12622
12936
13185
13138
13112
13027
12912
12699
12564
12520
12572
12148
9903
10653
11790
12619
13046
13269
13406
13601
13736
13913
14039
14190
14354
14676
14887
15225
15582
16018
16435
16868
17292
17637
17774
17714
17643
17331
16709
15669
14569
13385
12426
11674
11302
11031
10930
10877
10976
11105
11222
11317
11419
11473
11541
11639
11628
11724
11740
11714
11671
11752
11796
11819
11783
11851
11848
11916
11995
12018
11964
11897
12291
12691
12950
13016
13059
13035
12944
12743
12585
12429
12465
12440
11975
10330
11124
12070
12787
13115
13314
13457
13626
13849
13982
14158
14265
14486
14676
14974
15235
15637
15998
16474
16912
17355
17628
17752
17692
17503
17082
16308
15295
14089
12974
12004
11454
11079
10932
10862
10968
11007
11114
11228
11366
11406
11454
11538
11628
11660
11701
11782
11767
11852
11833
11860
11802
11884
11886
11959
12007
12010
11840
11949
12395
12822
13037
13093
13095
13020
12887
12660
12492
12394
12477
12315
11806
12799
11538
12297
12900
13140
13323
13470
13628
13808
13936
14108
14253
14503
14731
15028
15321
15747
16148
16681
17129
17544
17758
17853
17753
17554
17091
16263
15139
13974
12878
11961
11438
11137
11057
11018
11084
11154
11252
11332
11426
11449
11497
11594
11641
11687
11744
11758
11760
11758
11745
11787
11806
11840
11867
11991
11999
11924
11752
12002
12502
12918
13087
13109
13084
12996
12786
12577
12443
12408
12443
12218
11833
13666
18174
12537
12996
13166
13364
13494
13688
13820
13963
14136
14337
14533
14791
15129
15444
15811
16329
16828
17200
17583
17744
17821
17664
17411
16838
16009
14861
13704
12625
11810
11370
11158
11081
11070
11101
11161
11255
11307
11434
11486
11574
11515
11604
11604
11649
11654
11669
11667
11696
11770
11781
11817
11822
11921
11820
11792
11751
12149
12515
12859
13025
13040
12964
12861
12703
12570
12448
12412
12441
12117
11888
14158
18905
24446
23423
13197
13430
13561
13695
13813
14010
14164
14413
14644
14851
15133
15517
15889
16320
16799
17221
17580
17706
17759
17598
17288
16668
15797
14574
13405
12379
11684
11257
11035
10923
10973
11096
11166
11272
11290
11361
11372
11475
11514
11599
11658
11719
11694
11731
11690
11714
11706
11800
11742
11726
11749
12008
12360
12645
12873
12825
12848
12695
12567
12315
12271
12319
12380
11911
12026
14916
19749
25115
20289
8549
9558
10607
11507
13960
14077
14230
14398
14676
14917
15249
15551
15948
16375
16870
17315
17595
17684
17637
17407
17047
16339
15269
14122
13001
12160
11599
11303
11080
11086
11117
11246
11318
11474
11497
11593
11656
11718
11752
11772
11789
11820
11860
11849
11873
11839
11916
11826
11818
11767
12076
12451
12765
13011
13086
13030
12923
12727
12524
12399
12396
12412
12052
11704
13769
18330
24252
23829
10427
9085
10367
11425
12231
12825
13068
13237
13425
14933
15166
15446
15844
16263
16828
17218
17579
17689
17702
17479
17229
16614
15690
14542
13399
12394
11709
11325
11136
11065
11080
11152
11242
11353
11393
11486
11540
11635
11670
11697
11655
11661
11652
11708
11751
11761
11775
11849
11808
11737
11834
11865
12271
12602
12905
12860
12855
12797
12678
12469
12305
12299
12362
12175
11695
12924
17118
22674
25598
13814
7823
9838
10812
11965
12734
13067
13264
13442
13547
13734
13852
14011
14174
16701
17118
17442
17637
17671
17601
17369
16930
16098
15095
13917
12892
12003
11492
11184
11039
10959
11041
11129
11229
11332
11340
11413
11535
11589
11604
11684
11610
11610
11571
11614
11610
11772
11757
11765
11686
11775
12152
12557
12805
12885
12856
12764
12615
12478
12277
12168
12235
12141
11739
12352
16064
21281
25558
17504
7446
9076
10201
11382
12258
12891
13055
13158
13331
13476
13604
13893
14006
14413
14650
14730
14982
15360
17679
17501
17021
16328
15290
14140
13041
12133
11545
11193
11044
10944
10979
11012
11149
11221
11361
11439
11507
11516
11581
11610
11687
11658
11632
11699
11728
11610
11529
11586
11917
12391
12598
12760
12580
12521
12389
12284
12088
12140
12166
12155
11855
12013
14798
19658
24238
20568
8734
8521
10106
10667
11866
12563
12979
13171
13412
13522
13702
13858
14061
14273
14453
14688
14943
15332
15759
16233
16679
17135
17427
17665
17682
17578
11599
11250
11017
10990
10974
11011
11065
11207
11338
11407
11507
11604
11657
11659
11754
11728
11737
11717
11850
11828
11753
11719
11898
12187
12542
12796
12914
12878
12765
12600
12474
12336
12245
12308
12291
12030
12044
14874
19645
24705
21139
8867
8653
10028
10989
12100
12742
13092
13319
13436
13667
13774
13955
14125
14351
14524
14822
15035
15374
15792
16257
16776
17237
17592
17777
17804
17674
17425
16839
15968
14830
13717
12662
11676
11674
11682
11732
11719
11783
11762
11759
11747
11778
11759
11723
11681
11763
12093
12490
12710
12861
12866
12813
12688
12562
12349
12191
12297
12295
11859
11460
13993
18831
24565
22770
9818
8641
9966
11056
12079
12730
13015
13236
13404
13598
13703
13872
13994
14242
14431
14751
14983
15327
15699
16176
16604
17081
17523
17781
17869
17759
17521
16957
16101
14974
13797
12708
11947
11417
11195
11029
11038
11084
11240
11295
11382
11495
11867
11859
11821
11824
11786
11829
11901
11901
11797
11869
12218
12673
12887
13003
12940
12898
12746
12657
12470
12367
12341
12335
11945
11489
13759
18435
24251
23460
10377
8438
9938
11050
12125
12793
13090
13239
13509
13682
13774
13909
14058
14272
14430
14686
14928
15357
15693
16168
16634
17125
17498
17742
17821
17769
17504
17093
16308
15211
14034
12887
12064
11503
11200
11013
11018
11025
11116
11168
11305
11398
11501
11534
11565
11794
11794
11824
11849
11864
11882
11946
11857
11798
12083
12567
12854
13057
13015
13009
12867
12745
12556
12429
12418
12433
12231
11649
12594
16570
21935
25447
15446
7942
9720
10476
11724
12515
12987
13190
13449
13605
13782
13905
14036
14218
14456
14710
14961
15248
15574
16016
16431
16960
17418
17839
17911
17859
17693
17401
16729
15734
14575
13449
12447
11752
11362
11122
11067
11043
11157
11193
11324
11375
11480
11511
11614
11594
11798
11746
11815
11840
11861
11905
11847
11789
11855
12308
12708
12969
13046
13092
13022
12880
12677
12519
12432
12551
12513
12028
11749
14357
19057
24773
21927
9493
9151
10339
11304
12246
12975
13237
13458
13608
13789
13908
14067
14173
14420
14628
14870
15167
15487
15832
16251
16759
17182
17612
17818
17917
17774
17560
16997
16159
15015
13885
12808
12017
11535
11333
11229
11152
11209
11267
11443
11486
11579
11619
11709
11747
11838
11838
12004
11967
12023
12031
12049
12060
12118
12060
11951
12007
12437
12897
13072
13159
13129
13165
13024
12943
12737
12581
12508
12508
12025
11582
13882
18531
24573
23095
10352
9049
10206
11358
12303
12895
13185
13370
13549
13657
13823
13976
14183
14322
14546
14765
14996
15313
15708
16122
16549
17057
17450
17746
17806
17801
17500
17085
16251
15206
13998
12938
12050
11514
11205
11060
11003
11010
11122
11172
11289
11310
11367
11379
11433
11644
11684
11767
11860
11790
11823
11845
11898
11959
12064
12099
12111
12178
12196
12304
12301
12223
12235
12657
13028
13304
13308
13338
13267
13135
12948
12792
12668
12695
12696
12301
11971
14293
18948
25028
23193
10431
9338
10410
11694
12505
13099
13313
13534
13669
13862
13977
14077
14249
14384
14568
14771
15034
15364
15738
16098
16583
17036
17478
17696
17835
17730
17596
17156
16504
15521
14348
13284
12358
11770
11383
11215
11127
11665
11644
11701
11674
11740
11670
11728
11719
11791
11781
11844
11825
11836
11907
11960
12015
12026
12132
12167
12237
12262
12390
12397
12431
12461
12488
12341
12350
12675
13061
13260
13380
13419
13390
13339
13167
13003
12781
12778
12769
12523
12021
13752
18008
23816
24980
12807
8871
10279
11283
12405
13045
13349
13527
13664
13817
13897
14019
14164
14371
14508
14741
14980
15314
15740
16053
16444
16988
17427
17687
17789
17738
17584
17252
11331
11117
11075
11089
11224
11284
11387
11406
11536
11559
11671
11672
11680
11694
11731
11796
11807
11828
11805
11831
11862
11885
11857
11946
11956
12059
12107
12182
12158
12269
12227
12116
12154
12569
12960
13219
13294
13295
13273
13141
12995
12746
12673
12637
12648
12182
11967
14504
19224
25089
22516
9728
9252
10473
11560
12502
13059
13338
13473
13694
13829
13989
14106
14289
14385
14606
14830
15130
15434
15789
16244
16701
17193
15917
14770
13557
12552
11814
11341
11013
10947
10923
11051
11116
11218
11252
11390
11406
11506
11557
11666
11697
11683
11743
11728
11769
11752
11813
11838
11900
11855
11916
11944
11989
11987
12094
12064
12159
12181
12092
12069
12470
12937
13180
13292
13234
13244
13141
12994
12801
12696
12655
12681
12308
11927
13967
18417
24366
23917
10834
8875
10320
11520
12516
13095
13354
13469
13638
13758
13952
14075
14291
14435
14641
14831
15098
17877
17904
17733
17439
16964
16084
15020
13801
12749
11909
11478
11180
11092
11000
11089
11145
11301
11336
11435
11474
11514
11536
11596
11671
11631
11657
11668
11701
11654
11720
11740
11790
11812
11873
11894
11962
12021
12124
12153
12217
12198
12104
12053
12427
12907
13138
13238
13217
13224
13091
12990
12780
12664
12649
12709
12402
12006
13940
18301
24123
24137
11071
8698
10340
11519
12474
13032
13374
13564
13745
13874
14076
14171
14306
16490
16957
17350
17684
17878
17866
17763
17517
17053
16181
15110
13929
12896
12028
11554
11206
11071
10986
11084
11162
11281
11330
11418
11499
11606
11646
11647
11712
11696
11733
11718
11760
11747
11801
11816
11842
11902
11952
11955
11998
12052
12106
12222
12182
12040
12009
12520
12963
13228
13222
13216
13116
13048
12918
12711
12565
12552
12543
12133
12098
14814
19530
25122
21526
8955
9187
10395
11681
12591
13138
13424
13526
13674
15036
15324
15711
16047
16479
16955
17401
17729
17852
17846
17646
17398
16756
15844
14694
13560
12591
11870
11317
11149
10986
10950
11020
11105
11207
11291
11379
11443
11521
11566
11604
11609
11703
11696
11763
11715
11761
11729
11767
11798
11835
11899
11918
11984
11931
11887
11982
12414
12774
13056
13069
13072
13040
12920
12844
12583
12460
12529
12450
12011
12148
15172
19972
25250
19765
8360
9525
10472
11583
12504
13092
13236
13413
13546
15113
15354
15682
16037
16541
17000
17417
17655
17765
17696
17507
17183
16474
15539
14345
13307
12309
11705
11313
11167
11068
11047
11122
11247
11306
11435
11506
11560
11629
11644
11693
11715
11786
11750
11815
11797
11843
11814
11892
11849
11947
12016
11950
11768
11996
12519
12886
13153
13049
13002
12919
12791
12661
12560
12431
12454
12301
11793
12546
16266
21505
25825
15988
8010
9724
10731
11959
12690
13081
13224
13450
13585
13764
15461
15789
16165
16640
17044
17450
17674
17781
17685
17442
16956
16208
15128
13978
12883
12015
11477
11136
11053
10964
11060
11107
11253
11314
11467
11516
11565
11577
11609
11638
11677
11750
11777
11800
11776
11883
11878
11898
11903
11996
11953
11879
12092
12538
12879
13029
12996
12982
12897
12693
12534
12352
12349
12324
12211
11748
12838
16693
22237
25654
14453
7858
9738
10840
11996
12659
12991
13210
13399
13580
13692
13871
13998
16178
16596
17099
17436
17678
17702
17643
17377
16964
16081
14998
13859
12852
12043
11541
11258
11088
11040
11027
11176
11276
11445
11487
11550
11586
11685
11685
11738
11731
11766
11782
11748
11756
11795
11844
11865
11917
11916
11883
11755
11964
12415
12857
13174
13076
12950
12924
12767
12622
12403
12341
12359
12215
11733
12663
16541
21903
25737
15205
8002
9733
10809
11978
12667
12996
13236
13345
13514
13665
13853
13994
14178
14377
14536
17508
17655
17694
17540
17306
16857
16085
15017
13923
12778
11995
11453
11160
10985
10947
10990
11098
11163
11205
11377
11395
11472
11504
11566
11552
11625
11596
11605
11597
11634
11663
11723
11774
11730
11680
11629
11927
12366
12753
12858
12828
12774
12692
12547
12424
12224
12272
12269
12024
11653
13570
18045
23375
23859
10970
8285
10155
10913
11891
12656
12953
13158
13270
13537
13692
13883
14029
14223
14407
14679
14929
15242
15587
17387
17056
16455
15549
14402
13289
12335
11760
11343
11164
11028
11070
11089
11238
11374
11556
11601
11670
11724
11791
11852
11881
11923
11885
11925
11943
11966
11953
12019
11838
11742
11865
12319
12760
13020
13010
12988
12888
12742
12610
12401
12373
12396
12358
11789
11965
15082
20195
25644
19581
8322
9622
10565
11708
12474
12933
13163
13351
13548
13662
13842
13985
14163
14367
14673
14876
15189
15487
15922
16320
16757
17249
17584
17670
12947
12107
11586
11299
11110
11076
11122
11245
11342
11450
11558
11630
11623
11679
11691
11763
11764
11831
11802
11817
11835
11848
11901
11838
11776
11723
12078
12532
12847
12938
12960
12957
12862
12626
12437
12294
12317
12336
12087
11591
13214
17674
23429
24842
11885
8452
9998
11141
12110
12798
13005
13241
13379
13568
13732
13906
14053
14214
14404
14613
14864
15188
15591
15989
16439
16880
17304
17466
17562
17423
17217
16753
16041
11067
10988
11055
11158
11203
11298
11410
11454
11537
11556
11640
11631
11663
11638
11692
11683
11729
11723
11843
11834
11765
11693
12052
12545
12856
12973
12916
12903
12711
12570
12356
12310
12296
12354
12014
11689
13690
18280
23970
23979
10526
8466
10058
11247
12172
12755
13055
13169
13382
13529
13689
13805
14038
14239
14477
14680
14993
15310
15729
16145
16600
17026
17374
17626
17633
17552
17269
16795
15904
14875
13687
12724
11907
11419
11480
11588
11637
11751
11772
11750
11734
11756
11770
11779
11849
11851
11864
11827
11917
11833
11771
11793
12259
12660
12919
12920
12891
12869
12747
12608
12390
12351
12340
12317
11873
12069
15107
20151
25389
19946
8087
9200
10284
11428
12379
12941
13152
13342
13486
13609
13780
13911
14069
14201
14476
14733
15030
15346
15787
16221
16732
17119
17482
17692
17658
17468
17123
16528
15643
14522
13354
12406
11727
11309
11047
10954
10963
11729
11698
11749
11766
11808
11767
11823
11828
11866
11889
12002
12080
11941
11876
11887
12308
12719
13003
12986
12949
12850
12719
12530
12419
12340
12471
12428
11965
12273
15495
20501
25395
18846
7977
9505
10548
11608
12416
12977
13144
13369
13516
13702
13855
14036
14204
14437
14665
14907
15257
15591
16014
16474
16986
17324
17652
17714
17672
17464
17128
16438
15483
14376
13320
12363
11715
11474
11253
11159
11112
11200
11266
11386
11935
11919
11890
11958
11903
11938
11960
12026
12039
12063
12003
11918
12055
12489
12893
13068
13093
13041
13022
12813
12665
12437
12425
12444
12387
11853
12403
15887
21192
25962
17655
8248
9854
10794
11888
12628
13007
13254
13371
13587
13733
13924
14012
14210
14349
14620
14878
15185
15494
15924
16424
16877
17279
17556
17718
17647
17503
17082
16421
15413
14325
13313
12365
11593
11217
11010
10962
10958
11050
11165
11247
11377
11435
11511
11837
11795
11746
11815
11788
11870
11858
11930
11954
12058
11977
11838
12019
12536
12942
13145
13151
13084
13046
12851
12722
12526
12544
12578
12543
11981
12498
15950
21271
25978
17783
8124
9657
10697
11921
12705
13096
13282
13421
13638
13766
13966
14142
14342
14463
14683
14950
15198
15518
15959
16387
16909
17344
17722
17839
17754
17625
17259
16703
15679
14565
13417
12482
11734
11367
11137
11090
11081
11208
11224
11309
11379
11466
11756
11743
11756
11731
11770
11788
11832
11818
11895
11899
11966
12054
12046
11894
12039
12386
12817
13053
13088
13092
13073
12922
12745
12617
12503
12544
12490
12134
12061
14943
19805
25567
21342
8814
9240
10501
11728
12560
13105
13324
13504
13625
13802
13908
14084
14242
14450
14615
14924
15177
15534
15890
16350
16825
17301
17668
17890
17964
17766
17509
16902
16015
14840
13749
12639
11903
11403
11162
11028
10997
11010
11111
11228
11849
11775
11777
11762
11795
11847
11830
11894
11874
11928
11928
12030
12032
11988
11847
11984
12410
12833
13047
13092
13083
13029
12853
12689
12547
12437
12498
12449
12036
12346
15586
20518
25492
18991
8081
9524
10542
11602
12481
13052
13289
13453
13603
13798
13916
14088
14255
14484
14669
14998
15250
15625
15985
16440
16877
17335
17633
17851
17849
17768
17483
16808
15918
14697
13555
12572
11879
11383
11195
11067
11067
11076
11168
11264
11893
11863
11846
11844
11885
11924
11913
11929
11965
11990
11995
12044
11928
11842
11977
12505
12847
13034
12991
13013
12971
12831
12687
12488
12454
12458
12353
11769
12501
16148
21547
25870
16713
8077
9732
10661
11910
12630
13034
13222
13404
13573
13749
13901
14037
14214
14378
14593
14844
15172
15513
15998
16441
16955
17377
17692
17812
17783
17637
17268
16546
15540
14419
13234
12288
11603
11261
11028
10995
10956
11071
11118
11244
11661
11732
11744
11765
11723
11820
11797
11815
11818
11832
11933
12026
11980
11855
12058
12506
12920
13090
13101
13011
12983
12767
12654
12455
12391
12365
12468
11928
12346
15823
21006
25858
17699
7860
9379
10594
11803
12615
12972
13244
13423
13575
13713
13846
14026
14191
14363
14570
14866
15132
15487
15927
16397
16850
17407
17660
17846
17811
17646
17320
16692
15704
14554
13370
12350
11623
11211
11034
10948
10947
10990
11112
11203
11344
11711
11761
11687
11703
11710
11783
11788
11865
11863
11931
11953
11896
11858
12159
12659
12960
13138
13061
13067
12898
12749
12536
12392
12366
12427
12166
11802
13394
17714
23261
24917
12466
8051
9901
10887
12181
12902
13186
13275
13462
13592
13777
13886
14066
14217
14434
14664
14950
15288
15714
16163
16580
17054
17527
17885
17915
17857
17574
17177
16353
15285
14070
13017
12109
11513
11167
10963
10869
10941
11113
11124
11302
11386
11907
11767
11766
11843
11865
11804
11834
11847
11906
11841
11764
12016
12517
12845
12990
12955
12898
12864
12882
12810
12524
12494
12512
12314
11744
13320
17565
22951
24771
12653
8226
10311
11228
12336
12920
13129
13319
13430
13628
13728
13865
13994
14231
14417
14699
15013
15370
15701
16120
16572
17049
17430
17646
17744
17678
17488
17017
16219
15145
14014
12897
12078
11496
11253
11087
11087
11083
11160
11250
11339
11477
11562
11691
11986
11994
11976
12034
12053
12056
11954
11853
12007
12544
12919
13109
13042
13031
12961
12809
12674
12446
12398
12426
12346
11787
12418
15982
21317
25916
16973
8162
9713
10664
11887
12602
12996
13166
13314
13515
13678
13860
13993
14140
14317
14590
14811
15127
15490
15979
16416
16958
17368
17668
17792
17749
17566
17200
16536
15489
14268
13086
12219
11534
11261
11031
10992
10962
11072
11121
11204
11403
11510
11451
11513
11614
11673
11690
11820
11821
11896
11928
11783
11778
12177
12691
13157
13247
13048
12977
12765
12595
12413
12310
12280
12373
12051
11755
13937
18498
24358
23447
10067
8568
10156
11429
12322
12825
13105
13231
13456
13626
13796
13929
14112
14316
14445
14668
14947
15318
15687
16193
16653
17148
17511
17745
17841
17755
17389
17027
16169
14999
13769
12710
11933
11414
11161
11006
11186
11160
11173
11203
11321
11367
11502
11501
11569
11594
11674
11680
11703
11951
11972
12004
11996
11864
11854
12343
12782
13059
13119
13117
13055
12970
12787
12580
12419
12473
12503
12194
11872
14099
18773
24640
23438
9998
8735
10214
11432
12331
12886
13105
13356
13470
13678
13828
14029
14152
14293
14487
14748
15003
15310
15709
16137
16664
17081
17446
17640
17706
17528
17359
16916
16052
14850
13759
12696
11943
11321
11032
10906
10834
10720
10922
11126
11224
11349
11519
11655
11641
11608
11695
11769
11796
11767
11848
12018
12077
12207
12497
12929
13017
13079
12988
12927
12645
12564
12276
12373
12375
12305
11734
12846
16919
22402
25736
14956
8025
9884
10707
11735
12738
13111
13351
13396
13664
13842
13947
14084
14365
14528
14756
14945
15200
15563
16105
16556
16926
17313
17709
17850
17634
17601
17133
16364
15283
14159
12838
12036
11484
11234
11100
11004
10991
11172
11226
11178
11322
11455
11442
11480
11704
11629
11697
11712
11714
11625
11735
11932
11863
12023
12504
12860
13033
12995
12957
12893
12656
12570
12378
12344
12325
12365
11869
12738
16417
21895
25466
14935
7719
9761
10817
11919
12644
13008
13260
13313
13398
13717
14015
13991
14210
14354
14628
14918
15291
15585
15909
16401
16975
17352
17664
17805
17635
17433
17107
16576
15422
14334
13156
12309
11558
11245
11037
11096
11058
11155
11202
11206
11292
11450
11565
11576
11605
11595
11738
11694
11789
11656
11836
11892
12111
11946
12076
12473
12982
13102
13062
13125
13102
12942
12888
12564
12409
12384
12454
12281
12176
14888
19539
25231
21090
8496
8873
10486
11753
12607
13033
13293
13548
13626
13755
13886
14162
14336
14498
14578
14889
15128
15556
15895
16460
16789
17296
17630
17825
17874
17761
17493
17027
16188
15049
13810
12813
12154
11579
11434
11119
11205
11145
11279
11367
11464
11619
11772
11781
11778
11681
11828
11887
11805
11860
11837
11905
11856
12162
12117
12155
12461
13026
13200
13232
13112
13200
13007
12924
12691
12562
12609
12566
12248
12243
14828
19537
25239
21591
8756
8920
10440
11438
12343
12909
13288
13344
13484
13666
13846
13960
14168
14301
14406
14670
14908
15471
15801
16279
16604
17184
17467
17709
17716
17722
17400
16862
15929
14845
13692
12569
11918
11384
11097
11035
11061
10852
11145
11285
11403
11344
11491
11562
11684
11710
11796
11800
11775
11896
11789
11888
12814
13117
13198
13072
12990
12970
12801
12708
12573
12466
12494
12211
11930
13373
17554
23101
25117
12728
8273
10046
11093
12139
12836
13181
13368
13524
13686
13952
14065
14251
14378
14636
14776
15056
15351
15712
16110
16722
17107
17567
17870
17916
17774
17511
17116
16223
15335
14151
13114
12067
11620
11209
11092
11029
11152
11150
11352
11340
11449
11604
11595
11603
11818
11844
11789
11905
11856
11863
11797
11953
11910
11954
11943
12053
12561
13065
13054
13151
13219
13270
13082
12840
12495
12550
12594
12472
12056
12252
15504
20578
25833
18642
8240
9437
10597
11771
12547
13217
13376
13497
13656
13753
13949
14021
14069
14454
14748
14946
15064
15363
15830
16354
16712
17225
17603
17845
17778
17635
17420
16820
15785
14654
13566
12660
11914
11383
11259
11087
11076
11079
11272
11304
11448
11489
11599
11673
11740
11726
11815
11749
11712
11789
11749
11843
11866
11848
11781
12381
12025
12138
12514
12973
13188
13098
13213
13336
13044
12839
12654
12543
12505
12522
12037
12263
15427
20080
25535
19296
8114
9226
10583
11846
12722
13123
13264
13472
13662
13796
13875
13904
14150
14396
14561
14893
15117
15607
15936
16406
16957
17323
17487
17884
17852
17661
17442
16958
15944
14795
13807
12744
11963
11461
11396
11252
11062
10989
11136
11227
11299
11446
11725
11683
11744
11687
11692
11769
11761
11719
11843
11894
12114
12196
11992
11950
12275
12811
13023
13023
13017
13095
12954
12905
12781
12461
12438
12581
12313
12004
13811
18023
23690
24488
11465
8113
10074
11232
12353
12850
13207
13291
13429
13606
13799
13946
14111
14305
14440
14725
14838
15225
15715
16148
16573
17121
17394
17665
17734
17736
17474
17056
16331
15269
14094
12941
12146
11426
11155
10957
10959
10950
11058
11110
11351
11303
11451
11450
11605
11630
11610
11712
11642
11744
11734
11733
11933
11983
12362
12702
12991
13048
12854
12853
12584
12595
12471
12410
12352
12259
11720
12858
16685
21908
25220
14735
7800
9852
10710
11725
12491
13020
13188
13327
13552
13693
13937
13978
14150
14289
14569
14790
15131
15535
15875
16382
16850
17281
17549
17744
17722
17607
17110
16385
15293
14222
13077
12113
11391
11192
11109
10973
10946
11091
11237
11261
11325
11389
11578
11482
11649
11639
11644
11762
11877
11764
11955
11903
11818
12676
13034
13044
12940
12999
12848
12732
12501
12433
12478
12459
12025
11932
14021
18421
24348
23623
10271
8644
10115
11494
12399
12825
13115
13368
13516
13623
13838
13947
14150
14213
14584
14729
15014
15250
15725
16185
16607
17048
17416
17708
17828
17642
17340
16932
16123
14989
13783
12767
11970
11558
11206
11074
11027
11188
11147
11228
11467
11554
11561
11542
11823
11788
11667
11776
11861
11824
11893
11825
11984
11885
11944
11849
13242
13077
13038
12887
12752
12569
12464
12394
12430
12353
11974
13302
17158
22684
25297
13547
7842
9799
11172
12276
12783
13240
13292
13423
13637
13713
13916
14079
14251
14389
14724
14948
15322
15549
16125
16591
17060
17390
17782
17901
17837
17535
17102
16464
15374
14164
13026
12287
11644
11359
11117
11120
11076
11202
11183
11403
11451
11518
11505
11610
11675
11759
11786
11870
11862
11801
11882
11956
11952
11874
11950
11953
12084
11903
10890
8179
10131
11073
12141
12758
13101
13261
13392
13516
13790
13722
13952
14148
14542
14713
14970
15274
15734
16168
16522
16942
17333
17676
17791
17655
17232
16945
16195
15088
13963
12948
11971
11439
11148
11053
10972
10981
11027
11102
11238
11360
11496
11528
11598
11537
11668
11614
11752
11855
11892
11810
11766
11741
11838
11933
11882
11750
11760
12061
12596
12871
12890
12968
12846
12873
12726
12602
12412
12385
12336
12281
11873
10564
11661
12385
12873
13071
13405
13618
13745
13838
14025
14166
14325
14475
14856
15082
15484
15765
16290
16751
17258
17383
17641
17748
17605
17299
16589
15748
14645
13450
12326
11818
11346
11188
11112
11071
10963
11215
11308
11256
11442
11646
11744
11726
11751
11774
11838
11944
11882
11825
12014
11880
11843
11885
11955
11959
11961
11893
12388
12794
13057
13122
13003
12863
12888
12750
12450
12441
12433
12466
11973
12056
14542
19260
12700
13082
13292
13486
13744
13846
13900
14071
14236
14383
14617
14903
15350
15624
15965
16405
16998
17350
17759
17776
17767
17581
17302
16413
15326
14307
13202
12166
11596
11393
11124
11122
11063
11056
11107
11392
11424
11599
11537
11514
11756
11789
11771
11704
11797
11959
11893
11782
11852
11934
11945
11948
11897
11688
12076
12537
12961
13019
12952
12926
13003
12803
12649
12379
12375
12373
12297
11982
12737
16265
21507
25784
16141
13366
13502
13727
13866
14021
14062
14395
14594
14748
14865
15295
15767
16231
16710
17114
17558
17747
17744
17617
17415
16842
16163
15047
13902
12741
12001
11510
11267
11004
11036
11036
11042
11259
11388
11411
11449
11717
11699
11804
11732
11791
11712
11767
11815
11800
11812
11886
11811
11833
11811
11708
11934
12498
12828
12956
12995
12968
12892
12653
12524
12322
12333
12388
12284
11891
13559
17735
23201
24741
12107
7802
9868
10992
11980
13921
14006
14218
14449
14808
15010
15313
15596
16049
16491
17151
17428
17748
17634
17518
17118
16549
15674
14422
13267
12255
11629
11321
11078
10825
10978
10918
11043
11180
11398
11380
11594
11697
11722
11650
11650
11756
11838
11848
11829
11910
11772
11911
11971
11958
11705
11961
12498
12926
13040
12996
12948
12810
12697
12545
12351
12275
12425
12270
11775
12613
16670
22013
25691
15192
7926
9773
10792
12004
12725
13003
13281
13464
14796
15086
15321
15769
16170
16756
17121
17503
17569
17734
17666
17414
16751
15980
14930
13748
12731
11876
11420
11216
11130
11007
11074
11237
11332
11380
11581
11515
11739
11681
11815
11773
11836
11889
11911
11909
11956
11880
11916
11827
11726
11833
12196
12697
12813
12968
13047
13077
12780
12671
12491
12319
12309
12339
12133
11847
13158
17205
22737
25334
13887
7524
9648
10915
12223
12710
13089
13266
13608
13590
13847
13937
14058
14181
16784
17121
17441
17576
17604
17648
17366
16731
15810
14749
13561
12635
11868
11411
10994
11147
11073
11152
11121
11196
11294
11434
11614
11692
11688
11605
11653
11665
11735
11757
11664
11682
11819
11918
11936
11696
11728
11950
12391
12817
13031
12860
12674
12769
12593
12383
12173
12322
12245
12078
11701
13240
17330
22870
24925
13055
7443
9575
10874
12076
12622
12965
13215
13256
13532
13680
13832
13854
14236
14433
14694
14788
15202
17676
17575
17257
16738
15859
14692
13491
12684
11856
11310
11163
11006
11074
11158
11184
11097
11366
11454
11464
11523
11786
11686
11731
11632
11719
11705
11676
11659
11812
11672
11677
11623
11750
12304
12569
12877
12682
12655
12588
12596
12292
12249
12193
12257
12047
11657
13209
17364
22495
24480
13062
7528
9860
10542
11842
12538
13095
13170
13425
13613
13749
13727
14052
14282
14422
14770
15053
15231
15569
16093
16589
16993
17344
17691
13597
12451
11738
11511
11142
11013
10990
11174
11207
11399
11328
11409
11675
11659
11630
11618
11876
11721
11889
11817
11922
11943
11798
11639
11887
12048
12491
12810
12971
12887
12887
12658
12484
12475
12208
12150
12189
12295
11629
12657
16427
21880
25562
15224
7989
9716
10672
11918
12532
12916
13093
13311
13621
13685
13958
14000
14143
14265
14661
14720
15111
15573
16078
16407
16904
17329
17536
17584
17523
17255
16877
16344
15175
11121
11116
11284
11335
11482
11439
11649
11623
11664
11650
11791
11798
11901
11842
11820
11977
11876
11683
11648
12018
12408
12817
12955
13068
12837
12828
12535
12459
12264
12219
12162
12153
11707
12290
15874
21146
25652
16839
7909
9375
10677
11706
12507
12949
13205
13309
13554
13653
13872
13949
14116
14331
14524
14838
15109
15525
15886
16399
16793
17361
17503
17632
17609
17562
17015
16304
15308
14224
12966
12057
11630
11255
11170
11497
11622
11654
11647
11575
11795
11679
11680
11753
11948
11843
11891
11784
11644
11840
12390
12757
12946
12870
12822
12719
12603
12364
12400
12264
12121
12138
11692
12995
16860
22527
25151
13389
7868
9747
10867
11983
12706
13006
12986
13368
13601
13609
13885
13953
14209
14361
14622
14831
15188
15467
16132
16535
16984
17380
17711
17845
17723
17338
16859
16146
15086
13875
12787
12132
11429
11234
11139
11168
11060
11207
11349
11409
11337
11763
11653
11795
11954
11868
11750
11802
11948
11921
11846
12014
12479
12751
13124
12980
12937
12836
12658
12519
12463
12350
12415
12163
11760
13174
17176
22625
25158
13700
7866
9891
10726
11892
12641
13131
13313
13458
13549
13722
13929
14141
14215
14494
14747
14824
15248
15691
16078
16461
17132
17358
17723
17722
17627
17292
16943
16292
15235
13921
12883
12107
11521
11228
11007
10944
11001
11220
11268
11340
11433
11577
11619
11880
11926
11937
12043
12092
11835
11777
12086
12574
12938
12971
13047
12906
12836
12674
12652
12360
12309
12325
12205
11627
13377
17727
23545
24602
11833
8277
10003
11147
12089
12717
12959
13343
13412
13590
13690
13961
14049
14197
14289
14826
15019
15325
15652
16159
16590
16919
17371
17629
17731
17584
17351
16754
15954
14795
13731
12510
11986
11514
11265
11020
11122
10983
11074
11180
11353
11564
11630
11556
11585
11683
11692
11834
11722
11999
11728
11875
12222
12759
12956
13024
12963
12949
12736
12612
12477
12447
12427
12293
12124
11725
13844
18319
24244
23534
10500
8557
10125
11385
12421
12756
12991
13262
13373
13696
13825
13973
14045
14201
14277
14607
14985
15540
15814
16179
16598
17071
17339
17701
17693
17559
17313
16903
16080
14848
13645
12697
11979
11510
11189
10918
11042
11182
11224
11267
11539
11462
11506
11553
11616
11634
11662
11770
11852
11933
11830
11782
11800
11984
12182
12689
12903
13203
13186
13078
12815
12844
12582
12505
12509
12523
12200
12048
14203
18815
24752
22547
9379
8626
10266
11376
12489
12921
13286
13379
13555
13710
13860
14025
14242
14355
14499
14782
15184
15499
15829
16286
16787
17338
17577
17912
17791
17722
17446
16953
16045
14998
13838
12758
11911
11505
11340
11085
11010
11109
11290
11265
11411
11365
11557
11665
11697
11606
11812
11879
11790
11827
11885
11823
11697
11862
11872
12155
12534
12929
13146
13264
13147
13127
12818
12761
12487
12502
12493
12487
11958
13417
17536
23072
25285
13306
7957
9836
10954
12136
12955
13168
13310
13477
13797
13816
14051
14169
14412
14393
14606
14890
15215
15720
16091
16399
16905
17556
17731
17819
17749
17547
17122
16562
15422
14220
12917
12141
11713
11378
11174
10984
11079
11180
11235
11301
11364
11457
11572
11597
11873
11879
11823
11835
12027
11792
11786
11845
11934
11792
12921
13157
13051
13013
13117
12876
12558
12503
12406
12436
12390
12032
12454
15899
21134
25890
17135
7842
9594
10728
11928
12694
13119
13192
13339
13532
13796
13886
14169
14153
14412
14647
14953
15167
15491
15801
16321
16898
17379
17726
17830
17744
17571
17310
16530
15498
14288
13280
12257
11626
11207
11095
10976
11050
11024
11281
11335
11440
11408
11589
11696
11725
11741
11743
11840
11768
11826
11872
11936
11852
11934
11914
12046
13006
13104
13147
13062
12780
12534
12399
12406
12439
12212
11791
13218
17466
23043
24987
12541
8101
9807
11216
12191
12756
13073
13470
13549
13600
13728
13854
14095
14225
14390
14592
14946
15059
15649
16075
16585
16976
17506
17748
17886
17705
17529
17112
16462
15267
14107
13166
12341
11759
11178
11023
10923
11130
11102
11205
11156
11347
11355
11639
11605
11673
11733
11693
11709
11743
11862
11793
11738
11522
11691
11877
11969
11911
11969
12969
12942
12753
12696
12419
12398
12495
12454
11929
12596
16167
21516
25689
16028
7730
9539
10878
11981
12725
12963
13141
13353
13609
13642
13828
14029
14196
14367
14515
14805
15015
15557
16054
16541
16891
17292
17490
17842
17774
17705
17282
16702
15605
14468
13358
12448
11640
11275
11076
11051
11002
10956
11064
11048
11413
11361
11475
11541
11669
11489
11606
11626
11674
11657
11670
11731
11733
11732
11694
11839
11822
11780
11858
12673
12488
12353
12351
12536
12035
12017
14472
19179
24814
21899
8658
8672
10349
11515
12482
12814
13124
13332
13548
13547
13714
13925
14133
14273
14523
14677
15103
15388
15708
16077
16606
17211
17530
17679
17677
17600
17349
16896
15886
14852
13598
12743
11860
11419
11150
11055
10879
11027
11039
11128
11282
11430
11539
11489
11698
11664
11733
11713
11799
11782
11840
11798
11920
11788
11913
11852
11686
11902
12418
12676
12923
13032
12327
12084
11926
14276
18955
25033
22131
9175
8743
10417
11647
12476
12892
13198
13352
13462
13541
13794
14006
14044
14170
14490
14780
14990
15372
15689
16233
16586
17119
17363
17725
17778
17718
17362
16915
15973
14839
13711
12703
11923
11476
11267
11160
11155
11044
11178
11212
11375
11442
11573
11627
11737
11804
11884
11800
11888
11860
11805
11790
11874
11979
12077
11886
11777
12025
12420
12743
12807
13066
12984
13048
12816
12694
12540
22770
25450
13435
7595
9742
11361
12329
12705
12945
13286
13444
13626
13728
13951
14023
14424
14512
14644
14848
15091
15565
16020
16467
16791
17260
17562
17760
17601
17463
16924
16489
15518
14308
13172
12344
11717
11363
11165
11080
11119
11180
11276
11329
11457
11482
11573
11591
11802
11677
11828
11725
11666
11700
11878
11691
11624
11909
11885
11688
11609
11826
12257
12729
12974
13082
12927
12910
12734
12591
12189
12175
12255
12228
8378
10186
11527
12475
12888
13097
13270
13467
13561
13647
13833
14026
14272
14394
14645
15010
15267
15589
16067
16693
17233
17369
17512
17531
17554
17311
16659
15850
14998
13889
12685
11970
11331
11066
10945
11069
11104
11314
11251
11308
11333
11537
11496
11649
11582
11515
11835
11829
11839
11692
11768
11808
11807
11545
11681
11639
12109
12564
12904
12957
12973
12846
12648
12562
12272
12051
12224
12483
12202
11826
13450
17954
23810
23834
13149
13308
13422
13673
13868
13918
14040
14379
14577
14770
15048
15387
15747
16194
16847
17181
17536
17589
17551
17425
17156
16451
15643
14440
13481
12708
12001
11476
11114
11104
11170
11183
11181
11346
11412
11572
11771
11837
11706
11792
11826
11824
11772
11897
11730
11819
11997
11990
11849
11798
11762
11874
12404
12800
13087
13039
13004
12791
12808
12630
12328
12304
12477
12227
11804
12805
16657
22279
25373
13986
7470
9618
11218
13973
13975
14277
14331
14515
14775
15031
15318
15743
16189
16690
17208
17526
17609
17569
17513
17262
16791
16092
15179
13814
12797
12075
11499
11159
11154
11084
11258
11338
11507
11541
11578
11578
11571
11685
11831
11966
11863
11913
11900
11932
11827
11871
11809
12060
11834
11822
11811
12134
12495
12754
13025
13047
13007
12804
12740
12506
12445
12286
12342
12094
11917
13612
17972
23637
24088
10867
7938
9849
11305
12375
12791
13162
14265
14350
14629
14971
15354
15857
16121
16757
16986
17376
17574
17479
17255
17056
16447
15646
14633
13527
12554
11888
11394
11020
10926
10844
10990
11065
11281
11292
11420
11470
11688
11570
11627
11618
11706
11828
11828
11755
11657
11723
11748
11736
11659
11796
12045
12574
12778
12982
12877
12989
12789
12550
12271
12200
12182
12310
12034
11556
13979
18576
24382
22918
9635
8434
10090
11327
12200
12661
13061
13285
13550
13638
13818
13926
15870
16349
16808
17284
17252
17332
17471
17516
16992
16395
15511
14457
13222
12314
11681
11384
11020
11096
11125
11113
11349
11416
11523
11459
11454
11705
11895
11725
11866
11730
11775
11783
11786
11907
12001
11817
11773
11979
12365
12718
13007
12924
12735
12900
12660
12476
12171
12292
12271
12091
11806
13782
18172
23778
23714
10484
8350
10337
11438
12201
12807
13027
13286
13471
13583
13660
13893
14023
14281
14258
14708
14899
15289
16089
14790
13714
12582
11863
11325
11090
10929
10994
10956
11225
11317
11367
11438
11582
11686
11735
11778
11791
11844
11635
11744
11812
11865
11818
11873
11858
12255
12614
12857
12862
12900
12984
12703
12521
12267
12343
12391
12193
11601
12158
15517
21055
25804
17413
8083
9635
10668
11902
12596
12990
13095
13225
13477
13593
13747
13893
14173
14309
14665
14738
15034
15288
15807
16201
16676
17073
17365
17316
17379
17315
16878
16242
15264
11258
11230
11326
11358
11470
11453
11658
11615
11756
11763
11780
11805
11934
11977
11869
11812
11711
11950
12266
12569
12722
12905
12749
12780
12613
12574
12338
12306
12220
12142
11553
12157
15716
21208
25600
16263
7933
9522
10887
11877
12575
12895
13153
13189
13378
13578
13768
13855
14186
14320
14567
14720
14996
15398
15765
16153
16573
17150
17330
17332
17226
17186
16730
16115
15151
14179
12992
12174
11633
11354
11137
11078
11089
11815
11829
11809
11756
11787
11760
11636
11859
11714
11694
11803
12231
12492
12864
12857
12919
12777
12658
12455
12257
12137
12218
12232
11935
11994
14679
19668
25041
20154
7955
8706
10340
11731
12521
12986
13089
13236
13403
13534
13731
13833
13998
14120
14430
14732
15047
15311
15795
16057
16598
17051
17292
17354
17382
17096
16867
16362
15568
14505
13558
12725
11876
11556
11205
11294
11149
11307
11353
11419
11367
11600
11609
11734
11885
11860
11775
11658
11785
12362
12716
12852
12846
12810
12816
12564
12450
12149
12152
12292
12221
11641
12710
16735
22181
25122
14088
7343
9593
10706
11804
12526
12917
13138
13249
13467
13512
13892
13961
14234
14344
14589
14766
15054
15429
15823
16253
16700
17050
17226
17309
17299
17190
16605
16043
14994
14110
13127
12360
11705
11473
11307
11175
11107
11137
11234
11438
11491
11516
11727
11723
11898
11813
11889
