11800
11776
11848
11743
11739
11881
12298
12530
12864
13147
13155
12940
12804
12721
12545
12325
12306
12384
12236
12091
13986
18311
23808
23061
10417
7200
9649
11417
12349
12917
13200
13256
13407
13665
13807
13865
14174
14422
14581
14721
15059
15351
15690
16064
16593
16867
17166
17438
17402
17294
17005
16471
15790
14846
13842
12815
11969
11576
11260
11229
11124
11107
11229
11409
11408
11482
11574
11746
11600
11670
11751
11644
11664
11763
11679
11735
11771
11794
11940
12000
12222
12446
12759
12933
12818
12696
12611
12525
12386
12213
12273
12142
11936
12263
15007
19506
24870
20435
7997
8174
9854
11282
12264
12789
13083
13378
13470
13657
13718
13866
13967
14210
14442
14716
15161
15440
15941
16291
16611
16861
17160
17274
17207
16932
16649
15932
15042
14131
13116
12177
11605
11250
11009
10886
10903
11025
11231
11257
11256
11390
11529
11522
11605
11715
11803
11972
11868
11867
12267
12434
12689
13061
13134
12856
12824
12669
12626
12458
12338
12316
12387
11938
12311
15571
20880
25576
17762
7718
9067
10478
11807
12641
13046
13302
13330
13566
13700
13852
13993
14195
14453
14586
14715
15164
15584
16048
16521
16822
17218
17373
17425
17376
17180
16660
15965
15076
14061
12993
12236
11619
11328
11231
11114
11102
11217
11366
11376
11649
11871
11856
11822
11869
11882
11918
11853
11900
12029
12043
12003
12081
12011
11980
12123
12405
12933
13276
13250
13119
12951
12745
12586
12506
12450
12478
12422
11987
12638
16064
21539
25381
16438
7215
8918
10702
11990
12770
13163
13298
13400
13573
13796
14021
14106
14221
14302
14598
14845
15149
15564
16124
16371
16699
17228
17480
17460
17310
17019
16632
15953
15145
14196
13166
12267
11827
11545
11335
11243
11194
11396
11508
11558
11622
11752
11818
11869
11884
12019
12000
12043
12061
12025
11961
11951
11944
12066
12053
12001
11958
12251
12747
13082
13236
13068
13066
12885
12661
12410
12321
12410
12491
12292
12094
13954
18242
23961
23190
10449
7341
9766
11442
12492
13070
13254
13413
13597
13725
13974
14076
14192
14258
14565
14890
15118
15365
15765
16255
16744
17117
17351
17444
17271
17239
17002
16521
15725
14793
13800
12815
12059
11702
11382
11145
11141
11127
11232
11384
11477
11478
11639
11645
11648
11737
11834
11910
11880
11828
11856
11805
11872
11920
12085
11911
11850
11848
12173
12571
12824
12983
12906
12921
12790
12682
12424
12290
12277
12332
12085
11918
13920
18246
23873
23560
10799
7581
9723
11142
12154
12733
12909
13169
13455
13667
13798
13894
14061
14342
14592
14661
14958
15360
15768
16107
16637
17146
17391
17461
17440
17379
17006
16425
15661
14705
13594
12621
11912
11616
11237
10878
10936
11126
11236
11393
11352
11482
11602
11714
11723
11760
11876
11760
11757
11839
11863
11851
11903
11815
11977
12003
12028
12184
12318
12617
13052
13103
12993
12950
12865
12734
12501
12456
12464
12543
12180
11996
14200
18874
24697
22221
9349
8133
9906
11312
12306
12976
13142
13398
13501
13660
13824
13973
14006
14159
14460
14742
15135
15387
15825
16264
16694
17034
17306
17470
17472
17201
16894
16440
15689
14617
13583
12699
11996
11615
11344
11184
11067
11146
11165
11335
11527
11593
11610
11797
11850
11961
12007
12004
11990
11929
11796
11939
12039
11927
11955
12136
12197
12149
12012
12261
12698
13097
13318
13227
13159
12989
12770
12581
12353
12339
12466
12305
12171
13826
17970
23668
23370
10985
7475
9769
11421
12442
13022
13364
13542
13579
13716
13882
14087
14239
14385
14619
14840
15114
15469
15761
16166
16604
17017
17234
17396
17324
17312
17032
16680
16031
15076
13931
12971
12281
11750
11376
11188
11226
11326
11398
11432
11587
11633
11759
11834
11825
11848
11955
11845
11775
11754
11883
11901
12029
12032
12108
12022
11972
11985
12377
12691
12887
13059
13084
13018
12821
12585
12500
12477
12383
12370
12203
12091
13463
17409
23026
24161
12704
7094
9327
11147
12237
12805
13206
13417
13599
13651
13767
13952
14176
14270
14485
14788
15114
15343
15723
16159
16603
17075
17355
17573
17558
17437
17138
16694
15994
15170
14065
13078
12272
11770
11434
11264
11243
11155
11106
11244
11352
11540
11627
11712
11675
11770
11817
11744
11764
11783
11795
11755
11762
11844
11807
11770
11944
12160
12504
12776
13047
12923
12741
12580
12578
12424
12244
12226
12296
12112
12133
14465
18875
24567
21746
8962
7914
9813
11280
12331
12829
13056
13375
13525
13641
13776
13938
14106
14241
14459
14784
15034
15288
15769
16254
16692
17233
17418
17582
17489
17295
17044
16431
15437
14377
13388
12537
11815
11411
11198
11034
11087
11023
11224
11299
11407
11597
11740
11698
11821
11836
11806
11777
11867
11961
11886
11878
12001
11962
11933
12021
12394
12699
12903
13040
13051
12950
12687
12509
12377
12358
12290
12404
12019
12088
14785
19541
25163
20665
8278
8333
10161
11607
12500
12934
13228
13343
13545
13633
13850
14032
14155
14294
14576
14836
15115
15437
15800
16265
16713
17120
17334
17477
17383
17225
16885
16325
15414
14474
13526
12556
11715
11343
11150
11047
11129
11150
11306
11465
11536
11490
11690
11771
11772
11696
11737
11870
11918
11798
11844
11923
11978
12015
12045
12023
12398
12872
13236
13184
12976
12857
12615
12599
12318
12241
12324
12292
11916
12562
15822
20984
24964
16787
6995
8585
10530
11800
12629
13064
13255
13319
13458
13616
13802
13869
14144
14412
14601
14739
15082
15440
15787
16276
16841
17120
17326
17446
17381
17083
16641
16109
15241
14254
13240
12397
11789
11506
11389
11322
11195
11349
11544
11708
11784
11707
11710
11851
11929
11861
11826
11817
11770
11877
11914
12046
12015
11933
11945
12216
12555
12777
13078
13010
12895
12796
12674
12473
12316
12295
12424
12260
12059
13485
17393
22939
24337
12892
7023
9295
11030
12187
12841
13111
13301
13561
13757
13913
13956
13975
14215
14497
14804
15046
15345
15763
16068
16550
17021
17245
17401
17421
17321
16987
16597
15856
15011
13973
12984
12116
11549
11313
11251
11058
11202
11331
11378
11491
11590
11710
11734
11793
11805
11850
11799
11731
11630
11692
11733
11808
11840
11896
12133
12569
12828
12950
12895
12749
12649
12486
12327
12189
12294
12298
12036
12089
14590
19062
24750
21605
8807
8079
9798
11304
12319
12859
13139
13430
13587
13575
13705
13877
13925
14101
14381
14679
15020
15464
15804
16247
16705
17060
17307
17329
17200
17023
16756
16066
15345
14362
13427
12561
11919
11404
11073
11046
11125
11103
11251
11359
11600
11664
11693
11734
11695
11709
11913
11945
11969
11907
11922
11997
11903
11881
11941
12280
12590
12934
13097
12985
12837
12715
12541
12362
12302
12383
12369
12137
12217
14930
19583
24950
20410
8164
8180
10105
11601
12497
12946
13149
13347
13529
13689
13846
14052
14193
14397
14555
14763
15035
15441
15905
16339
16804
17062
17372
17447
17269
17065
16869
16063
15141
14245
13246
12379
11804
11392
11207
11150
11105
11196
11364
11442
11631
11723
11718
11870
11856
11809
11772
11853
11865
11912
11866
11935
12024
11908
11853
11969
12304
12636
12965
13081
13029
12873
12791
12644
12481
12369
12419
12380
12183
12173
14439
18822
24354
21402
8806
7549
9906
11547
12392
12886
13139
13314
13502
13643
13715
13917
14132
14368
14532
14768
15073
15382
15738
16269
16708
17078
17380
17432
17276
17064
16794
16295
15558
14630
13608
12510
12030
11545
11305
11194
11267
11299
11468
11554
11537
11668
11753
11821
11805
11850
11931
11947
11930
11921
11938
11940
11892
12076
12061
11960
11929
12178
12438
12964
13188
13154
12984
12934
12833
12674
12468
12387
12489
12430
12200
12161
14556
19146
24661
21296
8825
7884
10113
11567
12510
13046
13254
13413
13575
13765
13834
14029
14159
14360
14507
14904
15164
15489
15885
16377
16748
17197
17440
17595
17572
17317
17000
16504
15640
14635
13615
12734
12039
11552
11352
11220
11212
11328
11263
11301
11580
11577
11685
11699
11745
11744
11825
11803
11811
11839
11863
11815
11939
11987
11976
11897
12062
12382
12720
13049
13115
12897
12747
12786
12612
12483
12422
12505
12310
11975
12653
15949
20987
25426
17436
7266
8921
10353
11606
12370
12930
13133
13362
13464
13584
13671
14009
14163
14389
14638
14908
15235
15530
15953
16327
16774
17232
17534
17553
17533
17235
16815
16039
15157
14126
13148
12224
11606
11275
11095
11069
11078
11150
11267
11451
11572
11581
11683
11711
11649
11783
11723
11666
11736
11977
11986
12006
11821
11838
11876
11993
12237
12659
12928
13080
12958
12864
12667
12485
12250
12218
12392
12355
11989
12168
15039
19822
25218
19695
7977
8476
9987
11394
12390
12921
13074
13396
13525
13642
13785
13940
14095
14325
14479
14793
15114
15539
15826
16242
16709
17086
17374
17419
17267
17081
16725
16046
15198
14200
13177
12218
11654
11360
11083
11018
11118
11149
11340
11456
11650
11755
11767
11746
11833
11868
11942
11945
11929
11978
11991
12006
11989
12012
12019
12095
11967
11967
12241
12707
13066
13319
13189
13135
13030
12867
12740
12637
12577
12558
12504
12135
12751
15983
21418
25702
17176
7504
8897
10421
11820
12670
13154
13310
13485
13712
13854
13911
14081
14209
14430
14697
14980
15265
15591
16014
16415
16869
17250
17468
17516
17407
17168
16835
16134
15266
14286
13397
12279
11617
11316
11196
11116
11232
11368
11501
11621
11665
11728
11739
11838
11852
11865
11932
11910
11887
11958
11915
11952
11963
12005
12045
12029
11859
11700
12141
12652
13074
13211
13162
13037
12923
12728
12707
12490
12511
12552
12419
12115
12617
15815
21124
25195
17027
7120
8617
10614
11878
12676
13015
13343
13589
13732
13776
13898
14011
14199
14453
14653
14927
15251
15651
16084
16445
16780
17156
17400
17450
17222
17106
16860
15949
14993
14067
13073
12312
11755
11536
11314
11278
11244
11343
11418
11545
11693
11737
11793
11944
12076
12024
11984
11993
11949
11895
11950
11983
12033
11966
12084
12136
12117
12088
12156
12451
12910
13226
13291
13119
13074
12929
12773
12661
12516
12463
12460
12339
12317
14483
18918
24418
22181
9559
7614
9889
11572
12479
13069
13296
13477
13639
13835
13937
14064
14243
14530
14688
14895
15120
15507
15920
16332
16735
17088
17309
17454
17414
17293
16933
16288
15451
14414
13431
12572
11928
11431
11313
11219
11267
11276
11354
11320
11429
11518
11639
11681
11739
11852
11867
11875
11858
11822
11819
11920
11937
11977
11867
11957
12026
12227
12491
12847
12964
12937
12843
12767
12620
12386
12376
12343
12395
12252
12171
13765
17795
23392
23810
11295
7371
9504
10892
12059
12796
12973
13253
13589
13705
13800
13834
14022
14263
14502
14637
14943
15243
15720
16156
16673
17027
17388
17485
17488
17266
16878
16170
15220
14134
13223
12365
11730
11289
11167
11017
10937
11042
11128
11204
11203
11479
11517
11689
11710
11764
11764
11847
11878
11909
11811
11907
11873
11836
12022
12160
12468
12763
13020
12959
12820
12776
12637
12372
12184
12328
12412
12313
11951
12670
16046
21361
25455
16312
7272
8918
10338
11702
12598
13059
13219
13354
13503
13714
13788
13989
14148
14373
14554
14860
15210
15522
15905
16393
16811
17148
17398
17474
17313
16951
16390
15570
14587
13609
12703
11956
11529
11253
11129
11122
11203
11291
11479
11553
11595
11703
11746
11746
11823
11827
11761
11823
11799
11845
11894
11895
11935
11896
11811
11930
12278
12673
12915
13118
12903
12937
12847
12632
12368
12205
12243
12254
12156
12076
14046
18245
24164
22870
9961
7389
9661
11208
12162
12790
13112
13371
13497
13618
13746
13876
13991
14174
14443
14725
15001
15315
15687
16103
16612
17276
17454
17461
17277
17122
16735
16189
15374
14320
13382
12493
11848
11533
11362
11162
11130
11246
11406
11463
11459
11552
11736
11719
11771
11851
11913
11808
11843
11895
11822
11844
11874
11792
11867
11958
12187
12645
12868
13063
12932
12803
12688
12594
12367
12204
12095
12305
12148
12241
14181
18405
23928
22341
9684
7358
9698
11256
12262
12825
13063
13188
13508
13672
13738
13919
14113
14259
14541
14835
15142
15290
15616
16172
16702
17147
17304
17454
17333
17123
16734
16242
15367
14369
13286
12503
11901
11581
11355
11276
11187
11373
11361
11422
11488
11549
11717
11740
11833
11850
11801
11807
11991
12016
11942
11783
11879
11788
11950
11949
12182
12586
12831
13058
12986
12827
12645
12523
12394
12282
12221
12359
12103
12078
14075
18362
23891
22976
10226
7431
9680
11308
12287
12887
13141
13391
13567
13683
13870
13947
14168
14278
14557
14786
15101
15359
15813
16179
16836
17141
17368
17347
17361
17142
16731
16050
15316
14422
13380
12383
11777
11447
11221
11117
11124
11212
11285
11398
11481
11644
11709
11771
11782
11802
11860
11868
11889
11965
11923
11915
11822
11926
12053
12211
12517
12711
13059
13050
12970
12771
12646
12311
12295
12289
12271
12027
11903
13353
17286
22968
24700
13134
7326
9398
10717
11975
12677
12992
13212
13495
13682
13840
13955
14126
14308
14378
14602
14904
15252
15684
16203
16555
17119
17372
17438
17384
17228
16749
16169
15297
14364
13228
12454
11710
11409
11243
11114
10992
11046
11249
11407
11450
11494
11665
11842
11924
11893
11957
11968
11995
11991
12102
12010
11916
11980
12073
12102
12351
12657
12926
13088
13016
13011
12847
12691
12548
12424
12410
12488
12271
12082
13998
18364
24154
23122
10329
7822
9698
11148
12168
12798
13031
13195
13426
13591
13789
13844
14014
14150
14479
14625
14885
15342
15849
16205
16712
17107
17450
17371
17297
17021
16724
16092
15246
14184
13129
12340
11768
11439
11229
11173
11216
11284
11391
11616
11643
11661
11610
11667
11784
11801
11923
12010
11863
11872
11963
11900
11892
11911
11894
11846
11942
12159
12546
12935
13201
13064
12995
12849
12721
12567
12393
12246
12364
12317
12113
13168
16803
22488
24538
13725
6871
9125
10881
11883
12770
13140
13292
13456
13585
13766
13974
13956
14174
14515
14815
15057
15335
15672
16221
16701
17152
17320
17416
17308
17203
16871
16367
15534
14584
13636
12742
12056
11611
11305
11201
11210
11389
11483
11579
11688
11642
11804
11787
11915
12004
12028
11971
12001
11842
11879
11940
12018
12006
11801
11919
12003
12263
12576
12803
13108
13040
12927
12840
12640
12458
12169
12203
12405
12232
12165
14188
18568
24329
22843
9980
7609
9771
11449
12415
13058
13080
13199
13425
13642
13705
14084
14225
14332
14485
14784
15058
15522
15964
16395
16858
17181
17421
17534
17453
17399
17003
16292
15310
14302
13253
12346
11825
11517
11270
11125
11294
11360
11426
11416
11513
11619
11663
11689
11767
11796
11762
11732
11858
11854
11820
11828
11841
11835
11779
11989
12170
12553
12853
13237
13052
12721
12623
12559
12443
12237
12207
12211
12332
12027
13319
17130
22652
24728
13487
7320
9367
10666
11883
12647
13078
13237
13448
13683
13857
13927
14050
14328
14546
14726
14994
15485
15795
16161
16602
17096
17280
17421
17377
17166
16738
16120
15237
14279
13307
12374
11739
11492
11179
11017
11061
11173
11196
11330
11398
11404
11650
11745
11869
11976
11957
11889
12003
12023
11914
11846
11922
12064
11986
12017
12080
12374
12772
13126
13163
13023
12824
12736
12588
12529
12440
12462
12412
12114
12121
14568
19043
24720
21371
8633
7900
9806
11434
12516
13117
13192
13434
13576
13749
13793
13957
14092
14273
14542
14942
15220
15630
16062
16496
16868
17179
17360
17464
17320
17056
16786
16032
15058
14030
13075
12246
11817
11393
11249
11140
11374
11379
11447
11611
11683
11765
11796
11826
11777
11891
11909
12014
11876
11928
11962
11902
11895
11953
11925
11974
12022
12238
12510
12905
13220
13263
13112
13060
12822
12617
12355
12317
12476
12475
12265
12523
15304
19980
24995
19408
7545
8108
10264
11681
12625
13101
13180
13491
13644
13800
13933
14049
14129
14481
14747
14985
15231
15675
16008
16490
16843
17174
17377
17353
17146
16843
16652
16007
15036
14091
13136
12321
11739
11365
11217
11259
11314
11264
11411
11478
11741
11742
11803
11741
11711
11678
11749
11899
11967
11902
11923
11864
11808
11904
11873
11890
12032
12412
12780
13129
13143
13077
12905
12840
12697
12381
12332
12409
12411
12046
12336
15043
19822
24900
20674
8083
7553
9797
11563
12462
13038
13223
13434
13556
13685
13773
14054
14184
14352
14701
14980
15275
15678
16160
16543
17004
17346
17523
17490
17369
17132
16716
16005
15215
14183
13277
12417
11819
11454
11266
11189
11201
11319
11315
11446
11548
11609
11705
11834
11739
11746
11836
11887
11826
11712
11824
11891
11851
11767
11933
12054
12252
12534
12897
13006
12950
12719
12580
12576
12444
12245
12253
12270
12161
12293
14598
18910
24554
21977
8956
7735
9776
11260
12276
12853
13132
13365
13416
13577
13635
13924
14209
14393
14577
14947
15189
15489
15936
16514
16872
17243
17365
17529
17436
17098
16584
15863
14949
14053
13163
12187
11608
11283
11065
10887
11062
11160
11193
11118
11364
11507
11600
11677
11837
11732
11748
11786
11751
11769
11769
11916
11805
11754
11957
12348
12654
12990
12986
12933
12767
12542
12447
12271
12189
12183
12196
11952
12459
15572
20860
25449
17494
7247
8647
10213
11679
12491
12903
13271
13390
13484
13685
13777
14034
14288
14465
14651
14951
15364
15690
16060
16566
17076
17402
17575
17423
17244
16914
16494
15642
14659
13522
12705
11883
11475
11274
11155
11105
11171
11293
11402
11479
11551
11694
11725
11871
11797
11905
11845
11913
11876
11894
11811
11806
11920
11911
11928
11996
12237
12576
12847
13132
13092
12978
12815
12594
12465
12262
12393
12435
12220
12034
13895
17988
23768
23552
10993
7291
9593
11292
12274
12911
13178
13357
13435
13629
13766
14016
14167
14478
14601
14883
15144
15573
15923
16352
16701
17132
17480
17655
17424
17198
16865
16250
15462
14360
13389
12553
11924
11480
11325
11180
11218
11232
11286
11416
11675
11712
11749
11809
11918
11940
11866
11872
11787
11799
11834
11905
11902
12086
12023
11948
11960
12140
12483
12943
13133
13164
13065
12983
12768
12588
12437
12319
12291
12331
12175
12548
15699
20748
25049
17535
7141
8303
10334
11860
12682
13016
13152
13322
13608
13815
13917
14042
14317
14543
14731
15022
15329
15820
16314
16774
16997
17366
17522
17475
17233
17029
16643
15905
14939
13956
12987
12234
11813
11548
11303
11283
11273
11417
11546
11544
11643
11686
11826
11896
11833
11935
12008
12029
12006
12088
12001
11943
11966
12006
11980
12021
11940
12129
12439
12973
13227
13368
13111
12978
12785
12654
12436
12356
12497
12492
12137
12353
15206
20106
25074
19726
7952
8208
10327
11771
12645
13124
13404
13470
13612
13699
13906
14065
14308
14479
14746
14986
15283
15658
16077
16548
16927
17248
17414
17454
17181
17006
16708
16099
15158
14208
13181
12409
11864
11461
11219
11127
11127
11342
11316
11318
11477
11502
11601
11678
11755
11760
11883
11814
11837
11815
11828
11843
11989
11776
11858
11909
12171
12476
12778
13129
13039
12946
12698
12575
12427
12285
12247
12298
12060
12010
14075
18432
24232
22973
9983
7559
9545
10955
12086
13069
13153
13253
13373
13603
13780
13906
14131
14322
14585
14757
15109
15424
15860
16385
16907
17118
17343
17436
17391
17149
16691
15994
15081
14025
12954
12181
11613
11217
10960
10947
11023
11214
11246
11342
11450
11670
11685
11735
11831
11881
11935
11989
11983
11894
11887
11884
11866
11948
11877
11800
12082
12498
12957
13188
13170
12927
12818
12689
12513
12348
12279
12390
12282
12055
13183
16969
22522
25038
13875
7195
9083
10774
11967
13012
13255
13421
13547
13696
13789
13930
14131
14350
14532
14783
14990
15391
15830
16268
16747
17150
17488
17479
17460
17268
16928
16341
15562
14452
13407
12612
11958
11509
11207
11019
11024
11195
11304
11477
11460
11496
11676
11778
11777
11871
11847
11751
11868
11989
11925
11974
11964
12019
12042
12050
12029
12101
12407
12831
13183
13066
12999
12961
12858
12669
12535
12393
12355
12321
12093
12433
15297
20226
25058
18732
7437
8235
10920
12108
12826
13099
13285
13472
13609
13882
14036
14156
14250
14548
14771
15048
15282
15659
16049
16556
16877
17345
17661
17475
17301
17173
16708
15900
14993
13957
13026
12271
11765
11384
11200
11156
11293
11332
11462
11447
11515
11540
11690
11770
11733
11830
11877
11897
11898
11891
11832
12001
11990
11938
12053
12034
11974
12135
12437
12783
13095
13228
13137
13042
12936
12686
12566
12398
12405
12409
12328
12239
14205
18308
23962
18768
7448
8154
10222
11751
12710
13088
13207
13354
13599
13763
13909
14087
14248
14421
14680
15020
15219
15604
16031
16510
16916
17267
17506
17690
17494
17202
16785
16236
15485
14468
13420
12510
11793
11549
11372
11146
11092
11135
11338
11475
11522
11528
11668
11711
11771
11811
11726
11768
11817
11855
11787
11789
11828
11740
11808
11874
11900
11922
12109
12601
12972
13217
13058
12964
12757
12615
12548
12403
12398
12398
12203
12061
13608
19342
24947
20939
8468
8287
10042
11328
12518
12985
13310
13414
13550
13685
13847
14010
14303
14453
14598
14876
15189
15525
15985
16445
16843
17205
17437
17620
17624
17316
16804
16257
15384
14459
13387
12528
11879
11487
11214
11210
11147
11287
11411
11474
11646
11587
11754
11761
11824
11815
11886
11939
11903
11825
11868
11976
12043
11917
11895
12009
12158
12209
11990
12116
12467
12959
13251
13242
13059
13052
12926
12783
12505
12447
12537
12418
12071
12879
16267
21640
25477
16375
7265
8825
10531
11899
12770
13143
13295
13458
13742
13874
14067
14180
14336
14408
14691
15015
15365
15626
15992
16451
16995
17289
17511
17493
17420
17274
16894
16161
15219
14285
13269
12467
11805
11474
11241
11172
11242
11383
11444
11499
11597
11762
11828
11826
11898
11921
11935
11840
11765
11766
11947
11933
11919
11982
12102
12140
12154
12083
12085
12351
12651
12958
13190
13148
13001
12857
12693
12458
12462
12500
12518
12273
12372
15151
19891
24911
19717
7788
7924
10130
11697
12580
13074
13279
13483
13718
13918
14022
14106
14220
14419
14654
14921
15184
15540
15888
16331
16741
17269
17439
17400
17325
17266
16899
16259
15511
14541
13485
12556
11953
11508
11348
11215
11269
11295
11383
11366
11570
11663
11730
11757
11762
11755
11775
11868
11840
11863
11871
11888
11863
11920
11961
11920
11889
11929
12168
12598
12967
13232
13078
12887
12718
12693
12469
12409
12416
12477
12244
12429
14736
19152
24635
21668
8887
7511
9841
11314
12372
12894
13201
13345
13514
13704
13883
13975
14211
14377
14517
14797
15067
15376
15750
16304
16747
17226
17450
17564
17499
17397
17135
16631
15673
14597
13518
12607
11950
11500
11177
10955
10978
10988
11175
11288
11358
11395
11472
11580
11723
11720
11772
11686
11735
11728
11771
11793
11752
11780
11787
11907
11964
12291
12561
12991
13086
12854
12740
12614
12482
12285
12160
12283
12245
12064
12728
16051
21004
25418
17527
7243
8659
10221
11568
12614
13021
13202
13463
13605
13640
13777
14132
14415
14536
14395
14725
15089
15610
16020
16514
16910
17257
17582
17652
17483
17108
16639
15941
15213
14117
13074
12248
11646
11275
11177
11086
11054
11222
11351
11419
11485
11497
11823
11880
11827
11916
11829
11785
11725
11779
11818
11820
11847
12002
11901
11782
12130
12475
12947
13139
13036
12959
12834
12672
12326
12223
12395
12471
12120
11894
13332
17295
23146
24473
12604
7257
9259
10815
12093
12806
13121
13274
13536
13681
13863
13965
14084
14295
14485
14762
14973
15329
15703
16135
16534
17072
17370
17623
17602
17543
17194
16640
15862
14869
13804
12843
12098
11518
11321
11272
11180
11042
11171
11227
11368
11541
11662
11681
11739
11732
11857
11945
11844
11845
11856
11942
11881
11853
11866
11953
11890
12015
12335
12771
13050
13177
13010
13007
12886
12773
12446
12170
12251
12382
12139
12254
14438
18801
24291
21721
9049
7531
9902
11472
12439
12971
13381
13485
13682
13723
13888
14070
14159
14339
14639
14887
15118
15425
15848
16290
16781
17234
17468
17528
17491
17361
16963
16480
15703
14797
13706
12733
12142
11735
11401
11247
11291
11329
11464
11603
11639
11688
11820
11803
11865
11785
11846
11949
11966
11944
11975
11915
12031
12081
12037
11953
12154
12405
12814
13038
13060
13019
12930
12720
12628
12478
12285
12366
12459
12336
12624
15388
20077
24952
19536
7752
8085
10224
11752
12622
13061
13224
13432
13636
13803
13888
13996
14160
14455
14601
14817
15041
15495
15914
16408
16829
17331
17493
17477
17401
17236
16908
16308
15447
14318
13353
12508
11880
11417
11305
11184
11189
11165
11257
11351
11496
11464
11541
11606
11706
11835
11774
11784
11723
11821
11759
11854
11872
12044
12004
12228
12557
12867
12999
12901
12769
12668
12336
12249
12136
12155
12253
12184
12115
13699
17628
23235
23974
11776
7454
9541
10849
11991
12767
13016
13244
13234
13525
13714
13821
13899
14000
14195
14507
14889
15281
15697
16070
16628
17038
17379
17478
17466
17340
17028
16388
15655
14727
13638
12552
11934
11504
11240
11053
10957
11052
11191
11406
11442
11571
11607
11801
11849
11904
11918
11895
11796
11902
11992
12058
12159
12119
12054
12249
12573
12890
13107
13056
12887
12744
12555
12313
12185
12233
12404
12263
11985
12979
16630
22060
25465
15719
7051
8810
10462
11787
12635
13050
13231
13478
13634
13791
13854
13995
14266
14520
14630
14888
15155
15624
16092
16510
16940
17305
17509
17500
17392
17184
16818
16028
15085
14025
13034
12181
11650
11285
11160
11092
11182
11159
11358
11463
11539
11753
11899
11857
11793
11867
11871
11806
11832
11942
11906
11999
11921
12086
12021
11974
11923
12369
12809
13127
13135
13033
12930
12789
12668
12494
12397
12393
12431
12195
12201
14173
18601
24050
22323
9612
7392
9696
11268
12131
12775
13057
13293
13386
13533
13724
13929
14163
14271
14580
14760
15057
15432
15882
16238
16766
17121
17400
17449
17416
17265
17086
16584
15758
14717
13662
12820
12132
11662
11417
11290
11187
11298
11301
11440
11440
11588
11688
11754
11767
11866
11876
11895
11894
11842
11819
11822
11933
11912
12005
11963
11859
11899
12297
12777
13235
13142
13061
12840
12719
12539
12444
12420
12448
12363
12089
12402
15251
20255
25197
19621
7802
8204
10279
11759
12537
13085
13261
13361
13522
13812
13888
13967
14177
14301
14616
14874
15179
15474
15908
16425
16901
17187
17483
17537
17480
17244
16927
16297
15403
14350
13359
12433
11846
11459
11207
11088
11012
11147
11264
11356
11378
11498
11573
11749
11715
11754
11756
11797
11751
11764
11715
11846
11946
11860
11881
11958
12194
12546
12893
13079
12994
12918
12737
12377
12330
12248
12336
12252
12127
11863
13419
17436
22965
24666
13170
7322
9407
10606
11772
12646
13118
13300
13385
13592
13678
13855
13940
14190
14410
14720
14995
15343
15710
16144
16621
17058
17336
17473
17475
17343
17076
16453
15740
14767
13780
12862
12023
11448
11196
11013
11018
11114
11225
11377
11260
11556
11639
11672
11743
11828
11872
11761
11739
11886
11814
11995
12099
11935
11925
12064
12300
12672
12898
13021
12924
12841
12695
12578
12329
12294
12490
12654
12628
12637
15097
19677
25389
21470
8895
8217
9989
11350
12302
12834
13117
13287
13394
13498
13647
13816
13951
14277
14475
14721
14973
15388
15742
16261
16789
17227
17546
17681
17608
17344
16895
16253
15266
14207
13256
12332
11701
11363
11211
11068
11153
11170
11190
11157
11342
11352
11538
11718
11732
11745
11804
11743
11662
11778
11898
11872
11799
11662
11877
12235
12679
12879
12916
12893
12723
12614
12463
12480
12154
12063
12117
12167
12087
13957
18191
23897
23166
10613
7393
9726
11141
12137
12804
13080
13332
13495
13713
13787
13935
14057
14263
14475
14786
15120
15347
15820
16366
16900
17246
17540
17696
17583
17388
17106
16575
15803
14691
13617
12674
12047
11504
11286
11323
11244
11198
11267
11434
11456
11588
11672
11769
11789
11856
11868
11854
11791
11844
11771
11794
11866
11949
11890
11871
12095
12571
12901
13224
13153
12978
12915
12653
12540
12289
12261
12384
12388
12049
12614
15669
20758
25264
18375
7447
8545
10506
11897
12603
12999
13204
13392
13449
13654
13873
14077
14226
14389
14686
14862
15126
15479
15896
16323
16827
17187
17423
17419
17404
17192
16788
16138
15168
14142
13083
12317
11729
11392
11161
11059
11042
11165
11366
11526
11450
11563
11676
11758
11788
11850
11861
11894
11869
11854
11884
11922
11948
11857
11900
12246
12658
12886
13057
12837
12823
12717
12611
12412
12295
12318
12445
12139
11993
14108
18510
24295
22956
9986
7678
9709
11019
12126
12823
13085
13182
13431
13601
13753
13885
13999
14191
14372
14628
14997
15307
15673
16257
16724
17134
17361
17486
17391
17305
16855
16342
15456
14409
13259
12426
11817
11384
11127
11042
11063
11021
11162
11326
11486
11578
11720
11684
11716
11747
11819
11807
11867
11767
11948
11866
11811
11821
12058
12441
12726
12976
12982
12884
12753
12677
12492
12142
12166
12252
12146
11900
12477
15763
20966
25650
17557
7531
8826
10366
11688
12538
12921
13251
13364
13467
13638
13784
13935
14056
14424
14616
14797
15137
15616
16003
16425
16897
17268
17530
17570
17334
17149
16794
16031
15039
13895
12941
12175
11620
11230
11090
11121
11236
11267
11443
11503
11500
11648
11769
11811
11706
11792
11864
11912
11907
11954
11966
11818
11776
11918
12171
12560
12876
13026
12977
12947
12685
12502
12336
12264
12267
12363
12133
11992
13961
18369
24152
22789
9940
7329
9654
11279
12151
12733
13035
13146
13390
13519
13655
13845
14022
14171
14430
14770
15039
15382
15667
16121
16672
17017
17244
17438
17344
17120
16821
16394
15503
14477
13414
12635
12093
11593
11417
11354
11297
11266
11355
11436
11598
11576
11661
11765
11840
11756
11840
11873
11899
11810
11915
11903
11864
12208
12588
12921
13060
13002
12780
12573
12553
12369
12277
12344
12357
12139
12035
14228
18884
24426
22077
9262
7550
9854
11445
12295
12800
13112
13408
13560
13614
13803
13889
14096
14264
14428
14797
15116
15389
15812
16210
16591
17001
17351
17472
17298
17088
16821
16320
15408
14434
13408
12508
11814
11362
11125
11009
10912
11159
11250
11255
11305
11618
11716
11716
11778
11828
11803
11725
11746
11792
11914
11702
11810
11868
12169
12525
12822
12791
12775
12613
12439
12278
12180
12060
12151
12160
11951
12089
14789
19466
25017
20938
8190
8113
9849
11312
12306
12815
13015
13220
13400
13559
13643
13853
14059
14274
14493
14665
14964
15345
15808
16219
16720
17036
17325
17495
17478
17165
16760
16051
15200
14161
13090
12277
11647
11441
11227
11132
11106
11159
11260
11302
11428
11605
11605
11643
11658
11762
11823
11924
11900
11848
11937
11841
11811
11926
12330
12732
12932
12967
12857
12797
12679
12595
12343
12139
12181
12225
11906
12155
15007
19958
25559
20382
8169
8394
10047
11432
12341
12923
13124
13351
13605
13738
13896
14099
14007
14199
14387
14703
15018
15491
15933
16474
16899
17261
17461
17529
17437
17184
16779
16120
15175
14113
13049
12067
11586
11304
11247
11142
11188
11268
11364
11494
11539
11479
11637
11810
11795
11812
11949
12003
12011
12000
11902
11939
11814
11856
12035
12509
12863
13215
13152
12940
12810
12698
12605
12361
12301
12270
12225
11928
12457
15730
21057
25394
17436
7084
8516
10387
11780
12521
12958
13153
13390
13487
13728
13855
14022
14215
14402
14644
14859
15161
15688
16096
16354
16819
17338
17388
17355
17385
17130
16670
15978
15145
14192
13227
12347
11804
11408
11247
11148
11165
11432
11570
11645
11667
11832
11961
12075
11834
11915
11906
11829
11770
11926
11954
11963
12056
12087
12022
11898
12453
12979
13284
13189
13041
12906
12721
12612
12417
12405
12501
12328
12179
12541
15453
20545
25160
18220
7297
8477
10646
11886
12630
13142
13322
13405
13530
13657
13779
13990
14208
14459
14625
14887
15279
15650
16050
16502
16861
17222
17377
17489
17486
17163
16816
16182
15359
14316
13305
12396
11806
11450
11325
11191
11258
11179
11273
11271
11556
11700
11666
11743
11790
11824
11855
11773
11692
11824
11761
11847
11897
11896
11790
11957
12306
12883
13117
13077
12910
12837
12609
12459
12269
12265
12292
12236
12098
12755
16081
21235
25506
16871
7257
8829
10441
11678
12497
12977
13258
13451
13588
13687
13703
13882
14063
14250
14553
14850
15127
15541
15936
16455
16886
17364
17464
17502
17391
17122
16604
15887
14904
13819
12824
12112
11539
11192
11130
11005
11031
11103
11263
11359
11472
11470
11600
11659
11649
11720
11800
11847
11768
11877
11978
11924
11950
11906
11906
11949
12232
12682
13039
13092
12942
12907
12860
12786
12578
12292
12256
12375
12121
12096
14311
18737
24666
22340
9505
8149
9871
11326
12405
12940
13203
13253
13413
13613
13786
13859
14157
14441
14668
14840
15113
15505
15923
16387
16806
17128
17455
17570
17483
17225
16923
16323
15342
14434
13389
12491
11699
11418
11176
11090
11138
11211
11297
11322
11412
11543
11700
11724
11771
11718
11814
11791
11890
11895
11962
11885
11909
12054
11960
11882
12169
12470
12918
13035
13036
12967
12907
12663
12576
12354
12274
12325
12222
12021
12758
16131
21492
25249
15986
7019
8768
10635
11945
12743
13130
13357
13518
13642
13803
13987
14136
14231
14627
14831
15043
15287
15688
16070
16649
17051
17467
17664
17613
17456
17282
16865
16074
15195
14172
13226
12406
11807
11578
11393
11219
11253
11285
11446
11497
11576
11590
11654
11786
11828
11829
11934
11948
11939
11899
11865
11853
11885
12218
12560
12972
13139
13120
13064
13000
12858
12729
12485
12430
12480
12383
12173
12928
16233
21464
24901
15918
7016
8772
10799
12077
12817
13170
13331
13493
13701
13804
13892
14064
14265
14420
14762
15048
15286
15726
16069
16592
17019
17380
17522
17499
17309
17154
16789
16300
15445
14260
13196
12369
11846
11339
11175
11132
11251
11254
11385
11482
11529
11610
11713
11732
11763
11763
11709
11749
11748
11825
11867
11928
11774
11790
11887
12188
12592
12860
12879
12841
12792
12664
12404
12265
12199
12216
12233
12108
12440
15284
20335
25323
18794
7323
8478
10208
11625
12419
12919
13117
13433
13517
13661
13757
13963
14106
14398
14528
14788
15063
15448
15983
16458
16932
17319
17540
17437
17344
17098
16680
15976
14977
13905
12990
12133
11521
11207
11079
11015
11014
11178
11258
11356
11417
11557
11627
11659
11677
11820
11827
11851
11821
11754
11858
11847
11881
11986
12339
12593
12819
13039
12884
12626
12460
12256
12198
12213
12264
12074
11772
12514
15840
21113
25482
16740
7201
8763
10428
11722
12517
12895
13074
13288
13401
13537
13692
13792
13958
14306
14569
14736
15055
15607
16030
16369
16805
17123
17380
17384
17270
17066
16590
15771
14843
13933
12977
12070
11572
11277
11161
11125
11411
11370
11268
11355
11582
11654
11666
11651
11771
11897
11901
11877
11905
11999
11935
11904
11828
12099
12458
12893
13147
13167
12997
12881
12602
12478
12352
12393
12386
12180
11912
13636
17910
23606
23117
10568
7424
9815
11360
12226
12804
13022
13285
13394
13577
13776
13981
14136
14291
14470
14758
14970
15322
15623
16005
16439
16774
17061
17283
17282
17059
16725
16164
15382
14392
13489
12621
12021
11617
11230
11063
11166
11317
11405
11518
11602
11703
11616
11697
11743
11847
11764
11733
11788
11932
11854
11845
11793
12033
12324
12725
13012
13060
12777
12690
12478
12285
12199
12202
12188
12000
11897
13254
17309
22998
23549
11467
7019
9476
11247
12250
12863
13036
13236
13409
13513
13662
13781
14008
14199
14469
14708
15008
15330
15684
16090
16595
16940
17217
17298
17339
17073
16682
16280
15621
14629
13677
12784
11986
11549
11290
11118
11105
11249
11402
11437
11507
11635
11640
11757
11748
11748
11779
11872
11827
11798
11871
11849
11860
12118
12532
12739
12906
12836
12774
12610
12420
12171
12119
12067
12161
12001
12154
14775
19632
24964
19782
7707
8357
10080
11503
12434
12812
12988
13124
13352
13521
13720
13895
14048
14289
14546
14754
15073
15421
15901
16282
16721
17063
17244
17346
17273
17057
16505
15901
15007
14022
12957
12154
11593
11279
11131
11117
11179
11243
11306
11431
11508
11610
11666
11733
11822
11898
11926
11851
11941
11889
11900
11865
11982
12268
12581
12943
13019
12848
12747
12521
12397
12237
12095
12199
12110
11816
12853
16557
22190
24890
13830
7273
9234
10747
11836
12606
12889
13143
13312
13591
13822
13906
14095
14273
14469
14672
14948
15265
15753
16058
16451
16836
17196
17317
17330
17124
16840
16389
15564
14669
13674
12723
12109
11626
11359
11249
11171
11292
11472
11483
11525
11752
11862
11961
11869
11887
11862
11914
11963
11962
12071
12036
11997
11991
12194
12486
12861
13164
13195
13056
12878
12628
12556
12340
12362
12405
12073
11916
13923
18272
24006
22447
9702
7505
9715
11303
12201
12839
13073
13215
13380
13552
13766
13949
14027
14243
14444
14787
15048
15493
15736
16093
16437
16904
17181
17201
17103
16971
16695
16167
15484
14518
13643
12713
12037
11668
11489
11334
11341
11455
11525
11571
11723
11759
11831
11907
11965
11948
11911
11967
12027
12041
12015
12151
12023
12022
11965
12228
12613
13077
13286
13198
13115
13001
12797
12698
12423
12325
12306
12119
12238
14565
19185
24438
21000
8423
7740
10074
11683
12453
13101
13276
13474
13571
13794
14101
14302
14354
14538
14757
15015
15240
15579
16054
16495
16797
16925
17196
17360
17348
17118
16820
16183
15457
14560
13591
12697
12132
11801
11338
11247
11348
11471
11613
11614
11547
11703
11740
11833
11816
11812
11817
11886
11847
11835
11905
11971
11955
11947
11938
12030
12418
12801
13030
12894
12826
12775
12613
12477
12334
12267
12306
12210
12163
14311
19031
24619
22322
9148
7821
9782
11284
12300
12834
13143
13344
13389
13474
13732
13867
14123
14303
14617
14648
14975
15386
15732
16168
16586
16948
17253
17400
17313
17128
16765
16210
15246
14340
13264
12408
11693
11310
11096
11108
11099
11179
11281
11404
11495
11580
11695
11743
11869
11866
11763
11891
11920
11896
11936
11953
11915
11740
11855
12102
12486
12768
13074
13038
12929
12788
12603
12412
12166
12298
12284
11971
11959
14939
19675
25276
20348
8133
8471
10165
11525
12532
12940
13269
13355
13559
13719
13888
14054
14184
14402
14622
14950
15164
15521
15960
16404
16795
17150
17379
17487
17299
16979
16504
15969
15107
14029
13133
12416
11758
11431
11175
11079
11272
11409
11486
11501
11680
11683
11754
11872
11909
11832
11785
11953
11936
11917
11848
11788
11843
11852
11853
11924
12247
12630
12912
13073
12905
12878
12729
12620
12320
12271
12197
12290
11980
12447
15542
20767
25329
17767
7152
8472
10289
11763
12655
12966
13122
13418
13581
13747
13961
14037
14101
14330
14660
14985
15278
15563
16017
16479
16905
17181
17350
17378
17116
17010
16711
16158
15205
14288
13266
12459
11783
11513
11337
11349
11295
11340
11317
11540
11679
11760
11816
11837
11854
11830
11949
11899
11893
11873
11874
11797
11966
11978
11986
11961
12253
12561
12956
13085
12995
12932
12851
12615
12479
12378
12322
12411
12246
12248
14385
19007
24467
21469
8472
7235
9765
11477
12384
12937
13210
13341
13441
13682
13865
13883
14100
14283
14466
14653
15022
15440
15951
16306
16740
17029
17261
17337
17213
17005
16793
16257
15501
14608
13687
12829
12094
11572
11288
11360
11294
11299
11359
11481
11591
11781
11803
11838
11825
11832
11834
11883
11897
11888
11835
11932
11939
11958
12052
11881
11844
11970
12348
12784
13015
13006
12939
12932
12743
12562
12410
12358
12339
12278
12096
13473
17367
23003
24479
12736
7163
9250
10783
12076
12833
13185
13117
13329
13624
13850
13954
14012
14051
14355
14713
14986
15386
15681
16075
16443
16905
17300
17475
17313
17206
16837
16503
15800
14873
13754
12725
11923
11378
11074
11038
10964
11151
11195
11243
11308
11428
11633
11765
11827
11819
11848
11796
11867
11890
11776
11790
11942
12038
11971
11989
12044
12249
12641
12927
13077
12917
12886
12863
12581
12525
12392
12455
12261
11976
12338
15419
20498
25660
19072
7860
8713
10098
11421
12375
12950
13135
13289
13505
13803
13908
14052
14199
14358
14516
14851
15149
15659
16076
16632
17030
17348
17574
17537
17354
17029
16699
16148
15218
14151
13219
12365
11831
11246
11048
11123
11269
11322
11407
11444
11616
11788
11901
11871
11841
11916
11997
11987
11988
12003
11997
11990
11988
12174
12051
12038
12006
12238
12569
12879
13130
13201
13123
12971
12898
12646
12301
12335
12365
12144
12231
14679
19278
24871
21350
8505
7772
9971
11519
12434
12940
13226
13527
13596
13743
13881
13916
14051
14207
14540
14829
15171
15560
15836
16254
16771
17077
17368
17378
17419
17131
16775
16202
15430
14391
13522
12757
12020
11499
11338
11286
11068
11159
11281
11414
11527
11723
11740
11925
11947
11870
11752
11779
11832
11857
11872
11977
11897
11975
11905
11857
11897
12109
12472
12875
13218
13160
13139
12924
12560
12274
12374
12378
12340
12094
12498
15222
20198
24929
18870
7440
8150
10396
11702
12494
12938
13198
13380
13536
13693
13945
14134
14298
14413
14610
14850
15191
15437
15803
16286
16746
17183
17476
17444
17294
16974
16595
16092
15233
14335
13375
12544
11932
11567
11334
11223
11260
11284
11400
11493
11592
11678
11696
11808
11865
11801
11888
11842
11941
11907
11952
11892
11862
11852
12034
11958
11955
12013
12384
12830
12997
13144
13048
12943
12755
12587
12350
12264
12316
12290
12044
13090
16912
22543
24975
14369
6941
8959
10650
11993
12773
13059
13267
13429
13609
13764
13904
13978
14266
14450
14769
14941
15189
15521
16036
16420
16896
17242
17466
17413
17254
16984
16649
15965
14894
13818
12870
12205
11598
11289
11075
11036
11090
11238
11294
11412
11488
11595
11527
11619
11723
11819
11883
11851
11814
11743
11746
11746
11918
11822
11878
11900
12242
12548
12810
13045
12998
12742
12511
12474
12342
12237
12309
12196
11889
13053
16842
22488
25129
14086
7377
9227
10583
11869
12691
13041
13079
13278
13472
13699
13811
13988
14114
14388
14575
14839
15274
15674
16069
16515
16882
17168
17438
17440
17301
16939
16506
15675
14705
13727
12768
11876
11393
11235
11109
11054
11134
11258
11187
11353
11482
11664
11677
11665
11740
11808
11727
11801
11851
11805
11865
11957
11978
12053
12074
11998
12238
12600
12847
13216
13162
13013
12893
12715
12556
12460
12519
12429
12131
12254
14823
19584
25139
20637
8251
8218
10205
11550
12375
12984
13308
13471
13587
13657
13821
14014
14140
14459
14668
14843
15099
15555
16013
16320
16655
17034
17321
17397
17306
17103
16742
16234
15453
14437
13434
12470
11850
11353
11267
11281
11371
11403
11484
11480
11602
11674
11718
11742
11786
11826
12041
12108
11950
11887
11803
11883
11954
11998
11982
12077
11947
11948
12143
12728
12934
13198
13073
12995
12892
12752
12552
12296
12319
12411
12281
12028
13884
18132
23789
22976
10389
7175
9606
11281
12277
12861
13156
13393
13657
13821
13894
13982
14258
14331
14485
14771
15110
15552
15950
16362
16679
17046
17290
17399
17359
17197
16878
16417
15748
15042
13930
12999
12391
11759
11419
11208
11267
11370
11354
11458
11640
11709
11852
11902
11896
11832
11907
11904
11865
11894
11948
11837
11881
11984
12009
12002
12212
12111
12035
12023
12198
12759
13256
13431
13235
13167
12972
12881
12597
12496
12504
12599
12320
12450
14961
19744
24842
20492
8238
8018
10233
11721
12714
13115
13317
13366
13652
13857
14045
14077
14101
14447
14701
14818
15147
15550
15937
16350
16757
17116
17356
17469
17347
17356
16940
16410
15556
14671
13656
12807
12066
11571
11304
11228
11148
11213
11426
11517
11620
11554
11674
11653
11730
11793
11869
11833
11869
11807
11931
11931
11925
11902
11855
11818
11978
12077
12004
12202
12578
12854
13133
13143
13006
12870
12672
12681
12465
12449
12380
12316
12120
13532
17396
23157
24719
12902
7299
9447
10792
11993
12843
13174
13374
13435
13625
13768
13887
14053
14303
14452
14659
15034
15472
15900
16216
16586
17008
17311
17528
17614
17279
16976
16552
15915
14959
14066
12891
12120
11470
11219
11094
11052
11049
11138
11383
11477
11565
11609
11752
11791
11742
11742
11729
11761
11865
11926
11891
11867
12077
11966
11979
12038
12320
12624
13009
13236
13076
12823
12715
12565
12321
12238
12241
12213
12006
12325
14995
19852
25270
20031
7966
8368
10073
11574
12509
13016
13180
13295
13438
13601
13824
14030
14265
14400
14502
14744
15061
15328
15816
16278
16763
17106
17355
17508
17433
17245
16817
16156
15346
14237
13154
12337
11697
11391
11227
11119
11122
11270
11379
11561
11496
11557
11653
11813
11827
11708
11794
11933
11870
11934
11856
11832
11838
11904
11835
11831
12004
12387
12703
12920
13005
12798
12821
12664
12557
12325
12211
12251
12274
11979
12342
15196
20525
25063
17937
7044
8315
10385
11658
12523
12901
13078
13302
13415
13575
13766
13910
14139
14316
14479
14702
15012
15467
15865
16347
16810
17167
17161
17170
17068
16840
16446
15892
15127
14217
13079
12282
11713
11380
11137
11081
11019
11140
11259
11290
11301
11447
11663
11580
11697
11650
11686
11628
11712
11732
11791
11822
11683
11828
12039
11872
11964
12174
12511
12866
13225
13167
13025
12933
12706
12561
12431
12387
12392
12433
12147
12997
16568
22236
24770
14469
6715
8970
10957
12113
12769
13069
13342
13529
13653
13781
13957
14088
14366
14435
14636
14834
15196
15587
16037
16374
16805
17146
17369
17422
17200
16883
16524
15912
14995
14042
13039
12307
11812
11573
11289
11275
11308
11319
11312
11411
11499
11617
11659
11706
11808
11835
11813
11860
11854
11837
11816
11821
11875
11833
11989
12026
12296
12524
12734
12985
13126
13010
12952
12644
12560
12265
12247
12437
12320
12094
13594
17568
23287
24563
12494
7270
9442
10997
12044
12840
13185
13316
13376
13587
13752
13970
14094
14287
14426
14618
14951
15345
15803
16179
16658
16952
17320
17470
17533
17260
16968
16505
15766
14813
13842
12940
12153
11552
11343
11156
11092
11228
11240
11274
11443
11628
11644
11801
11928
11942
11780
12017
11980
11973
11924
11885
11943
11874
11911
12052
12424
12680
12918
13231
13214
13053
12833
12740
12589
12301
12407
12472
12300
12107
14176
18422
24368
23189
10112
7914
9792
11203
12335
13067
13201
13330
13514
13819
13982
14113
14313
14613
14631
14908
15192
15576
16038
16436
16861
17285
17575
17665
17633
17382
17090
16500
15687
14644
13669
12799
12055
11682
11504
11313
11354
11421
11483
11558
11620
11665
11799
11955
11881
11880
11906
11956
11934
11935
11924
11895
11960
12142
12035
12103
12061
12360
12743
13175
13287
13164
13061
12928
12737
12605
12564
12465
12390
12051
12199
14535
19296
24905
21602
8699
7958
10067
11637
12520
12893
13149
13391
13537
13714
13832
14027
14291
14341
14523
14800
15213
15468
15784
16335
16816
17145
17446
17513
17449
17205
16886
16331
15432
14438
13434
12718
11952
11590
11318
11285
11240
11427
11520
11570
11635
11752
11744
11775
11833
11912
12024
12005
11988
11897
11869
11843
11870
12048
12040
11941
11961
12088
12448
12750
13206
13322
13209
12973
12858
12630
12381
12391
12439
12373
12161
12553
15292
20358
25038
18766
7310
8084
10327
11862
12620
13150
13328
13483
13694
13833
14057
14192
14346
14539
14677
14944
15268
15671
16058
16383
16820
17145
17286
17295
17330
17160
16850
16238
15450
14550
13672
12736
12048
11642
11393
11235
11204
11282
11435
11574
11720
11744
11763
11796
11851
11866
11838
11852
11787
11752
11690
11761
11788
11916
12092
12042
11951
12077
12409
12840
13195
13149
12964
12946
12715
12493
12423
12399
12476
12448
12206
12649
15704
20939
25039
17575
7033
8244
10401
11922
12642
13218
13436
13502
13606
13866
13979
14103
14300
14448
14604
14956
15243
15587
15974
16443
16829
17226
17472
17413
17296
17010
16697
16120
15266
14251
13432
12613
