12951
12670
12360
12197
12279
12329
12156
11996
13667
17821
23511
24086
11493
7624
9466
10871
12113
12807
13041
13279
13531
13628
13784
13919
14130
14250
14514
14805
15102
15371
15797
16188
16609
17018
17348
17533
17575
17440
17055
16502
15694
14708
13476
12497
11813
11462
11123
11085
11087
11124
11246
11297
11354
11521
11568
11620
11717
11793
11774
11740
11822
11844
11955
11899
11853
11937
11912
11875
11900
12159
12589
12966
13118
13104
12995
12745
12519
12367
12296
12357
12321
12101
12121
14374
18829
24511
22418
9472
7768
9708
11287
12286
12864
13142
13328
13554
13640
13737
13850
14052
14342
14596
14874
15138
15534
16009
16363
16804
17250
17512
17632
17590
17474
17102
16521
15678
14630
13510
12507
11864
11471
11221
11040
11129
11214
11274
11325
11479
11494
11543
11575
11632
11735
11850
11859
11844
11871
11886
11968
11962
11992
11902
11921
11923
12198
12582
12949
13106
13055
12976
12806
12677
12412
12240
12333
12448
12240
12059
14052
18438
24085
22973
10090
7467
9559
11174
12345
12977
13247
13313
13497
13732
13855
14000
14147
14344
14527
14804
15158
15462
15806
16312
16725
17084
17430
17555
17495
17317
17093
16525
15651
14583
13532
12635
11940
11489
11290
11240
11211
11227
11320
11446
11521
11611
11658
11818
11857
11822
11808
11889
11968
12012
11950
11920
11853
11933
11978
12038
12088
11995
11841
12292
12921
13182
13168
13062
13021
12852
12688
12524
12432
12449
12452
12179
12051
13980
18392
23978
23418
10693
7596
9573
11083
12245
12818
13168
13327
13456
13649
13858
13965
14138
14250
14529
14813
15076
15366
15840
16345
16779
17145
17449
17549
17533
17353
17030
16474
15572
14594
13497
12503
11738
11343
11042
10910
10934
11004
11071
11160
11238
11303
11400
11507
11604
11630
11668
11654
11727
11798
11691
11677
11693
11713
11821
11882
11797
11767
12033
12375
12707
12947
12935
12863
12859
12616
12476
12276
12283
12342
12320
11997
12301
15425
20449
25370
18659
7939
8806
10108
11487
12444
12861
13064
13305
13443
13659
13807
13964
14166
14377
14575
14880
15107
15508
15912
16449
16934
17337
17589
17631
17541
17207
16760
16073
15130
13997
12994
12035
11509
11141
10942
10965
11066
11024
11070
11194
11403
11463
11553
11613
11676
11765
11707
11711
11749
11849
11884
11887
11918
11980
12057
12002
11878
12153
12484
12933
13090
13057
13042
13073
12727
12582
12407
12393
12423
12431
11944
12361
15650
20748
25700
18709
7868
8734
10155
11636
12588
12974
13220
13411
13654
13783
13934
14149
14328
14400
14658
14970
15231
15675
16152
16660
17105
17508
17678
17772
17674
17523
17049
16322
15347
14287
13152
12267
11602
11242
11153
11099
11131
11152
11241
11282
11387
11477
11669
11734
11803
11857
11923
11897
11838
11846
11910
11913
11974
11939
12068
12065
11916
11917
12221
12706
13044
13133
13041
12995
12844
12759
12483
12402
12403
12404
12145
11980
13808
18022
23772
23955
11300
7510
9610
11105
12261
12975
13306
13501
13660
13757
13952
14004
14219
14354
14575
14915
15224
15539
15929
16345
16839
17311
17576
17761
17763
17612
17317
16809
15928
14920
13820
12840
12160
11650
11337
11271
11207
11206
11360
11437
11543
11609
11661
11686
11797
11833
11870
11851
11933
12002
12024
11917
12018
12037
12141
12169
12169
12042
12032
12259
12796
13149
13301
13206
13172
12983
12783
12650
12473
12469
12494
12427
12045
12785
16267
21575
25517
16702
7452
8947
10527
12035
12801
13239
13482
13605
13806
13968
14157
14353
14501
14636
14937
15172
15506
15797
16235
16703
17239
17566
17765
17869
17809
17518
17057
16318
15326
14323
13240
12360
11674
11311
11205
11172
11077
11192
11299
11365
11445
11541
11652
11728
11688
11857
11844
11764
11794
11797
11902
11851
11794
11894
12016
11920
11853
12062
12489
12838
13098
12998
12895
12805
12557
12446
12351
12290
12292
12232
11904
12492
15827
20943
25459
17669
7793
9072
10230
11670
12605
12991
13127
13340
13562
13754
13984
14179
14238
14397
14532
14837
15283
15630
15976
16458
16996
17311
17574
17613
17533
17215
16795
16079
14961
13828
12811
12006
11443
11168
11057
10895
10920
11083
11204
11361
11463
11591
11636
11762
11767
11802
11860
11866
11960
11869
11734
11883
11917
11935
11886
11777
11869
12223
12802
13003
12991
12976
12968
12677
12542
12462
12332
12360
12352
12044
11996
14073
18494
24456
22887
10052
8279
9814
11225
12304
12858
13198
13385
13510
13599
13762
13954
14132
14275
14536
14782
15159
15577
15978
16373
16827
17349
17669
17752
17724
17547
17097
16470
15466
14425
13320
12331
11641
11325
11165
11081
11083
11091
11154
11298
11421
11540
11681
11703
11754
11822
11946
11954
11931
11961
12036
11991
12018
11997
12083
12137
12257
12115
11946
12238
12804
13111
13252
13290
13226
13046
12897
12826
12551
12552
12460
12348
11976
12917
16484
22022
25575
15877
7748
9089
10626
11950
12728
13096
13315
13533
13782
13934
14041
14140
14358
14566
14824
15118
15518
15830
16230
16661
17110
17475
17691
17771
17614
17396
16989
16212
15158
14073
13078
12326
11712
11394
11233
11225
11213
11277
11355
11484
11562
11715
11776
11877
11784
11818
11865
11892
11905
11919
11976
11996
11947
11964
12059
12029
12107
12124
12275
12232
12127
12298
12842
13311
13395
13228
13183
13078
12898
12783
12592
12629
12615
12546
12062
12643
15885
21138
25546
17613
7660
8879
10549
11945
12731
13133
13362
13571
13718
13784
13913
14078
14302
14477
14790
14998
15299
15674
16120
16493
16981
17401
17712
17765
17645
17398
17085
16107
15004
13882
12947
12236
11612
11347
11104
11019
11098
11306
11213
11325
11409
11553
11688
11722
11682
11727
11867
11840
11792
11707
11772
11787
11838
11861
11975
12060
12216
12056
11973
11824
12247
12697
13075
13174
13128
13127
12968
12750
12648
12609
12527
12539
12325
12022
13211
17099
22671
25306
14475
7841
9472
10704
11963
12718
13098
13304
13503
13719
13933
13978
14172
14302
14488
14769
15115
15431
15745
16140
16669
17147
17569
17714
17646
17423
17085
16478
15624
14529
13405
12461
11737
11305
11039
10983
10891
10942
10962
11081
11135
11382
11499
11541
11555
11736
11736
11750
11746
11767
11812
11855
11942
11867
11881
11956
12026
11967
11927
11953
12280
12692
13058
13060
13033
12982
12830
12729
12550
12437
12455
12428
12187
11948
13673
17774
23528
24067
11785
8167
9620
10980
12242
12981
13194
13362
13476
13668
13800
13926
14105
14318
14556
14793
15131
15452
16011
16401
16967
17340
17701
17810
17676
17419
17047
16306
15312
14139
13115
12182
11593
11313
11083
11024
11077
11010
11058
11243
11305
11360
11487
11601
11625
11702
11789
11802
11810
11861
11912
11837
11844
11911
11931
12001
12030
12118
12134
11983
11973
12409
12972
13209
13184
13057
13032
12990
12901
12688
12536
12493
12523
12333
11969
13698
17974
23919
24094
11528
8069
9683
11227
12319
12844
13201
13431
13618
13775
14046
14137
14310
14474
14719
15045
15396
15706
16160
16536
16931
17422
17754
17890
17821
17703
17285
16644
15486
14419
13296
12427
11831
11472
11226
11122
11197
11241
11257
11346
11476
11577
11727
11729
11808
11816
11873
11894
11919
11851
11921
11876
11969
11947
12071
12086
12087
12086
12130
12164
12040
12079
12576
13136
13292
13288
13286
13211
13013
12753
12500
12435
12436
12542
12305
12179
14592
19142
24871
21804
9141
8168
10047
11658
12626
13055
13371
13473
13664
13733
13969
14254
14492
14639
14805
15042
15394
15708
16077
16488
16978
17410
17597
17708
17646
17386
16944
16322
15386
14305
13176
12346
11690
11387
11158
11120
11100
11179
11296
11408
11409
11561
11610
11687
11718
11782
11809
11727
11771
11826
11876
11899
11927
11863
11859
11877
11991
12122
12097
11871
11786
12232
12734
13162
13246
13095
13017
12982
12782
12602
12383
12384
12458
12249
11979
13441
17423
23104
24439
8783
8004
9872
11388
12366
12880
13138
13353
13510
13641
13723
13955
14129
14281
14518
14790
15043
15409
15765
16247
16709
17144
17438
17576
17550
17392
17023
16303
15456
14459
13420
12448
11721
11297
11113
10977
10994
10991
11094
11133
11167
11203
11333
11447
11540
11690
11703
11780
11733
11698
11663
11696
11733
11805
11725
11882
11887
11971
11932
11916
12269
12774
13061
13014
12932
12848
12720
12631
12505
12289
12252
12244
11995
12701
16340
21621
25229
15617
7685
9239
10376
11707
12635
12960
13122
13377
13614
13650
13738
13995
14084
14271
14477
14747
15092
15562
15950
16425
16946
17371
17627
17669
17567
17282
16733
15907
14955
13837
12773
11942
11473
11105
11015
10937
10988
11005
11120
11165
11335
11427
11588
11607
11708
11733
11753
11781
11784
11842
11818
11879
11855
11835
11951
11923
11951
11942
12176
12787
13143
13183
13088
13048
12968
12870
12639
12383
12415
12431
11997
12046
14846
19712
25343
19856
8429
8862
10135
11611
12612
13127
13370
13484
13689
13878
14109
14217
14342
14450
14592
14859
15147
15531
15896
16538
17111
17453
17643
17699
17641
17444
17045
16441
15439
14279
13283
12376
11724
11307
11151
11086
11129
11164
11288
11393
11616
11527
11562
11755
11921
11779
11797
12012
12091
11914
11922
12178
11979
11792
11848
12072
12123
12089
12058
12508
13027
13402
13420
13386
13330
13078
12855
12786
12589
12438
12341
12081
12563
15690
20687
25575
18839
8033
8905
10536
11948
12600
13106
13310
13572
13741
13945
14041
14113
14247
14589
14786
15122
15401
15709
16111
16564
17025
17488
17700
17660
17562
17391
17097
16363
15437
14368
13336
12381
11790
11448
11311
11162
11149
11285
11473
11491
11468
11529
11624
11747
11797
11861
11811
11848
11838
11820
11869
11947
11930
11957
11977
12081
12053
11953
12205
12659
13157
13280
13176
13145
12965
12742
12519
12365
12392
12369
12216
12073
13891
18045
23711
23431
10815
7426
9561
11182
12264
12889
13140
13396
13540
13623
13852
14035
14161
14381
14597
14839
15083
15429
15803
16245
16777
17249
17552
17633
17622
17481
17161
16638
15907
14821
13787
12804
12038
11516
11307
11095
11066
11118
11236
11348
11374
11443
11493
11576
11649
11701
11801
11834
11842
11851
11869
11847
11848
11911
11972
11881
11801
11934
12331
12804
13064
13056
12876
12812
12635
12470
12279
12305
12359
12283
11962
12679
16114
21332
25422
16926
7668
9046
10434
11783
12688
13043
13251
13450
13553
13692
13834
14044
14267
14463
14708
15044
15245
15561
15971
16515
16955
17378
17501
17544
17434
17270
16795
16138
15106
14044
12959
12074
11560
11356
11207
11053
11149
11190
11317
11374
11536
11603
11692
11769
11844
11835
11923
11880
11865
11900
11892
11917
11954
11949
11997
12024
12286
12765
13022
13037
12898
12894
12670
12586
12387
12314
12346
12363
12040
12216
14800
19556
25141
20561
8686
8800
10065
11420
12400
12995
13173
13301
13532
13746
13949
13994
14208
14384
14633
14800
15143
15572
15957
16458
16901
17271
17527
17662
17532
17292
16918
16198
15225
14173
13104
12261
11622
11415
11293
11204
11093
11174
11371
11550
11619
11613
11737
11856
11993
11989
11998
11859
11888
11948
12059
12037
12055
12103
12043
11943
12122
12723
12993
13145
13116
13063
13065
12791
12568
12458
12388
12436
12260
11919
13043
16853
22556
25269
14237
7788
9335
10840
12142
12853
13114
13271
13482
13679
13811
13896
14123
14294
14495
14719
15044
15364
15707
16025
16477
16971
17397
17568
17638
17485
17279
16625
15724
14797
13770
12807
12025
11624
11427
11324
11125
11211
11297
11493
11469
11516
11561
11620
11749
11861
11861
11819
11837
11949
11921
11828
11862
11943
12079
12056
11939
12061
12564
12994
13277
13124
13047
12970
12809
12693
12461
12383
12463
12435
12117
12448
15438
20496
25232
18765
7595
8491
10318
11789
12615
13134
13296
13440
13647
13819
13895
14122
14226
14313
14604
14862
15156
15542
16020
16416
16887
17208
17512
17670
17584
17155
16820
16155
15390
14336
13281
12475
11840
11421
11247
11264
11249
11353
11534
11616
11635
11698
11786
11859
11878
11910
11897
11939
11966
11923
11977
12020
11948
11961
12153
12230
12056
12000
12274
12654
13054
13207
13097
13077
13160
12879
12691
12428
12479
12400
12436
12129
12944
16490
21948
25273
15909
7352
9050
10635
12001
12898
13262
13318
13425
13733
13874
14067
14171
14243
14529
14719
14941
15292
15692
16040
16476
16918
17295
17488
17607
17452
17171
16718
16087
15160
14062
12977
12242
11655
11328
11229
11113
11101
11162
11193
11329
11538
11543
11636
11655
11727
11767
11862
11946
11910
11832
11865
11929
11972
11977
11919
11810
11831
12240
12656
12973
13041
12973
12888
12713
12507
12377
12284
12342
12397
12160
12195
14766
19313
24744
20918
8701
8552
9930
11198
12292
12847
13101
13328
13430
13661
13798
13853
14021
14310
14491
14705
15021
15535
15938
16330
16708
17039
17374
17540
17395
17180
16797
16078
15269
14210
13084
12109
11587
11273
11118
11096
11009
11012
11271
11328
11481
11456
11541
11624
11703
11817
11910
11844
11896
11897
11949
12028
11983
11881
11873
11853
11868
12385
12871
13085
12992
12973
12973
12674
12470
12436
12300
12365
12351
11931
12341
15485
20675
25616
18435
8215
9124
10177
11577
12489
13015
13186
13407
13532
13686
13918
14039
14196
14417
14558
14852
15204
15590
16062
16445
16889
17321
17644
17580
17453
17282
16781
15970
14982
13812
12827
12061
11593
11251
11209
11154
10960
11082
11249
11363
11431
11557
11645
11782
11778
11897
11955
11959
11805
11844
11867
11983
11961
12065
12103
12015
11858
12285
12749
13085
13105
13102
13061
12824
12786
12518
12315
12338
12368
12162
11824
13472
17815
23648
24065
11705
7968
9495
10968
12178
12909
13150
13353
13587
13655
13657
13765
14114
14340
14559
14750
15018
15458
15827
16324
16736
17019
17323
17437
17435
17360
17046
16520
15700
14686
13570
12667
11973
11484
11232
11163
11069
11040
11219
11387
11400
11513
11599
11629
11810
11803
11883
11952
11834
11817
11897
11948
12056
12047
12188
12184
12109
11948
12238
12681
13086
13241
13172
13096
13032
12791
12580
12468
12479
12494
12285
12031
13370
17341
22911
24620
13028
7307
9284
10972
12177
12908
13183
13320
13437
13641
13808
13889
14103
14293
14536
14785
15055
15356
15734
16175
16572
16937
17291
17488
17540
17427
17179
16719
15865
14876
13831
12838
12088
11612
11331
11202
11215
11263
11255
11333
11505
11614
11699
11898
11784
11782
11788
11915
11896
11918
11939
11905
11907
11956
12000
12076
12048
11877
11848
12212
12720
13037
13220
13148
13115
12947
12752
12569
12408
12421
12438
12212
12036
13618
17726
23453
23992
11908
7469
9562
11162
12296
12929
13315
13422
13524
13698
13961
14029
14188
14357
14558
14805
15042
15361
15745
16186
16581
17083
17332
17469
17404
17407
17092
16527
15841
14892
13824
12845
12089
11551
11309
11141
11158
11194
11263
11424
11502
11629
11743
11736
11702
11749
11785
11780
11866
11857
11907
11903
11991
12078
12021
11979
11871
12109
12562
12838
13047
13060
12878
12836
12663
12541
12335
12350
12303
12104
11723
12913
16649
22117
24872
14342
7747
9339
10653
11946
12706
12957
13101
13343
13616
13743
13966
14195
14247
14349
14694
14911
15159
15556
16018
16589
17082
17352
17501
17537
17384
17146
16606
15836
14791
13814
12691
11967
11536
11336
11211
11124
11105
11326
11444
11628
11666
11734
11710
11741
11871
11980
11956
11969
12052
12050
12057
12054
12041
11924
11938
12013
12418
12856
13216
13142
13084
13031
12904
12628
12365
12346
12369
12422
12117
12042
14422
18959
24653
21897
9377
8464
9940
11329
12325
12948
13159
13269
13463
13704
13824
13966
14203
14263
14530
14760
15109
15433
15853
16270
16767
17133
17392
17442
17518
17310
16801
16236
15334
14335
13345
12419
11835
11449
11263
11257
11155
11207
11340
11478
11574
11758
11832
11812
11835
11830
11914
11996
11910
11873
11910
11926
11967
12051
11936
11802
11958
12369
12968
13119
13071
13006
12906
12751
12660
12478
12432
12374
12358
12039
12213
14842
19731
24937
19837
7951
8238
10187
11620
12448
12894
13203
13454
13586
13701
13877
14033
14239
14379
14613
14858
15127
15427
15920
16404
16724
17183
17418
17506
17349
17124
16723
16146
15238
14234
13194
12351
11731
11441
11213
11077
11110
11246
11287
11359
11409
11499
11559
11563
11620
11645
11717
11762
11820
11733
11752
11768
11912
11931
11853
11799
11878
12293
12761
13044
13025
12998
13031
12918
12658
12365
12196
12288
12359
12042
11981
14354
18888
24306
21622
9059
7586
9821
11530
12383
12857
13094
13371
13580
13711
13834
14016
14131
14339
14517
14781
15079
15498
15837
16298
16720
17106
17392
17501
17421
17203
16916
16327
15552
14521
13359
12331
11721
11347
11214
11115
11100
11121
11280
11410
11480
11533
11595
11598
11699
11739
11718
11658
11710
11782
11769
11853
11823
11819
11758
11801
12108
12405
12674
12926
12904
12821
12664
12568
12354
12299
12271
12300
12132
11771
12964
16820
22198
24675
14032
7575
9246
10472
11856
12636
12998
13164
13405
13564
13783
13912
14034
14207
14478
14694
14925
15294
15650
16138
16511
17016
17336
17480
17400
17198
17016
16516
15650
14598
13526
12556
11919
11336
11127
11047
11076
11130
11207
11200
11354
11493
11594
11684
11726
11788
11860
11829
11876
11836
11825
11838
11929
12031
11903
11888
11931
12217
12604
13014
13030
12930
12818
12651
12506
12360
12172
12226
12245
11945
11849
14276
18868
24715
21983
9359
8250
9899
11428
12389
12963
13173
13391
13513
13701
13888
14137
14270
14416
14536
14845
15127
15393
15790
16242
16787
17201
17396
17514
17568
17324
16985
16288
15402
14407
13345
12113
11624
11418
11320
11184
11187
11304
11479
11583
11731
11677
11694
11800
11979
11963
11916
11970
12053
12114
12111
12140
12177
12342
12178
12033
12081
12548
12984
13237
13233
13191
13189
12979
12756
12533
12392
12508
12599
12257
12218
14739
19544
24960
21277
8852
8338
10308
11838
12675
13162
13478
13666
13726
13810
13992
14173
14320
14511
14809
15054
15336
15609
16069
16470
16931
17293
17539
17583
17486
17262
16992
16493
15548
14503
13176
12435
11848
11496
11397
11388
11312
11432
11471
11602
11692
11776
11974
12025
12006
12107
12076
12021
12032
12018
12005
12027
12023
12189
12121
12032
12035
12315
12792
13139
13297
13158
13057
12862
12707
12572
12449
12436
12438
12267
12092
13765
17958
23573
23541
11306
7370
9503
11135
12231
12854
13209
13337
13532
13621
13836
13963
14157
14336
14581
14863
15103
15490
15803
16222
16664
17191
17568
17623
17455
17369
17084
16571
11935
11462
11227
11093
11122
11162
11247
11294
11466
11623
11669
11745
11783
11744
11718
11700
11802
11862
11858
11875
11886
11944
11839
11798
11946
12326
12682
12914
12989
12867
12773
12715
12491
12313
12284
12497
12345
11895
12290
15248
20045
25091
19763
8340
8843
10214
11575
12478
13057
13238
13478
13605
13648
13774
14109
14182
14365
14623
14859
15273
15787
15939
16326
16968
17373
17432
17340
17332
17178
16809
16112
15205
14140
13114
12050
11599
11231
11154
11149
11155
11133
11209
11312
11514
11592
11703
11821
11962
12015
11855
11814
11851
11981
11993
12039
11919
11934
11903
12190
12543
12939
13147
13046
12862
12740
12688
12416
12277
12385
12449
12103
11847
13386
17376
22908
24627
12994
7908
9545
10874
11953
12660
13035
13157
13333
13489
13794
13900
14052
14242
14436
14594
14926
15447
15773
15996
16537
17071
17322
17578
17528
17291
17069
16591
15719
14621
13465
12106
11594
11286
11076
11098
11167
11290
11321
11470
11519
11556
11609
11712
11725
11868
11849
11755
11833
11917
11881
11964
11907
11947
12109
12016
11921
11997
12520
12877
13067
13024
12962
12837
12661
12422
12303
12354
12514
12201
11713
12952
16806
22428
25005
14162
7631
9281
10776
12093
12750
12940
13017
13349
13591
13703
13894
14074
14219
14380
14604
14897
15291
15631
16126
16460
17022
17296
17526
17538
17427
17126
16683
15847
14884
13476
12563
11866
11476
11316
11263
11180
11238
11303
11326
11512
11612
11639
11707
11744
11853
11832
11841
11955
11940
11932
11943
11945
11910
11867
11921
11916
11851
12022
12466
12938
13273
13169
13152
12953
12745
12595
12423
12416
12498
12428
12110
12745
16018
21135
25289
17121
7462
8882
10577
11905
12689
13141
13303
13604
13731
13828
13894
14089
14274
14532
14621
14830
15107
15503
15945
16394
16874
17206
17418
17477
17483
17234
16563
15782
14851
13753
12859
12107
11665
11411
11303
11166
11177
11355
11428
11499
11508
11617
11759
11793
11834
11838
11866
11866
11838
11871
11855
11986
11999
12069
12011
11938
11978
12305
12818
13079
13153
13083
12913
12751
12663
12439
12346
12385
12427
12207
12099
14019
18471
24122
22957
10334
7745
9690
11286
12309
12891
13098
13213
13448
13701
13928
14015
14194
14295
14547
14754
15115
15408
15822
16180
16669
17052
17301
17451
17427
17220
16828
16238
15333
14151
12999
12174
11615
11294
11175
11135
11032
11218
11205
11269
11374
11515
11531
11593
11707
11754
11802
11880
11806
11784
11834
11916
11967
11926
11955
11886
12007
12400
12864
13064
13031
12787
12701
12595
12439
12260
12327
12394
12264
11904
12807
16381
21575
25031
15647
7853
9378
10421
11677
12615
13013
13271
13494
13629
13732
13846
13907
14105
14351
14565
14930
15297
15605
16075
16517
16788
17214
17388
17508
17331
16978
16329
15536
14516
13440
12475
11827
11409
11353
11123
11087
11144
11194
11231
11367
11504
11687
11774
11876
11853
11924
11985
12053
12060
11905
11986
11980
12119
12060
11983
11835
12053
12540
12943
13090
13051
13021
12893
12660
12454
12385
12390
12437
12250
11920
13037
16762
22203
25199
14623
7723
9277
10674
12007
12738
12987
13153
13354
13547
13803
13979
14155
14276
14445
14707
15081
15409
15708
16110
16580
17003
17445
17575
17536
17350
17091
16507
15661
14602
13447
12601
11895
11537
11338
11216
11264
11287
11363
11484
11541
11639
11735
11789
11751
11897
11937
11899
11905
11920
11909
11967
11940
11920
12031
11934
11824
11863
12259
12762
13169
13111
12966
12936
12840
12712
12495
12398
12400
12469
12133
12087
14403
18999
24640
21890
9240
8141
9908
11497
12463
12924
13136
13377
13552
13607
13794
14014
14196
14310
14528
14705
15097
15430
15811
16227
16965
17314
17477
17499
17423
17171
16827
16170
15290
14169
13142
12371
11834
11420
11185
11109
11166
11221
11300
11448
11537
11583
11664
11695
11785
11870
11726
11737
11833
11843
11802
11879
11923
11953
12060
11948
11906
11964
12382
12774
13122
13137
13085
12972
12875
12693
12470
12405
12487
12484
12161
12243
14733
19391
24672
20758
8421
8154
10070
11587
12463
13099
13312
13482
13627
13780
13907
14128
14318
14451
14641
14945
15302
15631
16104
16608
17047
17344
17568
17673
17633
17318
16974
16210
15359
14246
13151
12287
11826
11448
11240
11168
11124
11228
11389
11457
11501
11591
11689
11773
11778
11912
11970
11999
11914
11847
11812
11825
11791
11877
11812
11788
11825
12158
12607
12902
13132
12921
12891
12692
12534
12301
12216
12240
12405
12167
11976
13851
18085
23639
23552
11007
7991
9731
11018
12239
12845
13061
13253
13468
13613
13856
13934
14080
14232
14505
14761
15147
15457
16003
16452
16826
17182
17543
17467
17336
17256
16870
16205
15271
14314
13220
12388
11793
11468
11204
11091
10948
11013
11165
11260
11466
11605
11571
11714
11802
11854
11884
11835
11860
11871
11902
11932
11985
11865
11887
11892
12207
12632
12944
13096
12937
12786
12780
12670
12430
12386
12407
12460
12037
11757
13416
17627
23411
23763
11455
8249
9711
11015
12183
12872
13109
13350
13549
13668
13689
13932
14135
14324
14595
14889
15114
15347
16010
16334
16667
17052
17401
17475
17391
17171
16763
16073
15195
14187
13234
12377
11868
11614
11280
10863
10948
11095
11217
11642
11772
11674
11791
11786
11641
11731
11681
11818
11940
12022
11853
11860
11944
12071
12202
11943
11786
11826
12330
12845
13122
13109
13131
13080
12784
12489
12390
12389
12442
12336
11951
12503
15382
20487
25401
18014
7629
8931
10464
11745
12606
13042
13130
13275
13531
13738
13900
14157
14352
14606
14769
15017
15175
15610
16108
16413
16865
17191
17434
17405
17353
16997
16473
15737
14869
13821
12797
12062
11682
11471
11244
11152
11228
11311
11288
11330
11546
11736
11739
11699
11733
11828
11791
11834
11866
11916
11904
11880
11900
11990
12076
12005
11838
11908
12460
12924
13200
13159
13099
13028
12828
12698
12507
12523
12446
12326
12114
12441
15377
20288
24961
18644
7647
8487
10397
11852
12631
13119
13233
13430
13556
13817
14077
14269
14348
14518
14879
15076
15294
15721
16053
16527
16938
17328
17417
17545
17399
17142
16650
15955
15136
14000
13044
12369
11756
11441
11269
11206
11383
11422
11435
11509
11591
11624
11728
11778
11824
11819
11740
11868
11891
11976
11907
11837
11959
12080
11905
11921
12129
12439
12766
13076
13115
13015
12931
12685
12521
12318
12315
12446
12409
12006
12659
15820
20922
25055
17393
7394
8768
10356
11833
12650
13017
13228
13355
13521
13719
13823
14058
14321
14473
14601
14886
15221
15605
16083
16560
16961
17231
17421
17453
17247
16866
16409
15659
14681
13701
12676
11863
11399
11120
10997
10957
11000
11148
11263
11442
11435
11514
11540
11657
11779
11794
11811
11790
11801
11919
12005
11893
11924
11896
11917
11811
12187
12548
12967
13066
12917
12693
12659
12630
12492
12298
12204
12218
12055
12145
14431
18825
24394
21388
9030
8428
9930
11252
12296
12821
13076
13287
13534
13662
13769
14020
14127
14332
14595
14878
15182
15543
15956
16417
16884
17266
17426
17424
17291
17012
16621
15867
14970
13835
12779
11956
11550
11226
11151
11017
11024
11083
11280
11388
11502
11626
11606
11679
11686
11753
11865
11962
11909
11985
11985
11924
11932
12043
11916
11904
12042
12354
12872
13290
13155
12980
12905
12706
12587
12324
12318
12405
12448
12103
12299
15108
20025
25243
19768
8163
8648
10305
11723
12638
13001
13306
13519
13664
13821
13969
14020
14176
14354
14747
14975
15271
15651
16023
16427
16844
17199
17440
17486
17330
17070
16731
15929
14981
13924
12970
12169
11578
11400
11181
11209
11314
11334
11422
11487
11562
11668
11651
11726
11700
11774
11926
11865
11887
11903
12045
11973
11934
12006
11997
11948
11858
12206
12732
13121
13324
13104
13062
12949
12787
12595
12399
12412
12443
12351
12109
13632
17669
23316
23773
11748
7349
9516
11165
12267
13075
13264
13373
13586
13694
13879
14056
14253
14387
14634
14963
15248
15547
15904
16425
16807
17235
17448
17569
17476
17308
16947
16349
15479
14530
13487
12629
11985
11564
11317
11251
11168
11173
11310
11452
11645
11709
11706
11815
11793
11731
11822
11808
11821
11821
11938
12000
12010
11940
11981
11941
11905
11902
12154
12636
12954
13140
13077
13045
12911
12685
12463
12337
12401
12540
12291
12126
13842
18058
23618
23386
11101
7542
10337
11812
12709
13125
13349
13457
13644
13784
13949
14053
14291
14449
14579
14808
15204
15521
15866
16265
16714
17191
17430
17488
17460
17341
16893
16324
15473
14537
13381
12449
11804
11479
11220
11133
11092
11217
11300
11451
11503
11633
11729
11773
11845
11850
11853
11770
11761
11756
11837
11859
11870
11905
11944
11965
11883
12113
12580
12868
12997
12980
12880
12765
12559
12376
12323
12360
12336
12177
12173
14310
18610
23928
21789
7663
9029
10437
11709
12573
13013
13218
13425
13537
13572
13680
13945
14170
14376
14566
14883
15242
15594
15980
16406
16838
17317
17501
17631
17505
17276
16882
16130
15143
14131
13114
12310
11766
11396
11240
11206
11155
11069
11257
11251
11382
11572
11709
11757
11781
11714
11807
11842
11752
11769
11839
12042
11928
11871
11827
12149
12495
12840
12995
13010
12843
12665
12598
12437
12311
12314
12296
12139
12021
13036
16751
21938
24949
15443
7671
9532
10831
11994
12801
13069
13269
13377
13557
13645
13848
14040
14276
14480
14692
14971
15379
15726
16161
16790
17506
17842
17828
17738
17408
17081
16536
15650
14517
13527
12635
11903
11316
11150
11079
11128
11124
11203
11314
11476
11554
11570
11704
11756
11831
11856
11919
11908
11926
11895
11996
12006
11943
11857
11904
12250
12689
12923
12954
12880
12702
12509
12351
12255
12201
12232
12320
12139
12093
14607
19166
24192
21258
7290
8543
10333
11630
12510
12903
13085
13333
13341
13534
13762
13957
14091
14296
14468
14833
15166
15475
15834
16417
16929
17383
17583
17575
17468
17228
16866
16161
15202
14086
13148
12332
11761
11322
11201
11190
11276
11212
11266
11134
11272
11425
11589
11686
11781
11893
11940
11953
11946
11948
11982
12164
12005
11916
11867
12190
12607
12949
13065
13061
12942
12676
12478
12372
12255
12260
12346
12258
12165
13552
17350
22427
24100
13862
7891
9945
11123
12101
12715
12976
13187
13311
13521
13648
13876
14027
14129
14303
14574
15031
15468
15769
16113
16575
17044
17424
17569
17599
17501
17228
16482
15573
14427
13440
12550
11877
11313
11106
11099
10989
11064
11104
11195
11317
11394
11437
11529
11547
11733
11774
11825
11844
11841
11931
11969
11903
11817
12066
12427
12744
12963
12916
12621
12596
12474
12390
12245
12243
12266
12229
12012
12804
16185
20920
24613
17247
7788
9757
10580
11696
12521
12948
13118
13335
13558
13684
13905
14012
14243
14471
14801
15106
15451
15726
16119
16582
17020
17380
17547
17634
17421
17059
16477
15669
14705
13633
12573
11871
11381
11245
11216
11124
11064
11168
11262
11321
11355
11542
11518
11709
11866
11950
11911
11896
11930
11963
12007
11993
12037
12114
12363
12600
12865
12917
12874
12885
12634
12454
12346
12266
12253
12371
12046
11948
14219
18570
24007
22629
10671
8419
10029
12264
12924
13177
13424
13493
13693
13859
14060
14151
14325
14588
14837
15143
15450
15961
16522
16995
17403
17749
17756
17622
17393
16975
16169
15145
13932
12925
12096
11679
11415
11162
11122
11169
11309
11342
11444
11493
11649
11750
11745
11746
11797
11758
11870
11927
12104
12150
12025
12018
12041
11930
12099
12424
12808
13005
12967
12990
12803
12603
12533
12433
12332
12355
12275
11819
12131
15374
20401
25741
19638
8450
8806
9952
11783
12690
12992
13187
13405
13557
13683
13867
14045
14227
14373
14625
15017
15236
15719
16174
16594
17111
17569
17747
17832
17693
17355
16829
16023
14923
13677
12767
11929
11472
11307
11214
11116
11191
11149
11311
11458
11505
11548
11642
11678
11646
11735
11774
11962
11899
11784
11792
11859
11843
11915
11995
12104
12022
11953
12060
12535
12978
13109
13022
12879
12921
12786
12691
12525
12512
12535
12600
12142
11892
14330
18985
24897
18265
7937
8749
10352
11815
12627
13063
13278
13495
13714
13943
13937
13958
14247
14445
14659
14926
15313
15640
16122
16654
17075
17371
17692
17839
17798
17535
17181
16577
15613
14434
13229
12271
11697
11340
11224
11151
11131
11228
11288
11413
11437
11527
11604
11686
11745
11762
11747
11788
11846
11828
11844
11834
11937
11945
11965
11958
12004
12108
12198
12175
12233
12254
12202
12030
12408
12937
13348
13172
13138
13149
13065
12961
12808
12644
12669
12620
12257
12003
14014
18458
24558
23385
10849
8097
9820
11479
12415
12867
13141
13464
13649
13741
13870
14027
14230
14409
14662
14892
15279
15594
15978
16302
16962
17410
17543
17698
17789
17701
17488
16999
16242
15260
14113
13007
12054
11579
11285
11139
11135
11286
11490
11487
11435
11498
11508
11551
11536
11715
11799
11798
11967
11915
11629
11698
11908
11900
11844
11893
12015
12046
12208
12260
12139
11985
11992
12378
12899
13097
13179
13120
13086
12879
12722
12663
12609
12512
12454
12195
11896
13845
18156
24085
23782
11622
8319
9892
11152
12231
12861
13185
13530
13577
13496
13609
13760
13970
14291
14516
14775
15039
15409
15780
16221
16578
17132
17432
17662
17717
17560
17272
16726
15831
14756
13704
12679
11932
11435
11222
11068
11058
11053
11230
11254
11321
11368
11467
11499
11527
11659
11695
11788
11840
11865
11917
11937
11903
11973
12057
12064
12053
12114
12230
12275
11971
11885
12282
12838
13242
13273
13255
13204
13115
13050
12822
12650
12635
12578
12433
11913
12871
16642
22290
25492
15583
7934
9233
10467
11921
12749
13220
13451
13612
13729
13978
14085
14176
14368
14566
14843
15137
15309
15649
16117
16688
17149
17562
17756
17870
17976
17707
17108
16385
15407
14202
13026
12224
11626
11181
11046
11107
11072
11171
11227
11324
11445
11597
11675
11734
11648
11696
11726
11815
11764
11851
11866
11948
11999
12052
12094
12179
12142
12247
12209
11998
12161
12729
13066
13196
13270
13306
13159
12903
12898
12590
12473
12473
12473
12128
12117
14610
19205
24926
21164
9113
8320
9950
11593
12513
12963
13249
13391
13490
13702
13947
14037
14219
14399
14663
14992
15134
15432
15868
16425
16872
17329
17717
17894
17864
17818
17421
16848
15785
14689
13556
12639
11924
11525
11262
11269
11235
11297
11228
11192
11358
11441
11622
11713
11730
11789
11808
11798
11829
11811
11859
11827
11871
11836
11904
12002
11933
11869
11939
12340
12774
13076
13092
13034
12983
12750
12653
12605
12486
12416
12437
12188
11906
13597
17682
23424
23569
11506
7695
9681
11243
12197
12870
13229
13320
13444
13689
13860
14030
14114
14287
14431
14664
14972
15371
15707
16144
16603
17151
17555
17712
17794
17579
17288
16765
16087
15025
13970
12903
12032
11514
11325
11087
11024
11038
11154
11308
11462
11456
11533
11654
11733
11688
11758
11749
11798
11767
11725
11832
11911
11863
11793
11833
12161
12471
12720
12992
12954
12874
12774
12703
12527
12262
12230
12303
12210
11877
13055
16798
22298
24637
13895
7219
9177
10845
12114
12755
13029
13183
13359
13643
13766
13827
13869
14009
14284
14593
14882
15199
15564
16111
16562
17017
17340
17591
17607
17506
17331
16756
15864
14821
13773
12742
11963
11484
11235
11084
11116
11071
11150
11340
11540
11466
11407
11475
11639
11692
11756
11748
11795
11770
11725
11858
11822
11752
11882
12181
12565
12852
12917
12828
12788
12696
12472
12298
12268
12246
12125
11817
11974
14559
19180
24497
20061
8222
8222
10146
11698
12488
12945
13168
13400
13494
13726
13812
13874
13985
14264
14548
14809
15081
15486
15863
16315
16879
17214
17537
17625
17520
17310
16979
16301
15454
14336
13356
12501
12027
11425
11134
11144
11116
11250
11376
11426
11559
11692
11674
11747
11919
11954
11881
11871
11881
11805
11859
11938
12103
12359
12637
12934
12942
12837
12687
12482
12416
12197
12036
12073
12100
11709
12691
16364
21873
24231
13862
7347
9295
10900
12092
12764
13012
13133
13271
13459
13555
13713
13943
14226
14419
14607
14782
15125
15472
16034
16479
16877
17189
17382
17369
17343
17041
16537
15889
14868
13676
12683
11988
11566
11368
11264
11245
11207
11327
11401
11501
11507
11613
11742
11877
11945
11894
11847
11881
11782
11802
11904
12338
12690
12874
12921
12783
12754
12679
12523
12351
12237
12258
12252
11967
11767
14061
18732
24552
22534
9702
8247
9958
11326
12168
12774
13015
13177
13270
13484
13546
13734
13819
13998
14294
14536
14863
15241
15649
16144
16384
16721
17103
17134
17167
16937
16606
16008
15202
14221
13341
12181
11526
11287
11104
10933
10942
11046
11077
11203
11311
11417
11515
11607
11580
11600
11589
11816
11709
11702
11692
12067
12406
12669
12748
12630
12557
12466
12245
12040
12038
12043
12085
11719
11645
14002
18616
24349
21410
9021
8603
10021
11248
12187
12782
12955
13155
13304
13587
13752
13840
14092
14334
14537
14655
14895
15288
15673
16244
16721
17074
17377
17417
17323
17066
16748
16070
15062
14025
12977
12159
11615
11296
11110
11059
11129
11297
11312
11386
11455
11523
11566
11722
11753
11779
11767
11924
11915
11925
11905
12304
12696
12795
12807
12770
12697
12497
12359
12220
12204
12152
12169
11765
11774
14335
19269
25013
20990
8807
8850
10095
11296
12324
12790
13004
13146
13331
13507
13782
14008
14126
14268
14492
14702
15052
15481
15780
16227
16818
17140
17242
17314
17287
17116
16699
15932
14935
13888
12921
12134
11596
11332
11130
11134
11215
11402
11436
11466
11501
11533
11687
11745
11712
11845
11965
11923
11971
11844
11831
11779
12075
12419
12833
13025
12886
12785
12667
12425
12329
12242
12349
12336
12089
11799
13641
18075
23969
23929
11160
8059
9729
10946
12016
12722
12971
13187
13314
13514
13655
13915
13998
14182
14398
14578
14920
15288
15702
16145
16627
16969
17313
17436
17285
16988
16737
16203
15372
14374
13349
12488
11839
11427
11222
11144
11189
11212
11204
11370
11543
11694
11755
11828
11753
11832
11867
11934
11879
11825
11879
11970
12037
11851
11929
12444
12936
12983
12919
12772
12657
12461
12313
12271
12385
12405
12043
11798
14107
18671
24487
22876
9750
7908
9783
11249
12255
12893
13217
13309
13367
13487
13576
13841
14024
14224
14430
14782
15027
15245
15621
16148
16580
16857
17209
17336
17294
17120
16705
16118
15453
14441
13343
12436
11798
11335
11068
11177
11263
11272
11336
11345
11533
11658
11634
11707
11802
11901
11902
11963
11977
11923
11866
11831
11968
11917
11813
11964
12213
12715
13049
13082
12962
12892
12688
12605
12406
12249
12316
12242
11947
13077
16838
22440
25197
14773
7205
9163
10885
12048
12693
13048
13304
13438
13599
13750
13985
14132
14352
14581
14815
15072
15363
15673
16173
16661
16949
17298
17416
17460
17381
17196
16839
16159
15185
14275
13109
12331
11846
11524
11306
11351
11375
11436
11507
11617
11703
11725
11764
11837
11882
11840
11847
11820
11887
11901
11921
11915
11951
11927
11870
12059
12442
12932
13011
13015
12995
12901
12621
12487
12303
12335
12397
12139
12037
14551
19293
24917
22158
9169
7992
9937
11374
12317
12846
13124
13329
13540
13732
13742
13812
13958
14173
14468
14746
14994
15348
15738
16158
16662
17047
17378
17517
17369
17197
16808
16168
15441
14446
13398
12406
11752
11357
11222
10899
10905
11054
11221
11339
11531
11584
11725
11716
11702
11688
11736
11719
11706
11693
11756
11975
11851
11780
11666
11919
12386
12761
12929
12787
12736
12560
12350
12187
12073
12113
12064
11675
12528
16112
21456
25571
16644
7567
9078
10264
11592
12493
12922
13122
13321
13383
13631
13770
13885
14164
14332
14528
14795
15180
15525
15987
16456
16852
17162
17549
17486
17339
17165
16699
15876
14974
13902
12682
11923
11467
11173
11093
11073
11071
11223
11253
11323
11418
11554
11542
11569
11717
11761
11738
11731
11768
11859
11945
11876
11817
11858
12182
12602
12783
12818
12802
12810
12712
12503
12436
12327
12239
12240
11947
12347
15626
20941
25751
17979
7711
8843
10235
11583
12464
12816
13031
13301
13613
13736
13841
14014
14108
14284
14498
14878
15127
15486
15936
16445
16851
17194
17459
17449
17332
17132
16787
16025
15029
13917
12890
12052
11557
11219
11076
11071
11279
11250
11320
11375
11549
11645
11719
11829
11782
11777
11808
11885
11822
11831
11847
11900
11896
11987
11976
11898
11964
12412
12809
13108
13095
12976
12901
12773
12563
12499
12482
12453
12281
11908
13157
17081
22900
24954
13533
7281
9322
10924
12050
12780
13266
13336
13486
13660
13807
13962
13978
14148
14503
14777
14994
15273
15611
16039
16550
17065
17302
17467
17544
17505
17207
16771
16060
15078
13972
13026
12380
11675
11284
11163
11140
11280
11354
11387
11475
11406
11533
11673
11719
11838
11880
11870
11945
11897
11821
11877
11942
11955
11993
12019
11997
12043
12255
12732
13080
13173
13155
13100
12825
12771
12580
12485
12490
12478
12156
12524
15673
20942
25325
17878
7395
8547
10507
11837
12652
13118
13308
13439
13688
13849
14046
14141
14249
14572
14805
14984
15298
15590
15976
16439
16843
17331
17584
17581
17516
17443
16978
16263
15389
14421
13351
12512
11872
11557
11262
11166
11188
11165
11280
11303
11395
11574
11739
11857
11855
11803
11907
11792
11842
11883
11887
11824
11888
12027
12054
11948
12007
12166
12467
12962
13033
12903
12814
12764
12567
12407
12345
12348
12316
12141
12134
14238
18756
24602
22945
9848
7580
9574
11134
12213
12932
13252
13374
13489
13648
13819
14005
14144
14437
14619
14834
15063
15375
15747
16232
16695
17085
17379
17537
17509
17395
17026
16447
15790
14784
13663
12606
11943
11440
11173
11027
11016
11074
11175
11278
11465
11548
11564
11566
11639
11738
11683
11697
11701
11718
11761
11856
11918
11883
11869
11854
12063
12487
12819
13054
12897
12701
12552
12571
12246
12172
12260
12191
11850
12438
15563
20573
25532
18349
7738
8859
10182
11536
12520
12866
13144
13258
13527
13649
13761
13913
14167
14383
14518
14802
15085
15453
15889
16378
16864
17185
17445
17616
17558
17278
16893
16203
15238
14194
13093
12255
11675
11369
11157
11063
11074
11263
11317
11265
11338
11502
11617
11670
11725
11749
11842
11907
11929
11909
11927
11930
11986
12010
11879
11782
12134
12656
12911
13067
13052
12970
12786
12608
12437
12306
12211
12297
12049
11951
14540
19397
25039
21167
8465
8117
9913
11455
12379
12903
13156
13362
13608
13704
13861
14069
14050
14172
14577
14766
15071
15395
15813
16237
16742
17131
17416
17602
17628
17351
17010
16456
15564
14632
13581
12723
11945
11461
11209
11104
11151
11311
11346
11391
11461
11591
11634
11732
11776
11729
11844
11889
11863
11825
11825
11865
12017
11971
11892
11880
12247
12797
13034
13071
13093
12937
12809
12746
12547
12349
12478
12453
12119
12078
14379
18918
24457
21950
9005
7631
9674
11416
12400
12959
13214
13313
13415
13638
13853
14056
14127
14320
14497
14735
15031
15358
15775
16167
16727
17118
17403
17498
17598
17432
17049
16464
15854
14842
13733
12788
12064
11578
11325
11191
11149
11264
11363
11460
11533
11671
11701
11778
11765
11833
11878
11917
11895
11902
11959
11895
11942
11938
11943
11912
12101
12546
12878
13158
13104
13005
12865
12667
12467
12387
12394
12511
12199
12063
14144
18629
24332
23074
10178
7607
9854
11402
12350
12867
13068
13298
13482
13624
13872
14038
14122
14310
14543
14830
15094
15453
15797
16168
16570
17065
17478
17664
17596
17322
17065
16643
15886
14886
13809
12792
11937
11463
11168
10996
11067
11128
11235
11424
11470
11550
11564
11641
11702
11846
11608
11763
11852
11737
11687
11757
11861
11772
11739
11816
12377
12620
12852
12990
12973
12842
12591
12293
12249
12249
12205
12104
11833
13246
17231
22600
25048
13566
7220
9215
10649
11784
12647
12994
13182
13301
13343
13592
13906
13934
14037
14309
14531
14840
15170
15479
15930
16498
16884
17293
17517
17441
17277
17099
16588
15841
14827
13733
12779
11973
11529
11076
10983
10808
10955
11247
11394
11376
11492
11557
11727
11705
11741
11804
11744
11874
11966
12001
11919
11869
11814
12081
12456
12844
13046
13014
12891
12638
12493
12332
12216
12208
12241
11955
11882
14343
19176
25150
21616
8821
8232
9812
11225
12226
12791
13124
13307
13390
13468
13679
13863
14033
14271
14474
14840
15123
15332
15787
16283
16625
17022
17322
17560
17487
17226
16886
16245
15454
14338
13205
12296
11746
11316
11065
11119
11134
11173
11235
11350
11421
11514
11618
11662
11688
11671
11763
11870
11795
11860
11915
11922
11842
11892
11983
12176
12628
12994
13033
12847
12725
12586
12501
12391
12307
12248
12151
11808
13016
17007
22771
24978
13579
7350
9348
10942
12101
12779
13107
13295
13516
13641
13827
13908
14006
14138
14412
14589
14941
15192
15580
15971
16436
16840
17172
17397
17372
17179
16946
16548
15811
14936
13906
12885
12151
11651
11436
11261
11082
11193
11370
11448
11564
11482
11739
11758
11770
11752
11783
11797
11845
11857
11938
11865
11920
11891
11876
11902
12169
12530
12819
13066
13039
13071
12853
12651
12491
12385
12344
12425
12146
11954
14035
18638
24347
22358
9391
7570
9822
11475
12366
12939
13052
13235
13457
13603
13877
14030
14232
14361
14588
14759
15107
15408
15813
16161
16609
17035
17397
17537
17489
17369
17026
16525
15718
14829
13785
12906
12265
11752
11326
11269
11293
11305
11326
11454
11565
11614
11665
11673
11768
11771
11874
11886
11878
11829
11926
11950
12001
11883
11867
12038
12011
11916
12061
12689
13032
13142
13085
13037
12972
12702
12428
12377
12408
12524
12287
12120
14139
18792
24573
23156
10056
7559
9651
11293
12383
13012
13148
13279
13539
13699
13840
14000
14270
14324
14505
14737
15075
15293
15716
16138
16647
16898
17272
17488
17296
17134
16893
16395
15742
14812
13766
12870
11951
11445
11211
11100
10987
11137
11201
11274
11414
11622
11656
11695
11687
11633
11788
11783
11733
11745
11801
11811
11831
11813
11955
11843
11974
12172
12503
12713
13005
12958
12968
12859
12690
12536
12310
12282
12442
12426
11950
12499
15832
21116
25707
17407
7662
8858
10136
11752
12610
12941
13109
13300
13487
13741
13850
14018
14133
14328
14580
14933
15275
15661
16083
16429
16870
17147
17558
17478
17290
17084
16782
16097
15216
14140
13067
12279
11671
11298
11117
11067
11112
11364
11401
11353
11485
11584
11576
11708
11750
11872
11853
11919
12001
11926
11909
11917
11926
11952
12115
12039
11944
12074
12466
12826
13124
13096
13009
13055
12978
12786
12555
12320
12435
12484
12099
11911
14588
19528
25294
21457
8662
8169
10058
11608
12467
12979
13202
13357
13560
13952
14089
13995
14063
14373
14569
14782
15068
15489
15859
16248
16702
17112
17392
17425
17340
17178
16906
16432
15719
14675
13618
12663
11951
11500
11343
11125
11192
11288
11370
11421
11466
11569
11614
11659
11665
11779
11776
11802
11791
11855
11880
11857
11880
11929
11845
11959
11892
11841
11928
12342
12809
13215
13215
13092
13003
12887
12764
12576
12462
12427
12514
12245
12262
14546
19226
24810
21425
8757
8083
10199
11717
12562
13085
13354
13523
13699
13774
13864
14073
14199
14376
14527
14752
15079
15399
15825
16182
16697
17063
17300
17496
17439
17271
16977
16472
15711
14749
13739
12770
11973
11491
11220
11155
11101
11268
11386
11464
11477
11641
11680
11721
11751
11926
11925
11957
12094
11973
11846
11906
11841
11825
11980
12058
12037
11995
12162
12546
12865
13115
13174
13012
13018
12897
12887
12607
12462
12444
12460
12094
12569
15696
20806
25508
18506
7617
8643
10560
11991
12737
13029
13383
13561
13689
13768
13862
14006
14222
14415
14605
14834
15196
15613
15968
16399
16891
17312
17394
17430
17425
17359
16924
16309
15449
14394
13294
12438
11726
11387
11169
11009
11015
11130
11193
11369
11519
11471
11545
11617
11761
11833
11936
11888
11863
11803
11867
11728
11804
11899
11971
11952
12139
12543
12853
13108
12874
12667
12770
12663
12510
12383
12333
12409
12103
11862
13648
17896
23472
23723
11163
7894
9665
10846
12023
12675
12960
13202
13461
13615
13790
13851
14027
14252
14456
14658
15074
15366
15550
15852
16466
17044
17373
17578
17548
17392
16983
16382
15562
14604
13657
12669
11907
11476
11165
11057
11007
11015
11130
11270
11282
11350
11526
11652
11678
11692
11743
11804
11748
11713
11630
11652
11982
11880
11941
12091
12442
12561
12881
13011
12936
12777
12653
12626
12402
12316
12299
12236
11975
11984
14389
19038
24880
21713
8748
8159
9767
11372
12521
13064
13123
13263
13526
13685
13857
13917
14017
14258
14489
14737
15049
15382
15833
16162
16605
17057
17464
17456
17374
17194
16904
16293
15512
14562
13480
12533
11777
11551
11352
11218
11068
11212
11460
11472
11369
11558
11878
11964
11878
11907
11831
11844
11780
11910
11884
11958
11955
11963
11912
12059
12477
12782
13084
13059
12932
12879
12874
12489
12336
12342
12381
12339
12064
12703
16029
21381
25134
16193
7012
8823
10735
12019
12785
13228
13340
13465
13555
13779
13904
14083
14245
14440
14630
14992
15272
15611
16035
16472
16847
17228
17440
17387
17221
16977
16624
16069
15231
14219
13150
12369
11794
11371
11229
11168
11183
11353
11457
11491
11598
11797
11797
11880
11755
