12791
12471
12226
12011
12238
12349
12049
12151
14743
19358
24743
20709
8157
8258
10023
11223
12314
12915
13116
13202
13364
13573
13851
13985
14049
14293
14471
14841
15214
15423
15709
16158
16542
16948
17317
17452
17341
17065
16718
16260
15302
14254
13255
12338
11836
11468
11219
11246
11183
11238
11404
11446
11471
11562
11714
11770
11649
11747
11841
11891
11818
11802
12007
12105
12024
11919
11789
11973
12668
12943
13098
13080
12857
12822
12664
12402
12256
12322
12286
12102
12211
14963
19616
25022
20674
8151
8661
10040
11341
12485
12998
13062
13158
13595
13772
13904
13860
13972
14425
14554
14785
15002
15244
15762
16163
16638
17212
17478
17587
17386
17103
16986
16343
15301
14461
13431
12346
11849
11501
11374
11213
11147
11142
11329
11355
11551
11670
11772
11779
11792
11798
11746
11880
11988
11926
11798
11859
12087
12011
11903
12057
12521
12891
12982
13128
13074
12787
12585
12461
12357
12357
12432
12237
11852
13629
17914
23584
24393
11524
7882
9901
10829
12029
12787
13090
13152
13302
13629
13761
13759
13966
14255
14465
14665
14921
15245
15612
16003
16550
16943
17215
17300
17324
17297
17101
16644
15747
14706
13712
12732
12005
11609
11472
11212
11148
11273
11342
11447
11462
11563
11598
11624
11726
11829
11893
11808
11856
11861
11920
11931
11910
12012
11809
11590
11757
12231
12736
13107
13032
12875
12811
12564
12473
12313
12301
12334
12123
11803
13544
17902
23440
24460
11479
7436
9728
10822
11959
12737
12983
13122
13261
13589
13701
13833
13979
14124
14327
14676
15032
15263
15559
15979
16464
16812
16927
17295
17318
17226
17075
16743
15867
14804
13683
12508
11765
11653
11101
11087
11361
11292
11284
11447
11465
11615
11759
11785
11746
11632
11856
12006
12100
12066
11930
11917
11990
11911
11824
11834
12129
12788
13099
13037
12959
12809
12739
12649
12340
12258
12280
12245
11893
12761
16458
21885
25602
15720
7090
9307
10352
11541
12472
13092
13217
13391
13521
13543
13787
13932
14059
14315
14615
14953
15301
15653
15933
16415
16776
17190
17394
17452
17364
17035
16542
15943
15023
13928
12795
12214
11752
11382
11056
11102
11285
11265
11250
11268
11417
11586
11669
11548
11743
11963
11871
11798
11891
11946
11894
11838
11770
11863
12054
12394
12651
12876
13060
13104
12922
12542
12349
12178
12219
12310
12128
11997
13822
18266
23598
23103
10413
7760
9945
10854
11907
12791
13223
13365
13528
13641
13799
13936
14020
14184
14487
14655
14979
15332
15820
16245
16651
16986
17190
17368
17358
17360
17041
16377
15484
14614
13589
12663
11861
11326
11347
11254
11165
11292
11397
11414
11387
11578
11733
11828
11873
11934
11959
11894
11830
11906
11994
12023
11993
11758
11690
12079
12666
12884
12791
12815
12789
12536
12553
12480
12254
12073
12020
11805
12561
16058
21153
25340
16715
7042
9096
10264
11475
12426
12854
13243
13525
13553
13611
13707
13767
13944
14404
14603
14816
15195
15484
15996
16502
16929
17314
17425
17531
17360
17037
16589
16135
15077
13894
12839
12145
11829
11415
11123
10958
11040
11214
11406
11465
11578
11686
11802
11860
11852
11901
11905
11925
11814
11769
11840
11917
11992
12008
11978
12225
12580
12882
13054
13082
12893
12739
12554
12435
12452
12372
12417
12017
12035
14716
19407
24936
21408
8206
8468
10120
11319
12185
12853
13141
13337
13464
13675
13831
13945
13951
14229
14422
14717
15045
15352
15806
16415
16796
16975
17415
17504
17563
17243
17000
16356
15485
14426
13335
12379
11851
11340
11122
11041
11099
10999
11215
11297
11264
11656
11700
11654
11389
11596
11916
11927
11747
11861
11801
11798
11869
11987
11947
11908
12181
12389
12861
13179
13134
12926
12892
12560
12310
11953
12216
12419
12284
11980
13529
17924
23807
24531
11362
7341
9577
10924
12035
12595
13000
13488
13563
13582
13644
13927
14156
14388
14375
14687
14890
15360
15926
16290
16670
17213
17411
17455
17686
17514
17307
16782
15902
14930
13949
12823
12144
11657
11378
11109
11105
11182
11318
11394
11490
11591
11513
11644
11678
11769
11763
11760
11788
11918
11865
11812
11796
11737
11815
11808
11835
11923
12185
12721
13024
13021
12940
12929
12683
12512
12349
12364
12376
12390
11948
12593
15929
21106
25713
18212
7171
8793
10053
11346
12332
12773
13021
13190
13554
13702
13669
13867
14178
14309
14497
14846
15212
15564
15957
16317
16676
17202
17604
17693
17578
17320
16931
16292
15204
14149
13143
12289
11665
11278
11077
11001
10992
11078
11094
11215
11382
11555
11569
11558
11574
11660
11753
11727
11763
11771
11797
11747
11852
11860
11756
11654
11864
12317
12715
12911
12832
12669
12566
12402
12221
12100
12056
12155
12057
11733
13242
17197
22268
24350
12974
6879
9235
10253
11498
12461
12824
13102
13441
13468
13538
13754
13922
14201
14384
14615
14703
15313
15750
16087
16468
16969
17399
17545
17472
17271
17088
16782
16023
14763
13902
13118
12073
11507
11626
11467
11233
11220
11230
11145
11402
11722
11573
11410
11836
12029
11942
11901
11850
11915
11953
11989
12033
12154
12063
11957
12026
12401
12790
13079
13051
12910
12775
12624
12471
12347
12352
12403
12366
12207
12781
15663
20074
24164
17081
7080
9126
10686
11622
12539
13183
13403
13567
13678
13820
13925
14067
14214
14247
14454
14767
15153
15494
15947
16371
16854
17224
17528
17604
17563
17387
17082
16374
15409
14364
13319
12511
11918
11591
11440
11390
11346
11476
11543
11653
11704
11829
11885
12004
12040
12180
12234
12198
12159
12106
12111
12114
12102
12114
12197
12132
12065
12273
12775
13176
13270
13153
13055
12823
12768
12608
12546
12506
12532
12350
12192
14068
18197
23424
23209
10589
7603
9844
10941
12056
12830
13175
13325
13561
13718
13839
14061
14201
14265
14734
15065
14911
15223
15772
16243
16689
17162
17443
17583
17616
17538
17232
16738
15847
14799
13611
12656
11965
11528
11277
11206
11200
11218
11293
11342
11437
11442
11552
11663
11770
11790
11833
11799
11796
11742
11774
11828
11897
11920
12010
11968
11895
11937
12360
12816
13094
13073
13030
12978
12772
12657
12465
12354
12366
12418
12037
12184
15057
19735
24949
20684
8027
8312
9843
11125
12257
12947
13223
13404
13533
13679
13883
13995
14182
14321
14598
14851
15166
15484
15894
16309
16826
17249
17507
17659
17682
17558
17187
16553
15579
14528
13399
12461
11779
11442
11194
11133
11106
11157
11176
11339
11445
11511
11572
11634
11687
11697
11755
11781
11831
11817
11902
11862
11878
11932
11978
11811
11875
12244
12758
12970
13007
12957
12990
12739
12655
12442
12331
12348
12375
12147
12172
14804
19314
24773
21676
8611
8151
9846
11047
12137
12775
13152
13335
13541
13695
13803
13943
14128
14344
14538
14803
15095
15467
15850
16345
16790
17240
17512
17697
17664
17528
17171
16576
15694
14636
13514
12550
11873
11387
11171
11086
11126
11110
11207
11243
11395
11532
11625
11618
11676
11771
11777
11775
11819
11865
11831
11858
11952
11887
11821
11996
12378
12703
12988
12996
12898
12864
12626
12517
12320
12301
12301
12265
11943
12538
15717
20473
24962
18228
7099
8482
9918
11083
12104
12703
12966
13142
13352
13533
13743
13878
14085
14246
14495
14731
15052
15370
15842
16310
16761
17206
17400
17465
17401
17224
16840
16181
15199
14233
13168
12330
11712
11416
11209
11189
11226
11337
11341
11394
11513
11547
11612
11645
11662
11740
11854
11841
11867
11804
11879
11767
11766
11944
12288
12556
12788
12826
12765
12680
12537
12330
12145
12088
12154
12179
11922
12375
15354
19855
24348
18343
7464
8752
10250
11328
12231
12900
13167
13429
13567
13733
13852
13982
14210
14377
14612
14886
15217
15514
15913
16292
16825
17138
17424
17534
17508
17223
16847
16140
15202
14081
13037
12203
11645
11335
11120
11114
11163
11260
11346
11506
11607
11737
11781
11862
11847
11908
11933
11972
11948
12061
12040
11937
11903
12087
12595
12820
12983
12873
12800
12631
12534
12313
12232
12268
12346
12106
11906
13796
18005
23339
23009
10523
7928
9843
10895
11918
12717
13070
13268
13440
13556
13761
13911
14111
14201
14435
14673
15026
15343
15721
16143
16607
17017
17331
17484
17505
17399
17084
16531
15583
14564
13434
12529
11901
11513
11218
11117
11096
11256
11340
11427
11541
11605
11698
11770
11821
11846
11867
11875
11913
11947
11917
11836
11832
12046
12469
12738
12972
12893
12842
12680
12571
12317
12174
12214
12308
12051
11812
13944
18238
23578
22133
9629
8142
9991
11053
12074
12769
13118
13292
13505
13580
13736
13831
14086
14279
14442
14660
14960
15267
15637
16060
16465
16882
17179
17339
17296
17154
16806
16263
15319
14276
13189
12330
11680
11327
11193
11105
11147
11151
11297
11414
11545
11542
11672
11709
11726
11732
11838
11875
11961
11842
11831
11820
12110
12436
12713
12938
12896
12833
12700
12496
12188
12072
12101
12155
11912
11764
14040
18511
24050
21800
9171
8426
10038
11226
12181
12858
13085
13293
13481
13622
13784
13926
14114
14259
14478
14682
15026
15295
15717
16124
16605
16977
17294
17383
17415
17251
16938
16358
15412
14365
13343
12485
11807
11509
11330
11275
11215
11332
11377
11489
11562
11644
11719
11810
11836
11834
11840
11841
11933
11888
11927
11860
12180
12530
12796
12948
12888
12766
12708
12536
12389
12197
12206
12238
11968
11980
14786
19409
24758
20000
8035
8797
10096
11272
12221
12833
13051
13196
13284
13449
13605
13861
14065
14196
14335
14598
14895
15343
15738
16151
16559
16940
17181
17236
17198
16976
16680
15967
15126
14086
13104
12257
11748
11413
11270
11183
11226
11268
11421
11539
11589
11671
11718
11823
11832
11861
11841
11870
11832
11907
11972
11956
11831
11826
12112
12585
12940
13072
12980
12923
12851
12686
12499
12294
12319
12311
12064
11952
14238
18610
24069
22146
9068
8133
9912
11080
12155
12775
13111
13332
13535
13692
13845
14010
14212
14383
14608
14917
15165
15423
15738
16158
16539
17000
17270
17445
17352
17207
16863
16356
15478
14491
13422
12537
11879
11444
11256
11192
11233
11256
11380
11463
11576
11631
11735
11764
11874
11888
11947
11924
11894
11916
11924
11995
11969
12000
11969
11914
11882
12321
12773
13143
13147
13080
12953
12798
12618
12462
12349
12364
12282
12005
12923
16587
21762
25376
15131
7211
9313
10362
11591
12488
12956
13168
13409
13573
13786
13884
14021
14189
14434
14661
14936
15231
15563
15946
16401
16783
17092
17311
17328
17176
16901
16551
15870
14950
13873
12945
12162
11648
11310
11179
11136
11154
11301
11363
11493
11521
11601
11663
11716
11676
11695
11708
11805
11789
11826
11812
11856
11881
11936
11844
11772
12041
12482
12841
12981
12908
12843
12802
12600
12487
12320
12282
12235
12040
12094
14580
18937
24085
21219
8449
8122
9952
11015
12159
12858
13177
13354
13545
13656
13814
13993
14161
14399
14550
14813
15121
15507
15818
16238
16647
17019
17240
17351
17245
17134
16804
16207
15416
14403
13393
12551
11936
11484
11296
11207
11313
11391
11495
11537
11699
11706
11764
11802
11847
11870
11960
11964
11853
11880
11868
11875
11935
12035
11975
11969
12252
12751
12996
13091
13022
12991
12836
12641
12492
12337
12375
12466
12206
12321
14893
19268
24371
20238
7888
8312
9934
11105
12214
12903
13189
13338
13528
13663
13834
13974
14156
14383
14643
14906
15182
15539
15868
16280
16675
17074
17251
17283
17190
17101
16717
16110
15239
14347
13271
12474
11827
11468
11288
11196
11222
11260
11412
11497
11588
11651
11735
11736
11826
11829
11891
11829
11893
11852
11900
11891
11976
12074
11992
11879
11966
12437
12843
13095
13058
13051
12909
12740
12519
12335
12238
12312
12203
11967
13331
17231
22496
24370
12363
7443
9534
10665
11841
12729
13118
13297
13469
13588
13810
13969
14153
14261
14518
14709
15043
15367
15726
16080
16521
16928
17234
17391
17408
17268
16960
16529
15737
14737
13650
12741
12040
11622
11293
11189
11140
11282
11307
11421
11474
11565
11655
11715
11777
11825
11932
11930
11963
11877
11896
11881
11950
11947
12082
11982
11909
11901
12346
12811
13119
13129
13048
12983
12800
12519
12350
12302
12370
12322
12081
13203
16838
22019
25189
14348
7257
9396
10501
11772
12602
13021
13216
13436
13571
13747
13894
14089
14242
14440
14746
14990
15302
15586
16023
16434
16891
17166
17411
17374
17265
17026
16648
15935
14991
13921
13004
12189
11621
11372
11214
11246
11243
11377
11394
11469
11500
11623
11621
11673
11691
11748
11751
11770
11775
11838
11847
11847
11845
11922
12038
11964
11868
12103
12651
12953
13096
13025
12955
12750
12599
12353
12319
12393
12409
12171
12545
15489
20235
25291
18834
7405
8814
10248
11512
12479
12939
13188
13343
13559
13665
13827
14000
14210
14384
14660
14873
15219
15581
15935
16368
16773
17167
17408
17481
17341
17175
16784
16212
15287
14283
13299
12462
11851
11505
11296
11192
11192
11340
11473
11511
11607
11632
11648
11720
11807
11804
11859
11866
11904
11861
11878
11930
12009
12042
12105
12022
11902
12072
12545
13033
13263
13202
13110
12929
12695
12565
12392
12454
12435
12287
12177
14033
18160
23775
23453
10198
7849
9791
11010
12101
12805
13114
13246
13409
13621
13755
13944
14097
14329
14478
14820
15047
15450
15811
16229
16605
17029
17273
17393
17381
17190
16923
16384
15608
14559
13567
12626
11912
11462
11250
11098
11120
11152
11297
11378
11496
11559
11646
11722
11737
11784
11782
11836
11841
11893
11858
11929
11916
12038
11973
11936
11818
12161
12536
13108
12944
12895
12823
12763
12632
12466
12329
12337
12345
12120
12157
14434
18729
23907
21786
8787
8036
9890
11048
12140
12884
13130
13338
13451
13680
13803
13911
14067
14234
14464
14712
15011
15351
15775
16219
16640
16981
17251
17273
17237
17061
16797
16262
15453
14415
13414
12549
11902
11472
11217
11140
11116
11203
11288
11404
11464
11616
11695
11754
11820
11903
11967
12033
12004
12007
11981
11997
12053
11945
11919
11898
12184
12485
12943
13013
12933
12845
12728
12552
12408
12277
12318
12331
12058
12170
14909
19450
24722
20178
8005
8681
10050
11322
12371
12939
13195
13397
13549
13763
13906
14120
14223
14427
14580
14842
15186
15536
15877
16298
16709
17030
17249
17325
17306
17090
16733
16003
15158
14115
13173
12290
11727
11380
11209
11133
11212
11293
11409
11536
11588
11649
11658
11727
11765
11826
11830
11855
11871
11939
11905
11932
11878
11887
11987
11996
11894
12127
12580
13004
13170
13137
13086
12985
12768
12566
12455
12422
12502
12353
12115
13517
17395
22795
24729
12443
7645
9633
10868
12012
12811
13104
13322
13528
13610
13754
13932
14102
14261
14555
14740
15023
15331
15687
16053
16535
16886
17222
17363
17367
17210
16953
16447
15700
14767
13739
12791
11983
11547
11286
11198
11101
11231
11268
11418
11485
11582
11588
11671
11710
11746
11787
11826
11856
11864
11855
11843
11842
11813
11946
12012
12110
12001
11896
11928
12439
12861
13161
13166
13171
13033
12826
12575
12415
12378
12420
12392
12143
12668
15763
20604
25382
17947
7277
8987
10258
11653
12601
13058
13219
13441
13632
13834
13941
14098
14263
14467
14704
14940
15338
15686
16089
16455
16888
17268
17502
17505
17391
17148
16808
16126
15287
14239
13239
12397
11832
11482
11264
11208
11211
11293
11366
11465
11491
11641
11706
11771
11828
11869
11855
11917
11894
11898
11954
11963
11937
11984
11983
12003
12060
12133
12102
12019
12154
12594
13008
13186
13203
13146
13139
12957
12759
12516
12433
12448
12445
12191
12824
16077
20952
25473
17176
7224
9152
10438
11674
12652
13091
13281
13445
13659
13835
14033
14126
14313
14509
14716
14977
15292
15663
16063
16525
16925
17310
17482
17523
17409
17247
16846
16259
15344
14333
13255
12369
11789
11429
11255
11159
11221
11249
11383
11431
11548
11592
11679
11709
11806
11850
11869
11850
11949
11908
11971
11934
11914
11920
12027
12049
12029
11949
12035
12473
12895
13185
13153
13115
12972
12784
12641
12534
12395
12457
12415
12203
12945
16310
21207
25296
16697
7146
9168
10343
11643
12587
13086
13292
13505
13665
13823
13923
14142
14301
14510
14679
14927
15200
15558
15962
16416
16850
17166
17339
17378
17296
17074
16740
16037
15070
13982
13039
12204
11694
11292
11211
11098
11043
11102
11275
11403
11472
11592
11757
11796
11852
11860
11826
11839
11847
11920
11921
11918
11892
11986
12089
12076
11908
12113
12540
12966
13193
13179
13081
13038
12867
12734
12532
12469
12559
12448
12163
12991
16458
21362
25585
16578
7461
9340
10423
11680
12636
13135
13381
13519
13628
13813
13973
14206
14336
14556
14780
15073
15383
15754
16084
16534
16916
17254
17488
17579
17457
17199
16789
16061
15090
13975
12996
12165
11637
11273
11127
11086
11150
11199
11305
11421
11523
11591
11689
11705
11784
11789
11838
11868
11911
11893
11943
11946
11881
11921
11939
11888
11713
11944
12415
12855
13024
13059
12976
12848
12655
12498
12333
12313
12314
12221
11939
13041
16781
22043
25208
14022
7331
9419
10622
11779
12593
12946
13197
13359
13554
13674
13894
14067
14257
14463
14702
14977
15245
15565
15954
16449
16857
17240
17442
17531
17388
17178
16640
15861
14871
13811
12814
12040
11548
11277
11168
11098
11158
11287
11333
11379
11509
11565
11643
11654
11768
11774
11870
11850
11833
11800
11857
11883
11908
11936
12016
11987
11906
12058
12495
12934
13144
13086
12992
12999
12787
12649
12452
12393
12399
12382
12128
12842
16119
21157
25585
17210
7216
9021
10325
11637
12543
12963
13268
13425
13625
13770
14017
14091
14172
14340
14630
14868
15167
15512
15868
16295
16756
17135
17332
17398
17325
17218
16802
16215
15226
14208
13096
12217
11617
11289
11082
11067
11128
11177
11241
11371
11513
11605
11582
11707
11781
11736
11744
11775
11775
11847
11982
11938
11970
12027
12083
11981
11933
11825
12178
12615
13002
13087
13026
12950
12741
12570
12366
12262
12306
12399
12313
12186
13738
17695
23037
23887
11758
7760
9998
11141
12186
12835
13080
13240
13445
13541
13731
13886
14076
14214
14475
14682
14974
15298
15672
16020
16532
16983
17274
17445
17418
17325
17090
16674
15874
14892
13806
12524
11886
11530
11288
11192
11185
11252
11286
11389
11498
11572
11542
11677
11721
11792
11830
11798
11793
11813
11883
11892
11882
11934
11967
11962
11931
12158
12522
12820
13011
12897
12838
12710
12538
12372
12236
12256
12334
12364
12217
13256
16658
21465
24473
15248
7388
9712
10909
11956
12666
13075
13205
13354
13510
13692
13872
14014
14192
14372
14636
14908
15263
15754
16160
16514
16930
17241
17537
17558
17391
17093
16647
15818
14821
13420
12539
11850
11469
11279
11169
11080
11087
11063
11155
11370
11431
11576
11685
11802
11799
11858
11914
11956
11943
11957
11834
11977
11959
11934
11932
12178
12450
12737
13009
13016
12954
12776
12636
12509
12375
12420
12513
12418
12290
12925
15813
20289
24612
18234
7770
9148
10667
11648
12513
13048
13295
13474
13567
13752
13870
14065
14204
14414
14593
14897
15141
15503
15923
16325
16771
17280
17523
17546
17501
17233
16793
16098
14792
13737
12779
12070
11632
11376
11289
11183
11249
11244
11352
11472
11593
11632
11697
11766
11843
11900
11959
11976
11965
12000
12015
12020
11990
12114
12020
11910
11968
12428
12829
13067
13018
12982
12920
12806
12642
12462
12419
12409
12457
12210
12449
15097
19676
24764
20706
8630
8900
10528
11529
12355
12977
13287
13387
13508
13659
13853
13977
14132
14307
14589
14831
15140
15502
15897
16279
16780
17199
17483
17663
17630
17463
17108
16135
15054
13920
12898
12157
11610
11305
11169
11108
11111
11276
11325
11418
11515
11600
11631
11692
11630
11694
11732
11806
11846
11848
11872
11872
11919
12017
11928
11809
11856
12153
12624
12890
13082
13006
12930
12724
12601
12396
12316
12389
12354
12217
12064
13011
16552
21670
25327
16735
7560
9417
10565
11602
12468
12932
13127
13311
13475
13610
13777
13966
14184
14345
14588
14868
15227
15514
15897
16323
16806
17193
17501
17604
17487
17177
16677
15796
14798
13718
12763
11946
11533
11274
11167
11102
11148
11171
11271
11417
11476
11579
11603
11736
11796
11838
11816
11910
11854
11891
11840
11858
11895
12020
11969
11907
11932
12190
12582
12851
13011
12896
12891
12715
12616
12439
12375
12406
12471
12350
12124
13354
17208
22313
25055
15073
7457
9513
10589
11624
12439
12940
13160
13355
13454
13656
13789
13945
14070
14321
14575
14855
15173
15608
16035
16490
16975
17370
17639
17673
17557
17242
16666
15743
14745
13655
12647
11901
11588
11376
11217
11117
11195
11228
11346
11438
11500
11558
11612
11713
11776
11855
11851
11840
11818
11858
11857
11957
11984
12074
11997
11934
11894
12132
12471
12776
12949
12903
12795
12607
12488
12309
12173
12050
12057
11998
11774
12679
16331
21239
24869
16540
7573
9453
10673
11490
12374
12965
13186
13369
13521
13671
13835
14087
14274
14504
14619
14922
15188
15555
15926
16577
16959
17373
17494
17508
17396
17126
16517
15657
14619
13562
12682
11973
11551
11282
11163
11127
11196
11249
11376
11408
11525
11561
11637
11722
11836
11860
11925
11899
11890
11852
11867
11949
11860
11867
11868
12088
12430
12723
12877
12863
12771
12645
12473
12387
12294
12321
12342
12296
12038
13066
16531
20969
23820
15633
7520
9465
10863
11589
12375
12931
13264
13365
13519
13706
13885
14082
14223
14362
14524
14806
15096
15415
15981
16417
16872
17233
17367
17366
17210
16930
16274
15373
14365
13432
12589
11976
11590
11378
11297
11311
11304
11385
11449
11572
11628
11701
11767
11839
11936
12021
12085
12043
12067
12072
12134
12064
12013
11984
12088
12309
12629
12893
13005
12977
12882
12737
12597
12427
12313
12345
12373
12268
12016
13842
17662
22465
22983
12163
7941
10231
11110
11875
12656
13050
13296
13422
13591
13678
13792
13903
14154
14374
14624
14901
15255
15583
16209
16640
17025
17267
17418
17378
17181
16732
16054
15163
14119
13048
12265
11811
11487
11436
11397
11385
11372
11505
11582
11636
11671
11779
11906
11952
12013
12027
12029
12041
12098
12075
12047
12066
12184
12082
11973
12042
12403
12764
13020
13053
12977
12874
12765
12703
12611
12676
12820
12979
12742
12447
14034
17798
22625
23236
12314
8043
10216
11151
11962
12711
13172
13430
13641
13821
13980
14158
14336
14456
14613
14803
14967
15315
15705
16130
16609
16992
17265
17392
17481
17321
16950
16218
15286
14237
13248
12427
11817
11393
11242
11178
11101
11097
11122
11266
11371
11466
11503
11576
11615
11691
11717
11740
11684
11732
11755
11774
11859
11872
11885
11856
11815
11962
12358
12662
12836
12810
12771
12741
12605
12501
12340
12261
12266
12250
11989
11915
14343
18824
24129
21827
9929
8548
10364
11160
12210
13071
13306
13423
13622
13755
13882
14038
14102
14228
16193
16512
16985
17393
17658
17655
17558
17483
17340
16516
15506
14464
13403
12385
11760
11405
11261
11185
10971
10882
10906
11195
11695
11888
11858
11802
11677
11676
11734
11781
11772
11854
11908
11880
11854
11916
11932
12045
12013
11854
11783
12157
12779
13080
13047
12873
12914
12827
12625
12431
12348
12372
12438
12149
11942
13697
17704
23060
23749
11898
7709
10140
11063
11948
12731
13062
13325
13404
13562
13743
13918
14137
14281
14554
14978
15221
15484
15894
16354
16853
17306
17631
17660
17639
17472
17153
16509
15553
14455
13293
12614
12052
11616
11366
11234
11219
11257
11442
11526
11595
11736
11700
11731
11808
11888
11867
11863
12061
12068
12040
12056
12083
12129
12132
12199
12231
12411
12397
12231
12507
12975
13145
13123
13058
13340
13347
13075
12765
12514
12463
12365
12414
12281
12568
15919
21033
25480
17998
7653
9006
10190
11515
12609
13135
13392
13573
13690
13706
13958
14273
14394
14491
14623
15042
15370
15648
16148
16536
16982
17420
17648
17720
17699
17269
16681
16235
15121
14174
13001
12251
11836
11587
11443
11376
11305
11317
11425
11418
11374
11767
11721
11755
12033
12020
11840
11819
11612
11508
11961
12019
11932
12133
12081
11976
12012
11938
11894
12170
12173
12054
12354
12665
13067
13326
13175
13056
13081
12892
12765
12601
12554
12539
12593
12310
12325
15277
20098
25146
19855
8025
9594
10562
11873
12708
13098
13225
13615
13629
13922
14010
14191
14356
14584
14764
14997
15313
15686
16077
16309
16946
17484
18041
17961
17807
17460
17154
16353
15565
14329
13356
12394
11688
11364
11216
11088
11197
11330
11424
11548
11532
11660
11508
11503
11662
11890
11840
11814
11696
11916
11910
11850
11806
11854
11973
11880
12026
12092
12101
11811
11882
12287
12889
12998
12996
12962
13211
12847
12736
12586
12555
12469
12464
12285
11898
14492
18949
24783
22520
9624
8256
9927
10767
12001
12730
13309
13395
13439
13572
13891
14034
14338
14351
14664
14895
15116
15393
15863
16215
16633
17058
17492
17797
17591
17822
17350
16768
15792
14831
13592
12853
12025
11420
11210
11350
11177
11228
11198
11353
11599
11595
11628
11707
11868
11740
11775
11638
11609
11624
11784
11744
11865
11998
12064
12031
11963
11842
11745
12315
12657
12884
12828
12958
13062
13084
12876
12748
12483
12485
12267
12064
12238
15009
19516
24599
20592
8477
8419
10146
11057
12141
12775
13248
13390
13595
13795
13709
13929
14185
14584
14581
14855
15160
15613
16013
16408
16841
17316
17565
17742
17592
17321
17096
16476
15606
14475
13585
12492
11858
11473
11373
11029
11138
11211
11270
11417
11464
11606
11609
11735
11514
11563
11660
11743
11710
12046
11949
11978
11733
11667
11846
11960
11730
11680
12309
12882
13088
13059
12956
12936
12898
12718
12248
12084
12527
12602
12354
12272
14882
19216
24734
21156
8640
8195
9774
11068
12184
12823
13308
13388
13679
13776
13835
13998
14177
14300
14465
14820
15124
15526
15817
16229
16630
17209
17396
17742
17675
17445
17012
16531
15625
14415
13370
12479
11762
11182
11215
11167
11164
11114
11399
11332
11501
11458
11622
11460
11656
11820
11772
11653
11666
11706
11820
11871
11847
11814
11832
12158
12066
11962
11865
12418
12857
13293
13159
13107
12922
12817
12632
12423
12274
12334
12381
12164
12650
15773
20734
25511
17941
7484
9083
10271
11491
12355
13135
13267
13458
13542
13766
13914
14135
14420
14477
14573
14882
15247
15584
16040
16436
16923
17283
17677
17567
17618
17271
17091
16389
15307
14179
13217
12312
11724
11300
11072
11297
11230
11342
11341
11556
11522
11680
11617
11628
11641
11903
11876
11895
11821
11778
11782
11886
11884
11840
11819
11864
12116
12105
11934
12074
12815
13101
13311
13133
12981
12805
12819
12539
12412
12236
12557
12367
12130
13544
17292
22539
24865
13236
7516
9514
10644
11898
12573
13122
13303
13588
13755
13892
13986
14137
14312
14710
14846
14978
15367
15734
16154
16547
17002
17321
17574
17679
17658
17419
16852
15887
14915
14030
13041
11834
11513
11632
11537
11427
11313
11275
11308
11490
11471
11620
11727
11768
11582
11821
11863
11937
11844
11987
11831
11756
11668
12017
12130
12036
12001
11987
11832
12140
12531
12975
13082
12962
13091
13036
12720
12477
12285
12423
12530
12380
12151
13242
16844
22152
25173
14470
7341
9555
10867
12032
12713
13049
13162
13424
13757
13858
14077
14173
14131
14557
14568
15072
15437
15692
15989
16483
17086
17525
17516
17702
17581
17219
16863
16064
15020
13957
12969
12104
11442
11096
11105
11087
11215
11248
11160
11088
11332
11417
11509
11619
11593
11603
11758
11666
11659
11842
11872
11722
11777
11955
12055
11614
11521
12156
12691
12988
13173
12920
12869
12788
12603
12428
12284
12341
12423
12250
12109
14009
18099
23433
23609
11206
7842
10130
10882
11940
12805
13023
13183
13351
13743
13884
13981
14104
14336
14559
14770
15048
15252
15793
16226
16744
17117
17411
17562
17541
17355
17040
16480
15743
14800
13742
12753
12098
11587
11358
11223
11059
11156
11305
11467
11547
11499
11621
11813
11781
11669
11786
11856
11850
11788
11769
11767
12036
11974
11846
11906
12176
12565
12927
12952
12800
12909
12799
12589
12469
12305
12384
12308
12173
12220
13595
17240
22313
24617
13717
7358
9629
10647
11846
12632
13054
13203
13493
13741
13816
13993
14160
14266
14581
14728
14986
15291
15732
16070
16355
16957
17358
17607
17593
17452
17083
16552
15776
14726
13525
12857
12195
11464
11222
11211
11113
11122
11187
11200
11301
11446
11743
11864
11800
11761
11701
11840
11825
11921
11724
11726
11832
11896
11830
11752
12196
12643
12839
12993
12870
12765
12736
12565
12287
12319
12483
12405
12276
12130
13753
17724
23209
23993
11608
7605
9903
10874
12016
12794
13164
13318
13383
13616
13836
13898
14179
14322
14324
14435
14835
15288
15654
16047
16575
17140
17393
17485
17408
17251
16959
16307
15502
14477
13504
12653
12053
11508
11182
11041
10959
11057
11179
11393
11635
11526
11628
11781
11882
11856
11748
11776
11764
11725
11896
11846
11799
12003
12049
11881
12094
12569
12933
13137
13061
12821
12676
12523
12539
12448
12291
12284
12369
12287
12662
15394
20030
25351
19791
7776
8742
10110
11395
12384
13034
13243
13417
13585
13784
13892
14039
14268
14386
14560
14926
15219
15330
15877
16466
16807
17139
17475
17613
17521
17262
16987
16314
15210
14198
13229
12419
11795
11349
11243
11199
11122
11311
11494
11501
11574
11751
11692
11562
11699
11938
11764
11867
11869
11836
11899
11859
12026
12074
12050
12039
11908
12041
12532
12852
13068
13185
13091
12914
12823
12624
12461
12398
12465
12394
12230
12463
15097
19550
25064
21369
8397
8387
10223
11501
12359
12824
13156
13427
13534
13534
13676
14001
14086
14358
14574
14880
15176
15476
15825
16202
16616
17046
17317
17619
17565
17408
17038
16282
15553
14499
13402
12618
11978
11514
11295
11285
11283
11047
11289
11493
11443
11770
11917
11854
11878
11814
11819
11880
11865
11873
11830
11929
11938
11976
12049
11885
11877
12362
12958
13216
13237
13165
13174
12919
12581
12531
12488
12481
12485
12247
12226
14372
18810
24319
23562
10389
7944
9940
11037
12284
13053
13283
13402
13570
13682
13769
13920
14123
14372
14553
14751
15004
15468
15877
16268
16730
17181
17352
17558
17490
17282
17083
16455
15563
14788
13618
12554
11799
11268
11057
10970
11060
11006
11114
11283
11278
11371
11653
11610
11644
11626
11720
11649
11785
11783
11764
11753
11800
11788
11811
11813
11714
12066
12572
12877
13038
12923
12782
12716
12402
12371
12259
12444
12305
12104
12228
13904
17894
22877
23719
11659
7404
9820
10798
11898
12708
12961
13345
13594
13554
13596
13803
14168
14382
14583
14858
15144
15453
15914
16327
16603
16944
17358
17604
17605
17347
17165
16507
15578
14592
13591
12516
11894
11560
11246
11077
11204
11137
11232
11461
11529
11539
11660
11708
11750
11740
11936
12079
12013
12092
12014
11962
11917
11886
11655
11673
12137
12607
12826
13009
12871
12691
12696
12435
12371
12496
12493
12506
12366
12068
13392
17149
22496
24765
13690
7194
9647
10557
11605
12590
13024
13194
13371
13577
13637
13958
14061
14354
14436
14686
15049
15375
15763
16216
16771
17131
17286
17604
17701
17559
17082
16661
15845
14729
13750
12626
11968
11537
11316
11169
11150
11202
11199
11064
11414
11563
11616
11639
11693
11748
11929
11924
11859
11846
11959
11846
11960
12267
12020
11847
11909
12543
13236
13038
12772
12754
12775
12660
12529
12483
12584
12509
12161
12236
12299
14424
18753
24527
23101
10379
8319
9682
10837
11789
12810
13130
13367
13504
13619
13620
13906
14104
14446
14585
14602
15212
15626
15794
16291
16921
17233
17525
17583
17665
17447
17105
16526
15667
14527
13401
12446
11800
11418
11185
10852
10844
11054
11160
11407
11646
11650
11635
11693
11643
11573
11644
11719
11707
11703
11900
12029
11789
11994
12081
11958
11815
11936
12459
13005
13241
12907
12982
12955
12671
12302
12336
12341
12327
12289
12044
12622
16238
21313
25758
17410
7253
8926
10241
11647
12481
12969
13231
13407
13515
13666
13749
14041
14196
14437
14601
14969
15259
15775
16194
16660
17062
17386
17667
17793
17684
17335
17095
16470
15343
14229
13331
12347
11724
11384
11268
11060
11148
11302
11412
11531
11591
11598
11777
11743
11840
11829
11790
11730
11776
11984
12010
11800
11985
12181
12096
12019
11969
12250
12598
13010
13169
13204
13186
12962
12626
12541
12500
12387
12544
12569
12185
12723
16305
21239
25620
17127
7150
8827
10279
11669
12581
12974
13305
13488
13664
13576
13631
13847
14167
14413
14879
15187
15258
15568
16020
16495
17241
17829
17781
17905
17416
17369
16972
16663
16063
14414
12829
12088
11610
10966
10757
11248
12278
11365
11612
11539
10997
10792
11493
11815
12477
13066
12359
11226
10783
11045
11175
11560
12329
12538
12140
12468
12212
12286
12942
12364
12649
12854
13133
13329
12169
11959
11880
11991
11811
12160
13274
15157
20335
24734
16944
6573
8371
9881
11281
12312
12853
13121
13337
13279
13348
13824
13989
13945
14121
14463
14962
15167
15546
15990
16424
16896
17345
17651
17700
17697
17577
17083
16203
15104
14020
12979
12080
11398
11107
10996
11041
11176
11157
11167
11190
11373
11415
11475
11731
11736
11815
11771
11883
11803
11916
11872
11746
11858
12087
11954
11851
12019
12523
12761
13053
13066
12875
12826
12581
12611
12466
12590
12454
12421
11910
12501
15834
20701
25432
18396
7631
8956
10269
11781
12723
12976
13222
13367
13537
13838
13986
13918
14141
14502
14807
14924
15282
15473
15837
16428
16949
17298
17749
17893
17670
17551
17295
16494
15293
14174
12772
11855
11349
11264
11428
11077
11053
11032
11054
11536
11577
11587
11685
11855
11538
11565
11866
11651
11649
11865
12018
12185
12164
11813
11904
11948
11928
11838
12311
12937
13339
13108
13294
13409
12732
12251
12223
12304
12419
12603
12342
12645
15747
20942
25597
18129
7408
8615
10130
11816
12840
13477
13462
13337
13266
13643
13659
13919
14302
14654
14957
15083
15113
15598
16034
16330
17016
17335
17694
17564
17744
17524
17008
16452
14979
13801
12860
11905
11399
11221
11060
10933
11088
11249
11369
11460
11629
11740
11766
11736
11758
11894
11867
11845
11832
11880
11770
11853
11902
11862
11981
12039
11963
11897
12123
12718
13188
13110
12970
13006
13035
12864
12662
12417
12377
12409
12319
12200
13716
17656
23394
24457
11749
7124
9367
11048
12149
12804
13148
13378
13405
13733
13785
13974
14119
14369
14539
14802
15187
15473
15905
16079
16605
17062
17506
17698
17855
17409
17399
16731
15786
14529
13519
12641
11856
11207
11216
11082
11154
11133
11562
11428
11139
11324
11460
11526
11499
11516
11439
11766
11785
11671
11672
11906
11643
11570
11659
11791
11809
11796
12086
12981
13063
12678
12768
12886
12604
12526
12395
12411
12183
11950
11796
12402
15569
20073
24783
18906
7600
8767
10210
11365
12444
13035
13158
13169
13295
13454
13705
14080
14287
14498
14644
14906
15204
15575
15918
16398
16826
17123
17545
17668
17501
17270
16753
15968
14975
13833
12857
12105
11553
11243
11089
10998
11045
11192
11349
11410
11475
11615
11677
11727
11841
11808
11803
11681
11668
11761
11834
11969
12082
11938
11886
12135
12386
12708
13082
13149
13039
12910
12757
12523
12320
12344
12357
12176
12108
12932
16324
20920
24470
15847
6930
9158
10536
11613
12440
13012
13362
13510
13656
13868
14002
14155
14442
14852
15015
15279
15455
15644
16054
16463
16982
17252
17663
17789
17458
17091
16555
15648
14467
13444
12568
11972
11535
11195
11046
11060
11071
11220
11220
11193
11396
11662
11661
11774
11815
11810
11821
11738
11646
11701
11731
11816
11924
11732
11836
12244
12590
12846
12959
12969
12763
12688
12702
12564
12266
12239
12360
12426
12282
13457
16886
21795
24498
14283
6959
9283
10599
11744
12523
13088
13279
13387
13660
13860
14089
14117
14188
14423
14721
14999
15320
15701
16231
16606
16977
17463
17538
17651
17551
17130
16451
15584
14506
13530
12647
11942
11496
11238
11034
11033
11187
11372
11460
11471
11493
11615
11789
11842
11777
11816
11980
11915
11739
11862
12034
11982
12025
12071
12058
11938
12183
12531
13076
13103
12958
12939
12901
12779
12548
12323
12316
12423
12268
12331
14587
18808
24208
22431
9250
8038
9929
11125
12186
12927
13272
13500
13459
13726
13860
13952
14012
14175
14380
14688
15218
15601
15840
16175
16751
17355
17582
17520
17381
17214
16887
16171
15149
14098
13014
12180
11736
11409
11150
11051
11148
11337
11319
11373
11534
11610
11580
11720
11814
11835
11736
11641
11720
11776
11778
11758
11863
11898
11899
11818
11765
12293
12705
12973
13064
12963
12929
12632
12583
12437
12373
12265
12252
12214
12348
14564
18949
24780
22612
9074
8171
9891
11064
12012
12801
13101
13295
13475
13597
13648
13835
13988
14224
14469
14711
14975
15365
15749
16381
16950
17307
17417
17555
17448
17282
16857
15973
15248
14172
13101
12345
11669
11355
11228
11189
11138
11122
11264
11434
11524
11557
11667
11721
11789
11885
11965
11966
11847
11745
11774
11863
11871
12073
12166
11911
11824
12097
12661
12994
13131
13067
13081
12945
12810
12605
12396
12402
12473
12425
11978
12707
15982
20887
25630
18212
7178
8845
10272
11558
12463
13022
13187
13335
13612
13701
13804
13958
14283
14462
14599
14837
15178
15760
16194
16610
17062
17482
17698
17592
17652
17308
16760
15937
14935
13824
12832
12000
11514
11216
11018
11132
11269
11385
11379
11506
11583
11664
11755
11734
11701
11843
11802
11926
11980
11936
11940
11838
11820
11944
12059
12053
11790
11913
12386
12731
13191
13118
12952
12767
12728
12681
12465
12295
12248
12343
12187
12612
15901
21048
25721
18914
7368
8770
10095
11319
12289
12957
13344
13543
13602
13757
13884
14099
14276
14390
14776
15138
15376
15690
16081
16503
17153
17449
17542
17500
17435
17280
16893
15969
14911
13799
12730
11969
11521
11182
11026
10940
10973
11115
11299
11376
11436
11496
11669
11719
11723
11732
11709
11873
11928
11875
11737
11849
11845
11960
11851
11741
11825
12237
12725
13001
12955
12831
12852
12702
12596
12355
12218
12250
12397
12235
12574
15477
19947
24885
19866
7629
8443
10192
11275
12339
13055
13272
13369
13461
13595
13958
14103
14200
14535
14744
14946
15071
15583
16188
16483
16850
17198
17547
17538
17433
17156
16632
15797
14711
13487
12673
11995
11481
11117
11016
11253
11303
11318
11302
11320
11437
11638
11685
11754
11771
11760
11822
11819
11866
11904
11819
11792
12023
12077
11914
11903
12307
12784
13154
13186
13028
12944
12770
12565
12393
12231
12279
12358
12152
12104
14535
19090
24583
22264
9249
8230
9861
11034
12270
13053
13325
13310
13508
13756
13940
14040
14291
14573
14665
14873
15172
15555
16046
16575
17003
17270
17624
17595
17460
17324
16887
15989
14998
13917
12966
12135
11476
11147
11162
11092
10937
10997
11210
11176
11251
11447
11715
11788
11652
11635
11774
11854
11900
11785
11853
11876
11941
11851
11700
11778
12118
12486
12813
12847
12849
13030
12933
12613
12378
12390
12367
12298
12219
12019
12760
16123
21199
25720
17618
7322
9073
10360
11686
12532
12930
13214
13406
13608
13694
13795
14134
14254
14504
14718
14974
15369
15549
16054
16730
17149
17371
17517
17562
17389
17011
16331
15627
14867
13730
12626
11954
11551
11275
11117
11159
11136
11214
11320
11310
11441
11674
11723
11756
11704
11672
11878
11898
11917
11841
11799
11949
12107
12030
11930
12018
12022
12019
12352
12686
13148
13297
13150
13153
13014
12753
12522
12451
12401
12435
12301
12163
13984
18154
23589
24489
11436
7479
9660
10846
12058
12801
13107
13327
13494
13695
13866
14009
14092
14330
14550
14709
15036
15565
15935
16405
16802
17129
17519
17708
17584
17353
16958
16337
15429
14429
13417
12496
11764
11382
11261
11212
11136
11096
11295
11419
11353
11682
11730
11739
11625
11744
11879
11858
11784
11727
11645
11720
11796
11673
11753
11934
12011
12030
11932
12084
12645
12983
13188
13182
13094
13000
12961
12811
12476
12376
12568
12521
12203
12982
16559
21689
25682
16476
7049
9127
10346
11636
12916
13295
13449
13579
13666
13994
14040
14142
14348
14694
14822
15018
15365
15810
16333
16743
17208
17480
17585
17733
17498
17102
16552
15789
14878
13874
12831
12037
11406
11165
11202
11145
11026
11285
11365
11472
11410
11610
11701
11789
11700
11757
11681
11767
11750
11813
11718
11805
11934
11888
11882
11801
11798
12037
12589
12838
13174
12995
13035
12917
12722
12379
12385
12408
12522
12435
12116
12964
16537
21601
25421
16452
6973
9668
10671
11929
12520
13059
13271
13611
13683
13840
13928
14234
14353
14595
14684
15028
15335
15797
16157
16655
17239
17671
17755
17738
17551
17149
16645
15646
14655
13514
12586
11738
11493
11371
11170
11061
11104
11019
11233
11395
11371
11539
11695
11754
11781
11818
11546
11725
11838
11831
11906
11950
11807
11916
11852
11809
11798
12183
12834
12990
12926
12877
13020
12744
12553
12317
12319
12377
12570
12229
12543
15443
20037
24899
14388
7056
9470
10566
11775
12607
13199
13318
13501
13797
13851
14129
14271
14340
14476
14922
15075
15413
15703
16198
16547
17069
17426
17803
17635
17549
17394
16806
15845
14844
13848
12692
11926
11481
11374
11174
11123
11084
11431
11337
11422
11396
11661
11641
11724
11884
11893
11859
11919
11901
11726
11783
11726
11823
11827
11942
11904
11883
11846
12591
13098
13245
13008
12967
12856
12564
12447
12296
12372
12496
12291
11832
13284
17081
24579
22857
9420
8031
9885
11069
12105
12721
13217
13406
13512
13541
13740
13979
14289
14269
14510
14815
15119
15533
15815
16307
16875
17331
17415
17577
17232
17187
16651
16365
15517
14556
13556
12572
11818
11476
11282
11131
10989
10981
11214
11370
11673
11601
11679
11646
11871
11644
11804
11929
11904
11795
11836
11940
12113
12128
12012
12105
12157
12091
11941
12384
12791
13155
13128
13197
13057
12926
12636
12458
12303
12465
12489
12200
12707
15997
20986
25836
18150
7136
8707
10097
11470
12375
12969
13210
13394
13516
13594
13673
14128
14216
14425
14572
14971
15192
15638
16057
16721
17049
17209
17483
17747
17771
17509
16974
16217
15364
14211
13189
12306
11804
11321
11137
11053
11245
11239
11280
11356
11374
11379
11447
11720
11782
11772
11676
11854
11855
12009
11865
11989
11879
11863
11998
11994
11804
11840
12325
12657
12879
13214
13266
13093
12956
12631
12501
12366
12185
12335
12154
12613
15975
20648
25661
19140
7325
8538
9990
11283
12462
12973
13199
13359
13684
13920
13946
14133
14171
14492
14712
14979
15162
15597
16038
16564
16903
17485
17678
17725
17566
17417
17011
16370
15287
14183
13292
12278
11694
11263
11128
10894
10930
11078
11373
11301
11333
11519
11698
11759
11832
11778
11722
11821
11878
11922
11863
11807
11774
12005
12005
11960
11746
11745
12157
12901
13130
13208
13062
13014
12788
12647
12504
12575
12519
12444
12268
12561
15263
19967
25358
21441
8138
8071
9875
11088
12403
12941
13262
13396
13696
13645
14002
14090
14137
14387
14577
14957
15229
15429
15780
16552
16913
17386
17603
17774
17624
17406
16968
16407
15479
14474
13379
12468
11815
11393
11171
10936
11117
11190
11242
11322
11426
11513
11686
11700
11823
11684
11766
11791
11936
11860
11830
11955
11946
11733
11962
12120
11843
11983
12518
13047
13153
13059
12874
12799
12513
12428
12282
12305
12362
12274
12115
14363
18621
23987
23044
9938
7667
9767
10841
11903
12727
13110
13480
13631
13805
13925
14092
14120
14329
14476
14731
15076
15595
15843
16210
16714
17210
17538
17587
17626
17388
16989
16349
15600
14614
13578
12445
11865
11409
11221
11007
10885
10934
11176
11262
11396
11483
11629
11730
11791
11823
11741
11882
11799
11827
11816
11993
11954
12035
12072
12202
11987
11773
12233
12707
12901
13084
13044
12849
12720
12787
12481
12437
12489
12489
12094
12294
15467
20217
25522
19698
7731
8714
10099
11256
12456
12965
13106
13176
13427
13668
13852
14025
14102
14339
14562
14800
15141
15579
15942
16390
16671
17210
17509
17622
17510
17315
16878
16231
15265
14151
13066
12190
11653
11289
11039
11009
11074
11151
11182
11296
11410
11510
11533
11521
11739
11696
11743
11749
11808
11803
11833
11990
11954
11962
11936
12065
11936
11795
11908
12686
13102
13156
12954
13004
12997
12828
12596
12421
12371
12403
12313
12107
13557
17541
23038
25287
13178
7358
9495
10708
11932
12728
13118
13294
13396
13605
13969
14076
14188
14314
14539
14739
15057
15448
15782
16235
16645
16924
17478
17638
17640
17584
17246
16791
16127
15113
13826
12880
12158
11675
11372
11171
10938
10962
11140
11354
11505
11540
11474
11508
11729
11762
11779
11807
11802
11783
11865
11890
11933
11814
11887
12012
11957
11923
12434
12871
13179
13115
13005
12948
12811
12647
12383
12273
12407
12374
12087
12589
15726
21021
25833
18628
7051
8689
10174
11396
12340
12967
13227
13321
13302
13661
14106
14189
14256
14366
14761
15070
15348
15675
16012
16501
16892
17328
17797
17842
17736
17484
17006
16240
15375
14298
13172
12294
11634
11305
11053
11143
11177
11290
11266
11298
11331
11508
11679
11728
11791
11747
11735
11715
11675
11754
11883
11739
11734
11788
11935
11825
11751
12070
12705
13003
13009
12957
12929
12793
12705
12514
12393
12315
12293
12093
12239
14740
19242
24607
22492
8961
7743
9793
10974
12016
12804
13099
13264
13426
13621
13831
13893
14172
14324
14439
14875
15236
15540
15915
16398
16878
17132
17370
17555
17428
17281
17101
16550
15557
14449
13457
12476
11749
11314
11068
10909
10882
10870
11036
11121
11330
11409
11567
11554
11657
11843
11849
11850
11812
11769
11769
11733
11800
11729
11713
11661
11957
12448
12793
12945
12925
12879
12712
12529
12362
12298
12187
12265
12111
12083
13919
18001
23185
23854
11354
7339
9715
10701
11603
12662
13137
13276
13480
13749
13900
14001
14210
14235
14503
14851
15138
15393
15714
16172
16670
17219
17546
17654
17611
17462
17131
16474
15578
14530
13444
12570
11851
11257
11069
11032
11049
11193
11355
11332
11348
11444
11520
11706
11751
11782
11875
11943
11960
11915
11894
11752
12009
11976
11885
11747
12070
12743
13222
13190
13011
13072
12953
12684
12496
12307
12419
12467
12243
12135
14661
19358
24989
22413
8987
8262
10057
11099
12113
12926
13188
13328
13516
13662
13780
13968
14114
14103
14434
14885
15193
15339
15822
16372
16887
17177
17461
17571
17566
17350
16993
16448
15442
14361
13370
12455
11706
11367
11319
11262
11124
11260
11245
11457
11549
11633
11631
11702
11688
11781
11887
11892
11858
11785
11716
11968
12023
12052
11860
11730
12041
12479
12769
12956
13092
13083
12941
12736
12627
12458
12195
12363
12433
12166
12541
15808
20742
25752
19317
7427
8650
10099
11441
12265
12791
13284
13404
13535
13645
13923
14057
14193
14371
14597
14907
15306
15656
16013
16403
16934
17395
17744
17738
17550
17436
17110
16409
15385
14186
12930
12050
11555
11455
11166
11069
11088
11126
11246
11381
11472
11493
11561
11484
11611
11764
11897
11843
11734
11789
11997
11784
11804
11832
11983
11983
11889
11790
12189
12681
13050
13142
13086
13031
12705
12505
12399
12351
12218
12345
12031
12279
14722
19325
24910
23033
9044
7799
9663
10924
12005
12890
13334
13361
13499
13589
13706
13740
14223
14400
14639
14825
15224
15539
16002
16267
16733
17255
17618
17875
17729
17513
17117
16634
15818
14854
13522
12541
11914
11488
11225
11224
11095
11217
11262
11346
11399
11535
11591
11663
11629
11635
11772
11971
11901
11766
11863
11918
11852
11727
11885
11953
12004
11722
12155
12580
12932
13121
13192
13093
12751
12728
12563
12419
12340
12404
12129
12108
14188
18673
24450
23939
10141
7615
9477
10801
12093
12949
13216
13247
13384
13686
13839
13983
14342
14432
14676
14851
15188
15446
15916
16225
16764
17180
17558
17614
17601
17390
17102
16694
15778
14690
13584
12738
11850
11435
11094
11114
11043
11125
11100
11280
11306
11564
11590
11611
11633
11767
11802
