14120
14549
14908
15304
15642
16014
16454
16963
17360
17627
17647
17645
17513
17028
16098
14911
13731
12860
12024
11406
11105
10912
10841
10992
11066
11280
11460
11504
11510
11598
11618
11670
11912
11824
11798
11818
11894
11905
11960
11972
11994
11864
12095
12385
12673
12886
12915
12776
12639
12489
12393
12272
12230
12426
12296
11917
12919
16875
22352
25599
15048
7167
8986
10176
11466
12377
12934
13271
13435
13557
13800
13897
14029
14113
14490
14751
15059
15424
15876
16331
16844
17344
17697
17797
17843
17651
17260
16568
15609
14491
13395
12492
11789
11414
11175
10992
11073
11186
11202
11329
11435
11540
11579
11656
11673
11706
11661
11731
11723
11717
11720
11886
11977
12056
11994
11880
11961
12233
12647
12900
12985
12865
12834
12716
12629
12460
12357
12363
12385
12072
12102
14816
19570
25329
21749
8557
7898
9679
11052
12292
12928
13211
13348
13560
13743
13823
14009
14117
14362
14497
14786
15240
15698
16069
16511
16941
17330
17643
17744
17659
17544
17060
16279
15142
14018
12954
12102
11513
11188
10992
10978
10967
10953
11168
11371
11410
11454
11643
11707
11781
11823
11849
11799
11836
11872
11881
11905
11971
11850
11833
11996
12293
12607
12860
12897
12774
12811
12658
12416
12106
12199
12274
12135
11851
12244
15089
20005
25563
20651
7955
8032
9873
11283
12310
12883
13148
13253
13429
13523
13740
13899
14126
14284
14555
14834
15206
15521
16089
16592
17096
17414
17708
17781
17653
17468
16990
16049
14989
13827
12756
12006
11369
11041
10852
10857
11015
11081
11150
11294
11465
11589
11555
11638
11745
11744
11758
11803
11829
11857
11831
11903
12044
11979
11880
11760
11906
12296
12689
12957
13045
12962
12925
12761
12490
12437
12421
12485
12448
12089
11899
14651
19594
25371
22410
9053
7851
9791
11252
12215
12960
13222
13370
13533
13677
13801
14220
14296
14439
14671
14964
15239
15651
16038
16665
17197
17518
17691
17842
17875
17693
17196
16398
15466
14380
13242
12296
11713
11295
11068
10985
11043
11123
11247
11261
11340
11491
11664
11666
11727
11805
11823
11832
11861
11811
11802
11786
12022
12064
11927
11819
11966
12328
12731
12948
12928
13006
12826
12550
12592
12517
12346
12389
12319
11844
12266
15650
20710
25544
18934
7635
8693
10083
11281
12234
12863
13120
13296
13466
13665
13905
14076
14252
14463
14732
15020
15350
15648
16141
16791
17260
17581
17664
17817
17821
17349
16895
16044
14928
13612
12629
11931
11409
11235
11061
10916
10858
11007
11221
11302
11408
11495
11602
11753
11670
11747
11804
11816
11789
11848
11864
11920
11941
11835
11753
12027
12366
12673
12939
13024
12926
12701
12606
12435
12404
12267
12208
12109
11810
12041
14985
19862
25640
20635
8074
8375
9768
11122
12205
12940
13173
13404
13564
13841
13879
14033
14103
14318
14633
14939
15202
15706
16174
16731
17259
17635
17870
17943
17870
17536
16927
16090
14979
13894
12791
11966
11427
11213
11139
10989
11008
11025
11309
11412
11514
11471
11678
11742
11734
11813
11887
11921
11877
11816
11740
11899
11908
11933
11955
11969
11854
11956
12292
12735
12993
12996
12959
12821
12630
12566
12330
12218
12311
12369
12028
11809
14276
19000
25128
22403
9050
7969
9705
11149
12217
12755
13193
13379
13553
13693
13772
14100
14315
14452
14609
14882
15175
15665
16067
16575
17060
17487
17659
17875
17865
17638
17205
16419
15395
14221
13079
12124
11539
11219
11053
10969
11031
11047
11126
11310
11488
11499
11643
11625
11685
11712
11659
11758
11780
11822
11865
11927
11901
11888
11832
12014
12090
12116
11981
11908
11980
12483
12979
13256
13103
13004
13066
12897
12754
12579
12488
12495
12473
12135
12344
15217
20140
25713
20321
7298
9117
10602
11927
12761
13128
13283
13598
13778
13883
13953
14037
14364
14569
14730
14971
15328
15692
16245
16722
17157
17538
17915
17873
17824
17647
17139
16369
15347
14206
13086
12268
11642
11342
11217
11105
11175
11330
11342
11478
11492
11539
11556
11694
11742
11764
11805
11815
11745
11836
11841
11921
11853
11815
11937
11891
11895
11868
12293
12637
12992
13160
13157
13100
12949
12663
12551
12404
12436
12475
12226
12021
13479
17700
25468
21813
8615
8139
9930
11353
12350
13129
13411
13579
13630
13744
13886
14080
14168
14335
14602
14930
15281
15542
16070
16603
17165
17478
17758
17857
17819
17563
17252
16554
15642
14321
13164
12393
11806
11318
11024
10917
10979
11006
11067
11124
11256
11429
11419
11474
11576
11706
11619
11649
11726
11702
11763
11769
11841
11831
11808
11774
11762
11983
12259
12603
13018
12999
12867
12731
12513
12522
12436
12260
12163
12314
12046
13246
17297
22804
24815
12915
7504
9481
10469
11760
12608
13021
13252
13459
13731
14004
13947
14151
14386
14516
14782
15233
15508
15825
16268
16770
17249
17672
17967
17904
17717
17476
16982
16034
14919
13778
12775
11860
11391
11101
11032
10967
11007
11023
11139
11421
11491
11538
11570
11699
11721
11816
11746
11791
11720
11877
11849
11845
11850
11877
11758
11941
12329
12755
12903
12938
12879
12812
12651
12490
12313
12111
12259
12374
11932
12925
17026
22645
25457
14148
7285
9190
10490
11694
12523
12947
13241
13449
13545
13699
13801
13877
14114
14328
14567
14881
15216
15689
16130
16572
17013
17417
17678
17784
17631
17366
16879
16047
14923
13761
12699
11880
11298
10995
10903
10886
10845
10979
11233
11207
11106
11277
11693
11761
11715
11649
11601
11663
11706
11756
11758
11747
11700
11720
11912
11923
11775
11958
12386
12834
13052
13056
12922
12824
12597
12548
12385
12329
12344
12350
11980
12784
16468
22008
25801
15796
7341
8922
10370
11720
12666
13000
13201
13406
13634
13723
13878
14045
14136
14347
14702
15037
15371
15700
16076
16637
17113
17474
17721
17851
17659
17491
17072
16274
15284
14178
13064
12210
11641
11289
11091
11050
11116
11090
11160
11324
11403
11470
11460
11564
11649
11644
11706
11633
11688
11695
11811
11788
11802
11923
11995
12015
11973
11883
12041
12510
12816
13004
13047
13157
13018
12823
12545
12397
12348
12491
12343
12097
13314
17151
22941
25176
13175
7259
9346
10896
12072
12804
13199
13343
13623
13752
13905
13943
14116
14297
14623
14842
15105
15435
15781
16170
16702
17293
17594
17727
17790
17734
17393
16957
16093
15100
14014
13000
12213
11657
11308
11170
11153
11114
11056
11219
11440
11511
11599
11547
11666
11669
11725
11785
11856
11714
11760
11823
11829
11873
11972
12059
11990
11948
11921
12269
12687
13075
13144
13003
12878
12846
12696
12485
12463
12430
12416
12068
12291
15222
20092
25724
20686
8013
8280
10023
11469
12449
12958
13205
13456
13556
13731
13843
14124
14204
14406
14636
14887
15215
15620
16054
16452
16833
17368
17765
17886
17805
17527
17162
16529
15549
14392
13305
12436
11792
11257
10951
10944
10939
11120
11251
11300
11286
11393
11593
11705
11718
11681
11727
11761
11739
11701
11806
11905
11870
12008
11875
11819
11914
12270
12556
12825
13003
12909
12756
12681
12504
12257
12302
12396
12295
11903
12631
16136
21329
25758
16817
7316
9195
10175
11554
12498
13029
13256
13377
13576
13649
13810
14039
14375
14364
14651
15012
15349
15626
16165
16565
17040
17485
17637
17735
17652
17372
16909
16110
15060
13929
12853
12050
11408
11064
11012
10939
10965
11103
11231
11403
11435
11559
11677
11772
11774
11771
11757
11748
11825
11808
11898
11928
11877
11839
11987
12233
12516
12673
12989
12883
12766
12562
12576
12352
12252
12085
12164
11976
12226
15286
20343
25726
19302
7663
8820
9996
11289
12325
12775
13035
13221
13477
13621
13913
13943
14086
14292
14537
14782
15159
15556
15949
16426
16886
17343
17680
17795
17558
17427
16878
16051
15054
13920
12884
11966
11313
11067
10856
10918
11009
11084
11157
11273
11342
11442
11580
11428
11654
11699
11755
11736
11808
11810
11855
11747
11781
11812
11709
11852
12219
12689
12884
12987
12840
12688
12523
12467
12255
12158
12257
12212
11783
12770
16524
22063
25744
15357
7090
8965
10368
11792
12644
13087
13262
13481
13648
13766
13948
14040
14159
14428
14694
14943
15211
15618
16168
16514
17062
17511
17649
17593
17463
17233
16772
16091
14961
13847
12835
12009
11380
11133
10962
10990
11010
11122
11268
11373
11465
11582
11642
11723
11813
11894
11893
11776
11797
11661
11829
11919
11904
11755
11867
12013
12361
12848
13119
12974
12863
12734
12596
12500
12320
12309
12379
12321
12014
13233
17182
22889
25328
13568
7004
9128
10683
12058
12860
13166
13352
13573
13673
13871
13973
14043
14277
14464
14753
15030
15396
15756
16159
16641
17080
17434
17637
17712
17636
17297
16807
15984
14942
13913
12924
12019
11518
11271
11053
11080
11129
11293
11420
11451
11443
11629
11710
11794
11803
11834
11830
11824
11802
11825
11814
11779
11910
11942
11975
11879
11997
12593
12945
13110
13158
13025
12954
12778
12607
12339
12316
12314
12286
12069
13225
17053
22679
25812
15161
7141
9041
10541
11841
12707
13061
13232
13414
13632
13768
13938
14062
14287
14438
14638
15017
15331
15672
16126
16640
17087
17329
17587
17745
17591
17263
16837
16052
14983
13895
12754
12054
11547
11105
10943
10954
11054
11112
11185
11271
11372
11349
11511
11606
11730
11764
11699
11776
11821
11720
11809
11887
11920
11936
11694
11593
12076
12534
12849
13059
12912
12903
12794
12582
12378
12269
12332
12370
12137
11935
13611
17915
23497
24577
11862
7497
9606
10604
11866
12751
13031
13200
13558
13738
13806
13950
14169
14298
14589
14699
14961
15310
15774
16271
16850
17324
17581
17812
17811
17634
17237
16586
15694
14642
13453
12552
11803
11473
11082
10965
10851
10826
10997
11157
11285
11451
11621
11616
11709
11782
11866
11877
11771
11748
11758
11799
12069
12093
12009
11962
12020
12281
12814
13061
13105
12937
12912
12780
12543
12181
12182
12260
12194
11984
12196
15147
20101
25719
20437
7933
8481
9980
11299
12285
12799
13117
13335
13442
13520
13808
14075
14190
14371
14559
14797
15141
15590
16059
16567
17006
17564
17645
17737
17669
17439
16887
16244
15249
14156
13078
12329
11623
11217
11073
11028
11033
11068
11228
11204
11361
11441
11514
11630
11760
11703
11708
11838
11964
12022
11939
11843
11798
11856
11886
11986
11938
11881
12062
12525
12867
13153
13129
13125
12952
12833
12675
12481
12460
12523
12501
12081
12364
15448
20564
25846
19279
7571
8711
10232
11589
12549
13045
13239
13444
13543
13670
13848
13957
14078
14360
14684
14975
15262
15467
15948
16438
17029
17391
17614
17721
17616
17336
17049
16380
15437
14318
13221
12239
11662
11304
11114
10923
10826
11033
11164
11222
11255
11468
11581
11700
11648
11666
11753
11833
11813
11830
11797
11846
11820
11732
11926
12110
11971
11736
11834
12329
12982
13191
13093
12795
12905
12809
12647
12274
12331
12447
12479
12115
12576
15738
20934
25916
18528
7399
8787
10347
11864
12723
13083
13413
13596
13712
13824
13957
14149
14378
14509
14786
15090
15303
15703
16191
16621
17113
17621
17861
17928
17880
17700
17216
16575
15479
14334
13276
12396
11656
11339
11092
10927
11009
11126
11277
11187
11367
11479
11572
11609
11762
11741
11788
11822
11841
11792
11875
11853
11942
11886
12101
12135
12016
11955
12344
12833
13088
13138
13030
13024
12884
12672
12350
12368
12398
12465
12140
12220
14658
19240
25012
22588
9081
7976
9778
11073
12233
12881
13023
13265
13520
13678
13850
13995
14219
14349
14585
14869
15162
15585
16053
16411
16909
17364
17740
17985
17887
17659
17200
16552
15575
14485
13351
12407
11746
11357
11023
10908
10901
10942
10909
11150
11389
11394
11552
11621
11724
11762
11704
11757
11764
11902
11892
11816
11792
11795
11905
11817
11831
11691
12076
12642
13041
13033
12865
12814
12728
12569
12351
12287
12200
12295
12141
12117
14309
18896
24795
23026
9419
8027
9704
11000
12180
12879
13133
13200
13472
13605
13716
13932
14116
14177
14549
14853
15225
15411
15874
16415
16886
17315
17706
17833
17901
17698
17329
16686
15701
14492
13374
12509
11611
11137
11090
11040
10886
11040
11115
11187
11373
11498
11499
11598
11667
11848
11866
11820
11791
11955
12030
12049
11928
11889
11935
11957
12081
12030
11963
12087
12641
13045
13171
13110
13151
13075
12846
12710
12472
12389
12394
12379
12003
12487
15650
20898
25947
18507
7398
8748
10297
11792
12719
13116
13298
13494
13559
13687
13897
14109
14280
14502
14731
14927
15174
15658
16076
16541
17077
17400
17781
17762
17652
17561
17365
16614
15604
14411
13278
12451
11702
11276
11184
11021
10930
11214
11283
11441
11502
11562
11576
11688
11712
11759
11718
11868
11748
11805
11862
11827
11753
11963
11914
11846
11859
12019
12172
12006
11970
12384
12862
13162
13304
13161
13089
12865
12637
12519
12509
12460
12465
12241
12002
14111
18632
24770
23507
9848
7558
9799
11281
12370
13011
13210
13340
13567
13772
13903
14036
14196
14377
14556
14863
15113
15435
15786
16276
16687
17295
17669
17924
17856
17754
17396
16830
16122
15180
13967
12870
11847
11482
11142
11070
11037
11110
11185
11189
11362
11493
11579
11693
11682
11641
11854
11786
11764
11697
11790
11751
11775
11780
11875
11990
11906
11825
11828
12075
12519
12989
13161
13017
12891
12949
12732
12540
12312
12278
12351
12302
12044
13363
17340
22953
25505
14034
7203
9349
10547
11822
12666
12994
13132
13409
13614
13728
13936
14034
14261
14424
14701
14982
15318
15690
16077
16624
17068
17526
17695
17733
17712
17561
17028
15842
14627
13358
12418
11780
11323
11100
10821
10781
10857
11021
11227
11390
11375
11322
11470
11582
11712
11745
11631
11657
11773
11727
11833
11841
11842
11974
11982
11871
11902
12044
12287
12726
13160
13096
12799
12768
12724
12610
12435
12405
12307
12158
11792
12716
16562
22091
25704
15456
7348
9354
10429
11647
12572
12976
13299
13483
13675
13702
13881
14102
14341
14464
14736
14981
15257
15687
16170
16560
17152
17607
17769
17865
17810
17326
16688
15958
14783
13598
12614
11769
11230
10983
10951
10921
10866
11087
11271
11359
11313
11381
11530
11575
11698
11780
11718
11838
11877
11807
11813
11822
11899
11779
11715
11792
12304
12727
12839
12882
12886
12827
12710
12499
12250
12307
12327
12223
12017
12099
15026
20059
25629
20302
7857
8361
9819
11411
12351
12901
13133
13368
13416
13616
13719
13882
14038
14286
14619
14901
15240
15506
15960
16414
16888
17258
17646
17657
17612
17424
17041
16121
15044
13864
12814
11987
11445
11093
11011
10992
11012
11099
11248
11328
11393
11496
11531
11448
11609
11772
11700
11710
11803
11787
11813
11865
11869
11933
11913
11837
12036
12360
12749
13069
13028
12913
12871
12643
12572
12394
12407
12321
12224
11891
12711
16272
21696
25953
16858
7162
8836
10443
11825
12688
13015
13144
13307
13503
13629
13957
14001
14032
14250
14579
14781
15184
15470
15879
16465
16940
17364
17677
17695
17531
17311
16772
16017
14878
13764
12677
11958
11419
11181
11148
11214
11156
11342
11376
11397
11500
11497
11601
11686
11722
11832
11730
11693
11929
11962
11897
11920
11947
11831
11817
12000
12322
12678
12986
12967
12783
12724
12738
12645
12362
12280
12195
12206
12022
12470
15400
20464
25641
19429
7499
8382
10064
11513
12459
12942
13097
13330
13543
13598
13736
13911
14107
14291
14537
14771
15176
15540
15892
16347
16925
17305
17575
17559
17543
17260
16768
16057
15022
13856
12821
11949
11491
11265
10967
10870
10812
11113
11241
11233
11390
11571
11543
11610
11641
11732
11775
11770
11806
11888
11851
11863
11746
11818
11898
12127
12547
12740
12986
12878
12744
12542
12487
12282
12105
12230
12351
12088
12009
14563
19324
24917
21798
8670
8218
9872
11045
12279
12962
13135
13233
13540
13732
13852
13923
14200
14455
14578
14803
15222
15558
16006
16544
16982
17421
17682
17800
17756
17457
16903
16189
15070
14088
12948
12121
11547
11175
11062
10992
10915
10951
11155
11337
11359
11503
11664
11754
11807
11788
11898
11886
11892
11835
11832
11828
11877
11862
11834
12308
12704
12897
13048
13047
12915
12790
12502
12279
12172
12322
12295
12089
11966
14462
19136
25073
22222
8935
8203
9770
11163
12235
12758
13104
13331
13441
13527
13670
13909
14171
14337
14363
14751
15081
15440
15820
16356
16839
17198
17476
17793
17544
17342
16938
16119
15053
13986
12950
12092
11556
11231
11073
10998
10972
10952
11261
11429
11573
11549
11664
11625
11651
11768
11729
11812
11851
11832
11739
11870
11974
11885
11808
12035
12382
12743
13009
13075
12959
12962
12699
12518
12401
12325
12279
12324
12068
12302
15257
20372
25823
20016
7744
8451
10084
11555
12529
13035
13234
13352
13538
13699
13934
14137
14263
14345
14504
14801
15161
15667
16019
16402
16838
17319
17563
17689
17500
17371
16946
16123
15071
14051
13035
12211
11535
11265
11104
11061
11172
11264
11346
11453
11609
11644
11624
11684
11754
11742
11747
11714
11761
11768
11823
11778
11916
11963
11910
11840
11898
12312
12815
13056
13131
13052
12889
12714
12531
12435
12312
12312
12338
12037
12303
15416
20538
25764
19893
7635
8231
10046
11633
12501
12982
13121
13326
13388
13755
13945
14086
14264
14412
14621
14791
15229
15547
15907
16378
16874
17413
17636
17644
17589
17399
16951
16167
15173
13971
12858
12067
11654
11289
11175
10992
11017
11118
11322
11426
11468
11480
11549
11687
11699
11817
11770
11813
11869
11826
11839
11899
11874
11772
11691
11892
12229
12682
12930
13004
12866
12804
12661
12578
12279
12136
12284
12217
12017
12300
15240
20135
25442
19999
7625
8415
9916
11178
12276
12869
13063
13285
13417
13528
13681
13946
14139
14440
14561
14941
15179
15565
16034
16492
16849
17502
17732
17732
17668
17336
16834
16085
14975
13893
12870
12055
11427
11093
11086
11016
11085
11100
11220
11266
11471
11595
11674
11589
11629
11658
11741
11749
11693
11664
11790
11819
11765
11905
11862
12081
12305
12643
12932
12979
12815
12633
12474
12485
12253
12186
12147
12076
11773
12777
16801
22511
25620
14616
7348
9188
10367
11676
12638
12964
13072
13327
13581
13775
13937
14037
14198
14329
14593
14947
15241
15616
15954
16518
17276
17605
17624
17635
17413
17079
16336
15563
14467
13408
12468
11778
11289
11069
11064
11018
10954
11044
11303
11440
11570
11546
11656
11668
11741
11692
11622
11795
11947
11776
11790
11839
11916
11994
11918
11864
12105
12446
12912
13125
13016
13066
12953
12736
12558
12340
12352
12403
12262
11885
12563
16015
21418
25966
17753
7190
8674
10241
11642
12563
13026
13183
13346
13414
13549
13723
14124
14164
14361
14532
14839
15253
15634
16049
16726
17039
17501
17632
17666
17453
17268
16872
16147
15043
13882
12833
11917
11587
11301
11071
11065
11199
11201
11367
11522
11512
11564
11699
11769
11767
11750
11703
11876
11982
11921
11773
11805
11829
11928
11966
11965
11801
12115
12589
13090
13263
13090
12975
12819
12636
12409
12244
12229
12453
12369
12081
13167
17197
22952
25297
13386
6864
9027
10714
11915
12878
13213
13402
13547
13665
13771
13921
14116
14275
14488
14569
14918
15524
15995
16379
16845
17318
17596
17670
17559
17507
17298
16586
15783
14747
13612
12645
11813
11428
11224
11066
10986
11096
11185
11291
11500
11573
11631
11662
11652
11748
11720
11812
11858
11845
11880
11898
11773
11811
12104
12119
12019
11899
12019
12464
12981
13135
13158
13084
12987
12671
12385
12323
12435
12456
12315
12007
12832
16554
21982
25758
16215
7080
8831
10398
11668
12658
13074
13148
13299
13639
13880
13931
14023
14146
14467
14728
14974
15317
15741
16116
16590
17076
17498
17612
17589
17402
17147
16643
15949
14813
13733
12707
12008
11451
11110
11026
11151
11095
11086
11209
11401
11458
11472
11718
11683
11760
11805
11762
11741
11835
11795
11817
11825
11781
11785
11778
11940
12393
12699
12864
12974
12762
12679
12577
12435
12181
12264
12300
12174
11918
12624
16082
21189
25583
17053
7134
8978
10283
11584
12515
12859
13026
13324
13580
13648
13850
13915
14199
14382
14644
14994
15374
15737
16262
16699
17253
17598
17732
17689
17529
17264
16570
15729
14586
13552
12551
11896
11466
11250
11040
10992
11013
11189
11220
11401
11478
11525
11657
11787
11793
11778
11875
11753
11861
11858
11886
11855
11929
11839
11890
11962
12151
12458
12881
13012
13140
13119
12909
12640
12435
12290
12292
12467
12348
11926
13177
17284
23138
25433
13374
7360
9302
10728
11944
12601
13006
13355
13422
13468
13686
13840
14010
14217
14420
14687
15094
15562
15862
16168
16789
17228
17522
17534
17544
17307
17079
16569
15775
14508
13374
12577
11863
11343
10988
10987
10960
11280
11336
11358
11437
11667
11678
11710
11644
11769
11797
11772
11940
11925
11914
11837
11818
11908
11958
12013
11994
12012
12307
12846
13218
13178
13038
12907
12712
12574
12462
12212
12217
12437
12199
12403
15393
20424
25683
19387
7431
8165
10115
11712
12525
13027
13215
13472
13559
13677
13825
14060
14258
14362
14623
15081
15482
15798
16161
16506
16990
17340
17550
17640
17599
17292
16945
16185
15213
14045
13000
12124
11551
11349
11178
11111
11114
11181
11286
11427
11518
11648
11762
11657
11688
11772
11761
11794
11818
11849
11767
11909
11976
11878
11965
11889
12077
12387
12689
12943
13058
12925
12855
12507
12491
12510
12481
12428
12310
12017
13044
16844
22339
25676
15140
6859
8799
10511
11898
12698
12956
13211
13371
13644
13744
13841
13954
14271
14546
14820
15050
15507
15801
16346
16825
17204
17496
17685
17599
17401
17109
16586
15765
14711
13822
12715
11948
11385
11185
11002
11055
11063
11145
11219
11211
11351
11475
11644
11645
11747
11727
11793
11746
11740
11712
11728
11736
11760
11653
11649
11915
12398
12622
12959
12992
12852
12632
12495
12441
12197
12089
12222
12167
11977
13394
17401
23208
24761
12471
7209
9412
10783
12005
12701
13036
13289
13303
13671
13839
13951
14070
14175
14478
14853
15111
15350
15758
16304
16808
17275
17409
17530
17587
17396
16930
16338
15463
14348
13272
12436
11806
11182
11122
11158
11083
11128
11172
11179
11364
11552
11606
11579
11757
11897
11933
11932
11907
11861
11939
11964
11805
11805
11760
12100
12403
12796
13017
12986
12933
12942
12706
12455
12222
12241
12354
12272
11863
12468
15897
21165
25917
17585
7187
8726
10411
11683
12491
12929
13283
13405
13541
13756
13915
14044
14288
14431
14689
14982
15348
15743
16110
16571
17075
17375
17603
17682
17485
17252
16779
15950
14823
13830
12738
12086
11648
11338
11093
11100
11139
11238
11365
11472
11564
11646
11644
11849
11914
11800
11939
11906
11814
11765
11956
12022
12063
11984
12057
12363
12701
13021
13138
13015
12857
12723
12499
12420
12312
12390
12459
12183
12443
15511
20624
25762
19047
7227
8126
10104
11726
12509
12932
13182
13436
13513
13656
13881
14114
14234
14358
14664
15051
15363
15784
16086
16540
17027
17417
17594
17619
17371
17159
16751
15990
14917
13826
12901
12046
11466
11203
11226
11124
11135
11169
11389
11451
11617
11656
11651
11653
11923
11949
11853
11825
11921
12033
12000
12114
11997
11929
11863
12222
12593
12924
13089
13020
12884
12889
12662
12541
12319
12230
12312
12058
11899
14135
18850
24688
23447
9646
7611
9703
11139
12143
12833
13094
13275
13279
13572
13671
13882
14092
14327
14415
14627
15131
15658
16069
16461
16810
17211
17606
17622
17546
17196
16797
16131
15109
14007
13095
12270
11677
11172
10946
10980
11064
11063
11228
11298
11273
11479
11539
11680
11693
11703
11657
11660
11698
11722
11760
11725
11782
11756
11771
11967
12308
12628
12837
12880
12872
12613
12374
12359
12158
12125
12252
12122
11785
12969
16990
22588
25237
13614
7224
9398
10440
11618
12465
13032
13182
13363
13461
13600
13846
14022
14234
14462
14664
15084
15353
15820
16170
16665
17061
17469
17613
17460
17316
17012
16283
15281
14310
13238
12295
11579
11255
10995
11102
11034
11028
11148
11336
11502
11568
11504
11684
11662
11713
11761
11726
11711
11779
12005
11979
11892
11858
11946
12232
12704
12907
12906
12865
12929
12731
12514
12260
12222
12293
12192
11938
12197
15375
20511
25910
19420
7760
8868
10210
11466
12430
12901
13150
13339
13556
13617
14013
14063
14284
14435
14710
15019
15346
15671
16271
16808
17088
17285
17491
17689
17573
17202
16645
15859
14742
13654
12763
11997
11423
11168
11121
11175
11188
11225
11393
11490
11600
11669
11747
11764
11791
11803
11934
11874
11974
12029
12039
11973
12002
11903
11965
12099
12414
12929
13148
13231
13061
12977
12732
12576
12371
12323
12264
12371
12106
12662
15986
21091
25941
17929
7272
8759
10316
11655
12643
13033
13197
13484
13743
13804
13808
14128
14279
14412
14797
15068
15433
15768
16089
16602
17073
17444
17802
17620
17335
16984
16567
15799
14806
13710
12746
12048
11446
11216
11102
11126
11135
11205
11331
11433
11503
11605
11702
11680
11799
11785
11754
11813
11802
11738
11722
11643
11886
11701
11674
11921
12331
12638
12881
12990
12899
12806
12633
12523
12394
12308
12238
12326
12164
12105
14117
18599
24549
23273
9594
7323
9519
11183
12293
12872
13137
13435
13593
13640
13827
14029
14109
14291
14565
14871
15218
15444
16113
16599
17014
17323
17505
17633
17525
17308
16925
16290
15334
14208
13136
12401
11798
11484
11222
11211
11132
11231
11281
11382
11505
11587
11488
11569
11853
11852
11712
11726
11799
11827
11766
11713
11924
11956
11832
11691
11998
12484
12898
13067
13012
12873
12729
12529
12591
12395
12306
12264
12142
11943
13065
16860
22242
25699
15341
7004
8869
10325
11678
12603
12950
13185
13351
13404
13713
13952
14018
14274
14464
14777
15013
15397
15700
16142
16712
17182
17425
17581
17603
17267
17072
16520
15634
14496
13463
12508
11785
11226
11028
10982
11048
11126
11102
11190
11331
11573
11604
11539
11526
11732
11760
11708
11671
11765
11740
11820
11895
11960
11899
11840
11890
12302
12624
12888
12979
12980
13052
12730
12460
12288
12239
12256
12293
12012
12245
15129
19994
25664
20513
7929
8396
9877
11229
12284
12912
13145
13356
13636
13672
13913
14106
14236
14378
14645
14983
15376
15627
16031
16536
17121
17500
17617
17562
17495
17178
16647
15820
14754
13703
12685
11995
11554
11343
11150
11087
11129
11234
11250
11292
11365
11545
11727
11834
11834
11839
11932
11903
11813
11859
11957
11943
11937
11961
12108
11990
12207
12670
13022
13209
13072
13018
12906
12641
12408
12305
12310
12415
12051
12048
14511
19318
25242
22447
8806
7754
9825
11403
12396
12961
13280
13562
13639
13734
13877
14015
14191
14322
14643
14885
15212
15673
16097
16538
16966
17278
17583
17612
17627
17329
16947
16201
15213
14127
13157
12408
11700
11301
11174
11300
11201
11260
11321
11506
11498
11503
11481
11719
11847
11881
11827
11880
11853
11746
11795
11943
11888
11864
11796
11884
12174
12412
12708
13002
13114
13176
13161
12857
12672
12325
12307
12383
12459
12148
12476
15260
20329
25643
20076
7548
7969
10196
11675
12482
13089
13442
13440
13591
13880
13995
14026
14271
14462
14694
14852
15253
15646
16034
16453
16974
17404
17525
17609
17470
17156
16693
16181
15051
14008
13017
12261
11672
11268
11139
11126
11169
11184
11279
11581
11594
11579
11629
11603
11745
11757
11723
11755
11786
11730
11779
11762
11805
11944
11966
11832
11950
11998
12303
12794
13033
13158
13047
12958
12812
12640
12388
12377
12389
12450
12159
12508
15484
20579
25690
19633
7416
8148
10594
11863
12716
13126
13309
13484
13649
13752
14032
14157
14357
14551
14771
14983
15406
15709
16187
16527
17130
17465
17550
17657
17449
17228
16963
16273
15214
14064
12920
12160
11573
11260
11002
10995
10920
11158
11252
11386
11430
11528
11624
11611
11612
11657
11727
11673
11691
11655
11765
11877
11883
11882
11775
11687
12103
12468
12809
13084
13015
12790
12674
12512
12296
12242
12305
12417
12074
11872
14057
18611
24501
23230
9678
7649
9990
11429
12394
12851
13011
13238
13437
13634
13774
13929
14058
14263
14541
14789
15152
15558
16014
16416
16953
17357
17623
17579
17476
17230
16870
16190
15273
14087
13075
12266
11732
11288
11107
11067
11095
11178
11247
11435
11508
11630
11584
11716
11642
11678
11795
11876
11770
11803
11980
11975
11903
11894
11853
12018
12004
12279
12633
12951
13161
13040
12929
12690
12531
12460
12379
12301
12382
12064
12321
15233
20205
25687
19635
7058
9152
10723
11862
12652
13125
13394
13392
13509
13670
13999
14117
14157
14335
14754
15023
15271
15677
16130
16577
17063
17395
17520
17537
17461
17158
16634
15904
14909
13912
12986
12086
11527
11429
11243
11169
11140
11222
11291
11449
11579
11595
11577
11654
11812
11818
11787
11725
11779
11718
11810
11811
11765
11784
11820
11938
12283
12760
13100
13003
12915
12805
12716
12607
12260
12206
12337
12288
12007
12750
16087
21406
25686
11544
6773
9214
11128
12299
12893
13119
13283
13498
13629
13816
13960
14005
14242
14528
14750
14953
15426
15750
16225
16515
17061
17441
17505
17453
17456
17142
16610
15947
15000
13807
12815
12066
11603
11229
11038
11127
11169
11339
11398
11379
11405
11652
11666
11774
11768
11734
11733
11664
11892
11913
11802
11752
11889
11843
11819
11768
11905
12211
12718
12916
13038
13053
12963
12719
12623
12374
12353
12349
12378
12189
12763
16121
21502
24646
11709
6993
9224
10983
12076
12622
13030
13243
13463
13569
13627
13910
14119
14238
14385
14664
15052
15264
15699
16252
16658
17000
17388
17637
17644
17373
17147
16720
16055
14917
13733
12776
12087
11503
11144
11120
11058
11109
11174
11311
11353
11484
11535
11583
11707
11781
11731
11758
11778
11839
11816
11857
11888
11814
11751
11931
12214
12648
13004
13029
12751
12640
12432
12454
12354
12128
12068
12310
12082
12588
15969
21171
11095
7340
9442
10734
11952
12711
12967
13091
13390
13541
13734
14021
14143
14309
14488
14663
14987
15289
15845
16214
16739
17200
17540
17654
17598
17388
16934
16410
15571
14618
13557
12549
11790
11365
11132
11124
11069
10936
10952
11402
11604
11577
11741
11825
11829
11726
11742
11715
11724
11889
11996
11918
11862
11853
11939
11846
12015
12410
12765
13002
13106
12964
12803
12617
12397
12316
12250
12193
12151
11971
13609
18052
23965
24479
8121
8328
9992
11497
12375
12993
13195
13354
13577
13702
13889
14061
14167
14403
14502
14883
15213
15521
15936
16419
16917
17403
17596
17667
17591
17394
17024
16414
15491
14404
13254
12291
11662
11334
11137
11190
11166
11228
11339
11464
11552
11622
11546
11713
11726
11787
11855
11898
11973
11915
11877
11885
11865
11941
11916
11894
11931
12181
12610
12987
13248
13101
13005
12836
12722
12413
12318
12326
12474
12383
12196
13770
17947
25377
21013
7945
7911
10005
11490
12449
13055
13359
13467
13688
13727
13820
13925
14230
14510
14662
14709
15167
15646
16073
16513
16930
17193
17518
17754
17572
17322
17238
16589
15517
14555
13512
12538
11707
11481
11349
11230
11134
11201
11201
11309
11476
11461
11715
11845
11826
11772
11780
11774
11821
11872
11853
11789
11832
11807
11898
11831
11750
11911
12245
12666
12967
13072
12976
12955
12811
12656
12344
12209
12324
12476
12101
12344
16860
22633
25559
14709
6951
9077
10764
11912
12780
13219
13281
13441
13627
13778
13988
14222
14369
14462
14680
15102
15604
15839
16238
16756
17157
17412
17679
17716
17623
17372
16850
16194
15302
14183
13050
12176
11697
11373
11141
11127
11098
11235
11280
11395
11418
11622
11655
11669
11685
11824
11827
11796
11805
11836
11812
11801
11894
11841
11733
11766
11791
12119
12487
12630
12966
13085
12966
12738
12639
12366
12129
12235
12399
12081
12314
15448
20399
25578
19440
7463
8525
10021
11386
12437
12926
13172
13248
13532
13693
13775
13951
14131
14264
14450
14733
15104
15650
16041
16513
17002
17341
17474
17716
17666
17427
17018
16336
15243
14241
13255
12397
11738
11314
11040
10895
10835
10913
11162
11254
11322
11484
11669
11686
11715
11619
11787
11849
11732
11592
11834
11849
11778
12006
11870
11814
11855
12180
12470
12804
13009
12911
12758
12637
12485
12422
12272
12349
12314
12071
12229
15280
20338
25794
19442
7390
8279
10105
11439
12308
13073
13275
13385
13494
13648
13763
13989
14109
14332
14561
14949
15198
15550
16041
16525
17008
17504
17676
17722
17646
17412
16994
16297
15293
14221
13303
12369
11715
11331
11190
10991
11128
11191
11205
11315
11544
11540
11530
11611
11562
11746
11810
11776
11684
11711
11746
11762
11791
11951
11847
11732
11673
12008
12325
12760
13106
13094
12883
12709
12563
12378
12229
12204
12270
12047
11918
13915
18583
24488
23416
9871
7211
9545
11319
12257
12832
13128
13308
13389
13523
13662
13804
14113
14192
14396
14615
15015
15406
15849
16231
16780
17107
17393
17535
17592
17443
17175
16676
15825
14657
13431
12497
11709
11197
10988
11023
11013
11081
11140
11207
11298
11446
11555
11639
11635
11642
11650
11655
11733
11720
11691
11658
11665
11601
11594
11646
11827
12099
12474
12736
12990
13044
12969
12847
12698
12452
12355
12321
12377
12191
12015
13940
18288
23874
24162
11367
7479
9736
10918
12102
12741
13105
13196
13414
13613
13741
13833
14036
14249
14539
14745
14938
15410
15872
16308
16676
17204
17455
17660
17578
17380
17030
16508
15684
14614
13438
12600
11920
11366
11084
11004
10988
10954
11086
11285
11287
11318
11601
11698
11782
11695
11710
11708
11820
11797
11827
11784
11862
11785
11710
11832
12127
12482
12622
12940
12884
12685
12526
12570
12420
12311
12304
12376
12104
12732
15784
20279
24297
18208
7379
8578
10492
11403
12280
12837
13221
13414
13579
13704
13904
13982
14211
14357
14543
14749
15134
15436
15828
16211
16620
17092
17377
17422
17277
17037
16524
15839
14812
13815
12761
12051
11817
11661
11505
11487
11335
11272
11196
11279
11459
11577
11711
11874
12142
12364
11174
11276
11635
11647
11803
11880
11807
11886
12048
12202
12474
12686
12919
12890
12799
12782
12712
12496
12376
12347
12299
12110
12599
15663
20013
24403
18659
7777
8689
10375
11139
11876
12406
12600
12710
12955
13360
13780
13992
14091
14222
14349
14668
15041
15537
15819
16433
16786
17232
17442
17584
17540
17274
16805
16182
15235
14163
13085
12281
11834
11569
11459
11430
11502
11434
11605
11754
11866
11867
12084
12095
12204
12194
12193
12148
11911
11957
12078
12103
12087
12238
12232
12195
12070
12233
12646
12941
13126
13042
12896
12770
12621
12482
12427
12441
12450
12082
12064
14545
19110
24290
21846
9305
8406
10266
11068
12136
12832
13162
13316
13530
13634
13825
13904
14049
14173
14449
14689
15029
15307
15735
16208
16661
17116
17358
17489
17462
17313
16891
16217
15284
14276
13207
12435
11802
11497
11224
11175
11192
11306
11355
11441
11518
11652
11727
11823
11846
11812
11903
11926
11964
11903
11927
11894
11957
11933
12008
12028
12030
11971
11926
12013
12466
13004
13177
13125
13092
13023
12842
12692
12537
12509
12483
12385
11922
13077
16895
22140
25032
14518
7500
9697
10644
11774
12608
13103
13310
13483
13659
13852
14040
14179
14333
14507
14774
14993
15301
15615
16074
16526
17001
17347
17602
17652
17553
17260
16768
15972
14937
13900
12893
12193
11612
11372
11213
11265
11271
11406
11448
11562
11622
11695
11742
11850
11840
11851
11901
11925
11926
11900
11918
11896
11929
11953
12000
11994
12135
12103
12049
12025
12455
12874
13188
13182
13135
13055
12966
12791
12626
12539
12570
12632
12279
12113
14311
18658
24103
22472
9796
8155
10087
11066
12089
12914
13198
13403
13537
13675
13794
13970
14219
14352
14535
14740
15077
15383
15787
16154
16699
17107
17487
17642
17636
17529
17262
16639
15750
14742
13641
12695
11959
11557
11330
11263
11196
11259
11311
11397
11445
11591
11686
11789
11743
11798
11826
11834
11871
11903
11941
11876
11879
11924
11950
11978
12061
12169
12307
12219
12115
12039
12455
12831
13138
13194
13245
13226
13085
12861
12660
12529
12525
12563
12226
11981
13832
18102
23639
23364
10863
7840
9901
10948
12023
12830
13196
13452
13714
13944
14018
14094
14194
14359
14546
14750
15076
15362
15772
16207
16749
17150
17546
17656
17646
17516
17312
16774
15955
14902
13814
12806
12023
11519
11303
11217
11145
11216
11225
11391
11494
11585
11586
11692
11704
11755
11774
11821
11790
11861
11859
11879
11837
11898
11909
11956
11943
12032
11996
11886
11951
12293
12761
13047
13186
13058
13013
12837
12760
12539
12472
12533
12593
12354
12145
14012
18127
23353
23251
11265
7903
10130
10865
12032
12807
13182
13311
13548
13711
13865
13984
14120
14241
14456
14746
14993
15279
15680
16162
16639
17054
17373
17639
17605
17460
17162
16608
15705
14660
13602
12595
11837
11396
11103
11055
11080
11102
11221
11165
11250
11392
11606
11677
11687
11754
11793
11809
11828
11805
11880
11858
11867
11859
11929
11921
11995
11968
12138
12435
12797
13096
13078
12952
12937
12904
12663
12479
12386
12500
12484
12212
12161
14605
18919
24021
21393
9086
8239
10270
11132
12268
13143
13372
13534
13733
14005
14202
14379
14439
14577
14697
15065
15395
15678
16065
16443
16884
17292
17714
17831
17832
17651
17226
16652
15900
15078
13897
12794
11901
11304
11111
11004
10935
11096
11333
11294
11307
11389
11479
11507
11550
11640
11585
11571
11687
11624
11671
11847
11861
11749
11730
11652
11677
11719
12068
12436
12667
12830
12894
12853
12824
12608
12333
12149
12104
12134
12022
11591
12638
16348
21609
24738
14751
7172
8916
10249
11647
12485
12860
13204
13417
13573
13745
13900
13967
14131
14366
14613
14845
15198
15587
15964
16495
16923
17322
17612
17696
17522
17295
16767
15969
14974
13912
12863
12036
11436
11126
11001
11052
11127
11225
11280
11379
11516
11618
11667
11699
11739
11821
11871
11860
11768
11858
11851
11850
11743
11675
11666
11653
11950
12327
12707
12920
12938
12922
12713
12546
12287
12232
12319
12385
12174
11741
13577
17850
23258
23272
10854
7574
9530
10968
12026
12640
13079
13294
13213
13281
13531
13612
13814
14131
14388
14542
14854
15243
15618
16112
16604
17114
17485
17716
17829
17608
17300
16847
15958
14896
13815
12742
11817
11546
11353
11248
11255
11307
11285
11382
11384
11495
11535
11651
11648
11764
11830
11937
11885
11912
11928
12008
12086
12182
12134
12059
12004
12237
12636
13044
13245
13269
13270
13194
12878
12623
12401
12367
12275
12308
11951
12322
15589
20497
25041
17546
7459
8832
10381
11677
12527
13150
13393
13588
13777
13922
14041
14261
14385
14593
14754
14927
15317
15714
16172
16672
17104
17462
17824
17752
17678
17544
17087
16405
15430
14356
12940
12161
11593
11286
11201
11225
11293
11358
11396
11461
11580
11615
11640
11724
11770
11841
11903
11802
11802
11886
11871
11930
11913
11893
11810
11998
12341
12753
12933
12945
12894
12773
12705
12516
12285
12417
12462
12172
11849
12541
16007
20807
24755
16325
7377
9139
10300
11461
12353
12962
13217
13417
13552
13734
13905
14071
14221
14454
14666
14952
15187
15506
15955
16483
16937
17384
17585
17649
17522
17268
16775
15910
14846
13528
12546
11814
11419
11185
11097
11109
11166
11228
11355
11465
11472
11556
11775
11828
11905
11898
11960
12050
12156
12145
12123
12025
12059
12085
12213
12579
12840
13147
13118
13021
12914
12809
12660
12540
12494
12518
12408
11947
12756
16411
21439
25319
16093
7565
9324
10216
11577
12499
13022
13327
13577
13707
13883
14011
14201
14331
14554
14764
15013
15345
15714
16199
16667
17191
17489
17648
17634
17540
17267
16847
15952
14905
13407
12525
11832
11451
11162
11098
11064
11167
11240
11353
11480
11492
11558
11652
11755
11822
11897
11893
11974
11944
11996
11945
12067
11928
11891
11904
12198
12585
12867
13016
12998
12934
12838
12713
12486
12350
12227
12268
12057
11549
13097
17442
22947
23896
11341
7719
9572
10726
11885
12706
13099
13303
13550
13694
13873
14023
14218
14347
14576
14788
15116
15448
15846
16259
16786
17202
17488
17594
17522
17424
17094
16463
15493
14525
13087
12225
11637
11347
11115
11068
11030
11193
11246
11441
11492
11669
11658
11675
11584
11514
11479
11470
11437
11394
11548
11667
11839
11922
11841
11667
11792
12159
12614
12804
12800
12643
12623
12437
12349
12205
12148
12161
12021
11642
12065
15189
20075
25444
18849
7732
8821
10202
11612
12663
13148
13433
13598
13841
13930
14143
14325
14458
14616
14727
15066
15376
15728
16160
16660
17113
17570
17784
17944
17736
17470
16979
16310
14971
13867
12771
12050
11455
11172
11098
11081
11129
11283
11465
11438
11470
11512
11697
11614
11511
11523
11704
11731
11822
11806
11860
11829
11918
11966
11789
11548
11921
12500
12842
13109
12998
12909
12752
12591
12394
12316
12362
12387
11969
11630
13110
17227
22786
24416
12165
7207
9252
10599
11885
12522
12889
13089
13360
13522
13720
13844
14035
14164
14386
14619
14990
15389
15803
16276
16787
17302
17630
17825
17769
17670
17299
16762
15524
14447
13292
12444
11796
11436
11195
11201
11213
11337
11380
11460
11567
11680
11765
11806
11844
11839
11845
11834
11904
11821
11840
11788
11829
11798
11917
11881
11856
11703
12006
12493
12909
13089
13047
13008
12882
12721
12522
12394
12301
12391
12201
11818
12679
16435
21706
25344
15094
7262
9177
10362
11719
12599
13060
13234
13420
13560
13762
13849
14048
14209
14475
14650
15024
15324
15712
16157
16658
17107
17493
17670
17693
17559
17203
16577
15708
14629
13488
12543
11832
11448
11113
10987
11005
11145
11199
11297
11356
11464
11517
11631
11648
11652
11676
11700
11723
11668
11721
11744
11859
11870
11863
11767
11904
12244
12669
12867
12982
12877
12826
12610
12512
12279
12215
12308
12267
11931
12110
15075
19708
24878
19582
7888
8768
10214
11243
12289
12930
13223
13406
13587
13714
13901
14058
14207
14436
14622
14916
15226
15619
15974
16536
16992
17410
17599
17738
17492
17258
16642
15857
14746
13658
12639
12020
11558
11302
11192
11175
11232
11302
11449
11509
11606
11612
11722
11777
11869
11850
11857
11802
11849
11847
11890
11858
11921
11824
11804
11940
12250
12646
12926
13092
12972
12974
12755
12676
12379
12379
12364
12404
12052
12181
14899
19447
25015
20583
8221
8641
10086
11305
12366
12943
13222
13382
13620
13767
13988
14010
14191
14378
14717
14974
15238
15432
15700
16300
16662
17081
17539
17840
17639
17339
16509
15243
14183
13632
12801
12139
11563
11213
11059
11159
11139
11326
11442
11480
11494
11636
11610
11708
11785
11960
11805
11535
11609
11834
11837
12047
12033
12045
12034
11795
11692
12168
12766
13043
13170
13066
13024
12894
12687
12431
12394
12308
12423
12318
12003
13164
16989
22576
24892
12831
7412
9624
10848
11991
12757
13087
13199
13347
13436
13867
13964
14251
14362
14458
14479
14917
15431
15823
16143
16597
17325
17565
17657
17582
17384
17043
16458
15568
14607
13426
12506
11781
11383
11039
11108
11116
11197
11283
11475
11536
11631
11747
11722
11756
11722
11770
11970
11985
11899
11934
11915
11840
11807
12141
12087
11933
11926
12392
12807
13098
13081
13037
13003
12977
12901
12649
12467
12415
12574
12287
12464
15093
19833
25259
20995
8196
8247
10142
11606
12485
13027
13273
13402
13695
13760
13920
14112
14321
14337
14677
14998
15309
15613
15962
16576
17181
17538
17718
17699
17657
17298
16961
16316
15317
14155
13092
12426
11793
11443
11222
11184
11155
11303
11282
11201
11499
11805
11844
11852
11720
11817
11991
12062
12028
12027
12088
11964
11913
11875
11968
11967
11875
11910
12244
12659
13071
13175
13124
13118
13008
12749
12782
12599
12433
12458
12256
12077
13911
18524
24287
24486
11255
7758
9682
11039
12177
13041
13288
13326
13516
13853
13926
14005
14233
14424
14537
14701
15233
15575
16067
16611
17052
17370
17648
17763
17689
17442
17127
16425
15366
14149
13092
12163
11590
11328
11169
11046
11037
11138
11205
11392
11352
11395
11498
11592
11594
11712
11788
11867
11870
11863
11829
11855
11836
11865
11823
11764
11738
12116
12552
12671
12864
12848
12886
12741
12596
12296
12270
12244
12253
12026
11900
14545
19138
24702
22047
8801
8001
9801
10832
11970
12913
13237
13356
13637
13630
13907
14144
14195
14427
14704
15008
15371
15619
15995
16555
17105
17419
17774
17839
17667
17456
16791
16042
14952
13796
12756
11973
11508
11194
10986
10982
10915
11031
11308
11362
11328
11536
11552
11706
11735
11733
11777
11864
12095
12060
11981
11934
12034
11767
11963
12110
12222
12520
12882
13049
13053
13177
12916
12624
12365
12482
12527
12580
12259
11919
13617
17956
23809
24547
11268
7849
9562
10783
12061
12808
13098
13324
13430
13535
13756
13853
14141
14253
14593
14860
15242
15503
15968
16477
17069
17314
17652
17745
17719
17398
17112
16483
15426
14210
13067
12166
11479
11082
10989
11025
11025
10961
11012
11310
11365
11428
11536
11577
11695
11930
11828
11802
11840
11925
11896
11888
11950
12025
11835
11690
11891
12161
12549
12892
13069
12986
12907
12925
12737
12542
12324
12372
12409
12306
11782
12633
16464
21911
25780
15420
7272
9102
10404
11797
12536
12907
13212
13386
13550
13721
13860
14041
14331
14483
14715
15089
15573
15868
16220
16724
17261
17645
17815
17740
17632
17125
16551
15679
14625
13457
12439
11753
11396
11199
10959
11100
11153
11199
11121
11409
11475
11623
11594
11601
11701
11733
11676
11732
11749
11835
11740
11781
11925
11928
11987
11932
11890
11784
12211
12576
13058
13184
12970
12873
12798
12637
12384
12322
12371
12422
12171
11771
13430
17840
23662
24497
11291
7424
9511
11019
12079
12803
13036
13365
13606
13701
13893
14256
14357
14429
14529
14879
15114
15619
16181
16506
16932
17504
17838
17959
17853
17601
17190
16477
15532
14540
13432
12346
11850
11430
11236
11099
11072
11174
11251
11448
11577
11610
11459
11595
11775
11899
11807
11793
11756
11847
11830
11848
11795
11907
11901
11971
12010
12000
11859
12151
12775
13046
13278
13222
13096
12802
12752
12482
12388
12404
12537
12142
12007
14203
18862
24641
23357
9829
8074
9714
10965
12140
12865
13254
13430
13606
13695
13908
14034
14299
14403
14670
14795
15221
15681
16166
16648
17107
17384
17686
17752
17698
17453
16887
16187
15358
14335
13094
12245
11630
11227
11069
10999
10958
11078
11078
11346
11435
11590
11667
11689
11774
11725
11663
11712
11744
11744
11901
11907
11879
11826
11901
11910
11873
11762
12074
12667
13021
13165
13056
12960
12814
12804
12559
12265
12190
12426
12249
11952
12809
16882
22435
25537
14374
7352
9331
10991
12162
12908
13101
13326
13578
13717
13822
14059
14088
14266
14594
14823
15238
15534
15995
16403
16883
17337
17634
17691
17676
17611
17331
16641
15583
14470
13280
12398
11758
11296
10939
11006
10949
11123
11290
11408
11370
11535
11636
11657
11674
11762
11812
11702
11748
11842
11906
11877
11885
11780
11988
11992
11898
11978
12380
12721
13028
13147
13183
13112
12974
12786
12553
12407
12459
12472
12278
12000
13681
18169
24127
23929
7783
8729
10080
11495
12373
13024
13238
13392
13487
13595
13784
13999
14113
14337
14595
14916
15247
15527
15975
16518
16996
17281
17645
17739
17701
17416
17090
16292
15387
14337
13223
12364
11758
11314
10955
10930
11074
11214
11248
11360
11600
11544
11599
11774
11849
11858
11778
11723
11813
11840
11864
11883
11752
11830
12056
11935
11665
11673
12290
12670
13092
13192
13124
13035
13001
12714
12530
12351
12326
12329
12035
11808
13453
18175
25788
20020
7722
8532
10005
11403
12404
13084
13308
13474
13618
13783
13856
13996
14207
14512
14606
14925
15237
15630
16098
16545
17005
17416
17729
17851
17796
17417
17006
16424
15582
14413
13307
12403
11756
11388
11269
11150
10951
10927
11202
11395
11382
11579
11705
11782
11732
11694
11727
11870
11859
11827
11685
11769
11824
11859
11756
11865
12108
12393
12789
12967
12995
12938
12822
12569
12473
12145
12188
12212
12104
11791
13150
18772
24666
22806
9124
7833
9621
