11411
17119
22730
23780
11607
7327
9615
10674
11855
12658
12995
13145
13234
13334
13676
13834
14018
14042
14365
14615
15001
15334
15765
16215
16567
16912
17191
17377
17319
17142
16642
16016
15305
14344
13243
12349
11751
11271
11047
11132
11102
11258
11287
11523
11577
11628
11702
11720
11746
11859
12009
11984
11871
11624
11622
11870
12477
12811
12839
12769
12761
12650
12420
12110
12029
12140
12068
11862
11648
14235
19017
24611
21439
8588
8936
9898
11211
12262
12787
12982
13098
13301
13537
13763
13804
14066
14191
14436
14674
15026
15372
15833
16338
16734
17033
17179
17201
17070
16786
16226
15349
14299
13349
12138
11575
11375
11200
10989
10947
11119
11228
11343
11499
11559
11580
11741
11886
11893
11791
11859
11939
11928
11877
11969
11822
11791
11831
12293
12835
13096
13070
12989
12830
12606
12412
12173
12116
12210
12135
11605
12716
16611
22283
25553
14543
7211
9110
10223
11909
12807
13173
13342
13506
13678
13860
13934
14121
14353
14483
14835
15188
15518
15990
16362
16727
17231
17458
17514
17537
17389
16984
16335
15322
14220
13228
12397
11792
11396
11295
11152
11178
11287
11491
11551
11657
11713
11863
11941
11971
11994
11900
11899
11910
12067
12169
12153
12146
12044
12111
12132
11981
11916
12132
12735
13070
13366
13276
13115
12887
12761
12538
12438
12408
12573
12265
11966
14319
18960
25094
22695
9200
8917
10164
11488
12467
13122
13384
13535
13680
13630
13822
14021
14271
14391
14649
14910
15136
15359
15929
16624
17021
17413
17610
17710
17556
17302
16739
15986
14983
13941
12874
12061
11547
11346
11208
10998
11128
11330
11428
11389
11522
11615
11687
11729
11618
11717
11879
11751
11776
11828
11852
11898
11874
11828
11903
11939
12071
11988
11909
11824
12131
12665
12983
13200
13137
13140
12966
12814
12542
12416
12376
12405
12033
11965
16203
21718
25876
16362
7385
8983
10151
11542
12475
13043
13377
13670
13771
13898
14016
14059
14255
14466
14798
15085
15381
15699
16225
16749
17261
17629
17666
17711
17725
17408
16876
16229
15245
14052
12975
12210
11631
11350
11155
11121
11161
11236
11441
11495
11494
11661
11720
11800
11811
11665
11889
11990
11968
11939
11984
11936
11993
12057
12082
11981
12068
12002
11852
12049
12628
12916
13194
13311
13294
13200
12946
12822
12589
12634
12634
12263
12040
14395
19176
25234
23141
9502
8215
9967
11236
12363
12959
13189
13432
13611
13827
13913
14126
14272
14470
14738
14943
15167
15534
15928
16349
16892
17374
17500
17646
17736
17503
17054
16421
15529
14432
13321
12325
11550
11131
10958
10860
10911
10987
11293
11255
11267
11329
11571
11611
11691
11710
11833
11873
11893
11768
11640
11850
11902
11893
11824
11776
11666
11912
12329
12721
12986
13054
12963
12885
12692
12464
12211
12315
12267
11939
11780
14146
18733
24469
22696
9404
8097
9725
10724
11971
12781
13009
13315
13578
13718
13855
13993
14010
14237
14479
14766
15121
15478
15840
16338
16939
17298
17622
17727
17712
17395
17139
16428
15543
14316
13167
12371
11742
11235
11040
10974
10981
11031
11105
11268
11229
11513
11664
11777
11725
11852
11796
11971
11980
11949
11867
11777
11760
11883
11850
11690
11986
12445
12834
13199
13153
12872
12817
12726
12407
12106
12057
11931
11447
11892
15167
20331
25831
19642
7802
8751
10048
11328
12221
12917
13125
13269
13404
13680
13834
14092
14156
14447
14626
14906
15143
15467
15984
16541
17082
17361
17556
17654
17609
17419
16932
16104
15128
13849
12773
12033
11621
11208
10989
11033
11141
11162
11242
11309
11429
11521
11533
11576
11692
11812
11720
11839
11912
11929
11941
11934
11915
11999
11809
11779
11872
12330
12686
13052
13196
13039
12966
12850
12605
12373
12358
12393
12226
11818
13365
17553
23429
24707
11911
7709
9613
10889
12022
12794
13219
13458
13713
13809
13879
13980
14212
14460
14661
14878
15023
15353
15760
16311
16736
17232
17538
17754
17725
17651
17320
16776
15840
14739
13641
12651
11919
11383
11183
11141
11138
11156
11327
11432
11590
11637
11731
11733
11811
11789
11832
11783
11766
11757
11746
11830
11884
11835
11704
11838
12033
12377
12681
12983
13003
13034
12915
12800
12486
12361
12273
12253
11993
11840
13901
18415
24319
23853
10305
7911
9891
11115
12070
12818
13084
13340
13483
13577
13799
14020
14167
14341
14689
14879
15077
15353
15849
16327
16905
17323
17575
17745
17679
17520
17110
16523
15685
14705
13418
12499
11856
11393
10993
11034
11102
11177
11219
11158
11256
11404
11520
11606
11666
11620
11720
11733
11781
11771
11842
11795
11734
11806
11843
12094
12539
12746
12920
12911
12800
12670
12457
12242
12284
12293
12166
11720
12634
16458
21888
25735
15714
7129
8996
10261
11630
12540
12883
13086
13256
13474
13660
13806
13916
14107
14390
14584
14693
15136
15643
15960
16465
16980
17313
17405
17444
17263
16978
16536
15714
14725
13540
12599
11923
11310
11052
11058
10942
10956
11058
11258
11251
11377
11503
11680
11728
11699
11757
11767
11806
11831
11907
11830
11793
11696
11966
12454
12775
12937
12943
12745
12686
12455
12338
12170
12153
12060
11658
12339
16106
21451
25596
16168
7432
9163
10283
11540
12447
12885
13038
13213
13386
13641
13837
14050
14151
14348
14510
14792
15136
15607
16090
16580
16896
17319
17514
17406
17163
16969
16518
15657
14605
13510
12577
11917
11488
11191
11112
10994
11079
11241
11226
11495
11653
11676
11642
11713
11716
11855
11930
11953
11979
12074
11931
11782
11804
12205
12554
12795
12959
13045
12982
12744
12587
12494
12313
12312
12213
11872
12291
15496
20583
25748
18532
7628
8999
10141
11425
12408
12967
13148
13327
13520
13783
13809
13934
14047
14271
14587
14834
15163
15556
16018
16499
16922
17334
17615
17574
17404
17179
16810
15910
14961
13881
12867
12041
11517
11186
11109
11077
11224
11291
11352
11588
11667
11637
11692
11810
11798
11855
11882
12008
11888
11837
11858
11839
11825
11837
12159
12557
12906
13058
13037
12917
12724
12467
12379
12248
12192
12148
12014
11907
14410
21412
25863
16811
7388
8998
10429
11702
12554
12859
13046
13284
13503
13696
13831
14035
14199
14400
14508
14851
15213
15598
15878
16377
16836
17198
17443
17425
17261
17056
16516
15825
14747
13799
12925
12103
11561
11184
11182
11168
11195
11242
11333
11482
11592
11659
11783
11841
11770
11762
11783
11942
11882
11792
11938
11912
11755
11654
12096
12575
12800
12993
13019
13052
12823
12626
12384
12322
12315
12393
11922
11760
14456
19323
25908
16948
7250
8805
10231
11636
12462
12882
13214
13360
13529
13755
13850
13967
14165
14427
14666
14901
15286
15601
15991
16479
16807
17272
17422
17584
17419
17044
16550
15834
14759
13681
12765
12153
11698
11195
11050
10977
11113
11230
11282
11428
11650
11741
11718
11611
11706
11724
11851
11831
11835
11879
11845
11815
11686
11713
12170
12626
13016
12821
12868
12835
12576
12489
12216
12263
12066
11962
11625
12875
16765
22386
25154
9076
8113
9710
11004
11970
12628
12948
13009
13336
13562
13738
13805
13798
14058
14316
14728
14948
15349
15795
16206
16468
16962
17154
17446
17187
16901
16568
15977
15107
14060
12837
11933
11443
11116
10975
10705
10917
11182
11340
11356
11522
11629
11769
11675
11714
11733
11790
11813
11719
11879
11874
11905
11790
11818
12286
12667
12888
12973
12869
12857
12691
12499
12227
12198
12383
12402
12062
11956
14806
19657
25418
20899
8289
8590
10409
11700
12588
12953
13232
13382
13514
13770
13906
13891
13989
14311
14624
14894
15339
15723
16147
16531
16995
17389
17512
17440
17183
16851
16426
15565
14547
13653
12658
11950
11406
11170
11032
10952
11039
11109
11156
11360
11638
11860
11865
11869
12040
11963
11824
11751
11790
11852
11923
12000
11948
11775
12114
12460
12743
13033
13096
13063
12925
12770
12718
12455
12286
12392
12376
11985
12428
15841
21024
25968
17990
7488
9068
10259
12045
12846
13047
13291
13517
13649
13850
14012
14126
14308
14438
14755
15204
15393
15767
16158
16654
17060
17442
17547
17493
17318
17001
16491
15653
14591
13552
12602
11938
11511
11250
11091
11095
11213
11272
11423
11487
11589
11591
11705
11695
11789
11792
11830
11816
11920
11892
11799
11952
12069
11965
11784
11956
12337
12898
13202
13220
13081
12876
12524
12350
12215
12261
12390
12419
12069
12607
15983
21202
25886
17633
7455
8894
10962
11987
12766
13051
13339
13489
13789
13850
13935
14128
14395
14516
14718
14980
15419
15886
16331
16720
17300
17549
17579
17517
17352
17138
16564
15733
14726
13721
12695
12000
11484
11267
10964
11189
11375
11289
11390
11404
11548
11674
11706
11721
11842
11832
11797
11691
11745
11834
11894
11894
11853
11847
11763
12023
12477
12784
12981
13040
12986
12835
12585
12451
12270
12345
12206
12052
11844
13655
17893
23380
24603
11806
7577
9945
11169
12266
12823
13088
13267
13443
13568
13861
14021
14096
14287
14445
14777
14984
15476
15942
16360
16769
17217
17387
17427
17313
17149
16751
16088
15080
14004
13001
12178
11629
11255
11150
11007
11006
11039
11245
11323
11547
11558
11631
11670
11699
11747
11935
11926
11718
11738
11717
11788
11779
11832
11804
11912
12214
12722
12972
13080
12969
12930
12728
12584
12358
12229
12382
12339
11896
12419
15886
20992
25782
18103
7500
8936
10599
11743
12636
12976
13224
13301
13508
13736
13913
14092
14290
14468
14684
15037
15420
15890
16275
16537
16890
17307
17424
17517
17277
16932
16335
15556
14456
13391
12381
11749
11338
11095
10799
11052
11268
11289
11353
11426
11600
11669
11793
11816
11874
11742
11797
11859
11917
11965
11978
12005
12030
12042
11952
11786
11988
12412
12808
13109
13168
13156
13042
12848
12633
12503
12351
12448
12443
11933
12506
16017
21254
25948
17484
7667
9474
10926
12113
12820
13164
13366
13488
13662
13916
13987
14179
14299
14481
14676
15078
15464
15915
16389
16839
17313
17575
17619
17633
17520
17140
16539
15715
14683
13562
12606
11917
11502
11253
11116
11023
11139
11264
11386
11381
11464
11588
11716
11844
11932
11918
11787
11801
11785
11844
11823
11785
11811
11929
11997
12003
11814
11856
12243
12767
13081
13210
13114
13121
12983
12788
12642
12503
12521
12566
12277
11943
13927
18430
25801
19778
7613
8351
10099
11568
12477
13035
13296
13389
13629
13802
13874
13988
14177
14438
14530
14805
15161
15574
15945
16493
16851
17272
17474
17620
17570
17364
16958
16279
15369
14288
13195
12336
11727
11358
11088
10930
11058
11099
11228
11319
11431
11515
11709
11752
11781
11797
11783
11813
11748
11783
11819
11843
11816
11878
11900
12075
12014
12026
11896
12172
12665
13095
13254
13201
13117
13045
12791
12607
12479
12469
12510
12051
12008
14680
19527
25333
22319
8662
7825
9679
11331
12354
12961
13197
13379
13584
13789
13889
14034
14197
14428
14580
14839
15021
15558
16029
16458
16936
17343
17563
17684
17641
17411
17092
16406
15453
14372
13394
12451
11678
11250
11081
11054
11002
11102
11217
11280
11379
11605
11533
11637
11701
11761
11716
11711
11710
11859
11868
11930
11937
11867
11801
11776
11764
12063
12528
12858
13062
12990
13050
12797
12584
12328
12254
12227
12413
12138
12162
14762
19549
25014
21350
8442
8504
9929
11103
12153
12843
13138
13315
13502
13667
13859
13870
14090
14299
14587
14820
15151
15466
15907
16391
16944
17398
17702
17661
17525
17361
17042
16350
15265
14256
13116
12256
11612
11284
11077
10965
10914
11021
11117
11253
11427
11493
11638
11678
11723
11826
11843
11859
11936
11837
11939
11939
11998
11869
11810
11718
12076
12506
12799
13114
13069
13023
12912
12735
12554
12415
12390
12380
11974
11983
14805
19827
25465
21309
8267
8409
9838
11310
12278
12868
13033
13310
13488
13669
13781
13937
14107
14286
14563
14885
15251
15509
16057
16470
16964
17257
17591
17571
17584
17394
17026
16282
15290
14151
13114
12247
11590
11221
11090
11063
11074
11235
11315
11477
11433
11603
11667
11747
11765
11820
11824
11904
11978
11873
11944
11915
11883
11946
11920
11874
11852
12199
12530
12808
13141
13077
13101
13009
12854
12714
12460
12415
12448
12162
12068
14284
18876
24798
23244
9435
7756
9658
11159
12172
12759
13201
13410
13572
13625
13679
13826
14113
14275
14571
14743
15024
15342
15831
16312
16841
17239
17508
17614
17567
17356
17012
16430
15495
14468
13299
12332
11693
11395
11049
10966
11039
11025
11089
11293
11445
11466
11563
11533
11618
11678
11738
11768
11780
11680
11716
11720
11793
11826
11834
11782
11874
12244
12617
12901
12967
12931
12926
12795
12546
12346
12331
12364
12220
11862
12497
16144
21695
25989
17173
7388
8840
10403
11851
12616
12995
13232
13422
13553
13749
13986
14180
14285
14447
14665
15059
15371
15717
16140
16646
17086
17497
17663
17737
17617
17283
16757
15968
15021
13955
12930
12136
11587
11210
11023
10954
11092
11060
11275
11401
11448
11473
11605
11762
11812
11842
11851
11817
11754
11769
11747
11887
11827
11766
11812
11985
12326
12707
12993
13111
12926
12800
12595
12457
12291
12275
12287
12117
11661
13293
17815
23381
24942
12269
7507
9405
10534
11843
12642
12980
13287
13395
13542
13657
13950
14080
14250
14400
14611
14968
15408
15823
16209
16672
17147
17480
17522
17575
17302
17008
16454
15552
14459
13396
12452
11795
11335
11099
10917
10847
10957
11087
11215
11316
11421
11545
11752
11814
11931
11894
11874
11814
11923
11861
11856
11972
11907
11860
11876
12200
12594
12840
12941
13016
12890
12705
12453
12268
12244
12211
12100
11652
12675
16770
22478
25724
14704
7536
9286
10380
11568
12573
12923
13214
13430
13515
13625
13761
14040
14328
14512
14665
15007
15289
15771
16213
16604
17045
17473
17623
17608
17496
17156
16487
15705
14675
13478
12491
11807
11378
11106
11001
11034
11201
11288
11387
11401
11480
11643
11729
11772
11780
11830
11923
11895
11866
11961
12023
12020
12040
12159
12096
12040
11861
12197
12729
13099
13165
13094
13131
12905
12768
12499
12367
12416
12402
12074
12376
15546
20722
25961
19630
7804
8901
10336
11765
12575
13084
13292
13529
13617
13821
13941
14107
14199
14383
14606
14911
15231
15646
16085
16494
17079
17499
17730
17769
17626
17351
17057
16274
15290
14178
12981
12069
11541
11238
11154
11142
11106
11259
11386
11609
11627
11617
11571
11761
11886
11984
11965
11901
11948
12072
11945
11949
11933
11946
11910
11993
12070
11922
12105
12567
13073
13271
13269
13238
13145
12901
12703
12511
12505
12409
12264
11871
13273
17362
22983
25525
13613
7411
9334
10859
12100
12847
13161
13279
13441
13740
13810
14022
14073
14283
14581
14799
15063
15429
15753
16115
16615
17145
17473
17618
17666
17623
17414
16825
16005
14893
13840
12753
12033
11579
11262
11052
11079
11138
11255
11404
11534
11611
11612
11684
11723
11897
11836
11885
11809
11859
11803
11777
11804
11938
11894
11901
11890
12075
11994
11944
12199
12776
13081
13240
13216
13205
13131
12849
12695
12551
12489
12487
12335
11838
13013
16980
22620
25799
15147
7211
9233
10553
11890
12698
13007
13224
13392
13586
13684
13898
14032
14256
14444
14726
14932
15243
15662
16140
16515
17075
17548
17786
17725
17590
17323
16804
16022
14998
13912
12759
11987
11383
11101
10917
10905
10878
10977
11055
11196
11274
11437
11498
11571
11731
11713
11831
11887
11888
11810
11809
11794
11837
11811
11938
11965
11879
11677
11970
12441
12822
13072
13069
12945
12935
12700
12541
12363
12310
12358
12163
11711
12834
16887
22725
25673
14580
7511
9320
10349
11720
12659
13015
13253
13387
13600
13785
13899
14134
14304
14470
14615
14977
15308
15738
16143
16655
17064
17486
17735
17745
17685
17406
16849
15936
14833
13697
12619
11811
11477
11210
11053
10951
11088
11115
11291
11325
11467
11475
11575
11754
11854
11767
11751
11777
11930
12008
12002
11929
11862
11942
12107
12055
11983
11828
12249
12897
13118
13052
12973
12935
12797
12649
12400
12340
12401
12452
12163
11835
13912
18574
24753
23729
9994
7936
9733
10998
12031
12753
13182
13366
13472
13475
13802
14032
14157
14288
14550
14843
15124
15471
15837
16378
16864
17323
17675
17936
17851
17645
17224
16602
15610
14486
13415
12568
11798
11279
10980
10976
11067
11036
11122
11114
11304
11410
11505
11612
11728
11692
11709
11783
11787
11754
11802
11771
11803
11792
11960
12052
12058
11955
12083
12520
12943
13187
13109
12994
12939
12913
12678
12407
12381
12563
12483
12087
12194
15060
19959
25682
21499
8430
8302
9993
11412
12416
13003
13148
13458
13665
13808
13888
13994
14049
14281
14540
14912
15187
15562
15992
16538
17054
17484
17704
17783
17751
17583
17203
16478
15506
14383
13284
12309
11740
11293
11125
11033
11009
11041
11185
11284
11267
11370
11528
11649
11806
11858
11915
11974
11889
11887
11742
11771
11766
11805
11905
11968
12141
12223
12117
12025
12300
12745
13080
13216
13191
13058
12984
12816
12722
12670
12609
12607
12373
11973
13771
18154
24092
24723
11660
7493
9496
10804
12029
12848
13293
13507
13576
13759
13913
14064
14263
14426
14547
14783
14976
15377
15831
16385
16849
17284
17609
17903
17905
17749
17462
16902
15903
14800
13790
12747
11961
11478
11237
11055
11069
11025
11088
11193
11291
11371
11553
11584
11571
11689
11818
11884
11773
11748
11863
11933
11905
11840
11843
12014
11999
11878
11805
12246
12660
13050
13048
12968
12874
12739
12575
12490
12413
12443
12531
12153
12192
14818
19621
25218
21424
8453
8458
9805
11019
12170
12943
13206
13430
13523
13738
13832
13991
14160
14262
14474
14806
15094
15497
15971
16390
16839
17362
17712
17777
17700
17404
17011
16436
15406
14298
13111
12143
11505
11269
11182
11085
11103
11164
11206
11291
11412
11551
11571
11600
11585
11694
11888
11894
11775
11886
11800
11810
11854
12011
12064
11978
11828
11883
12383
12900
13119
13055
13074
13020
12903
12773
12457
12379
12424
12326
11873
12318
15890
21458
26020
17712
7505
8997
10158
11416
12231
12943
13373
13583
13625
13777
13995
14002
13955
14289
14668
14928
15274
15637
16099
16649
17087
17308
17712
17875
17769
17440
17100
16228
15114
14017
12959
12026
11540
11031
10821
10838
11024
11125
11297
11394
11437
11493
11642
11679
11741
11770
11821
11731
11680
11842
11869
11839
11830
12051
12041
12048
11955
12181
12605
12928
13090
13052
13000
12968
12725
12460
12367
12278
12267
12281
11989
13022
16925
22545
25700
14610
7181
9095
10635
11912
12678
13051
13332
13453
13687
13761
13905
14106
14221
14364
14612
14905
15247
15738
16196
16641
17141
17422
17636
17742
17621
17348
16865
16129
15028
13993
12685
11911
11415
11096
11035
11037
11137
11285
11401
11429
11499
11555
11706
11764
11865
11830
11884
11859
11809
11754
11797
11926
12011
12097
11971
11835
11870
12358
12820
13106
13075
12948
12975
12826
12680
12412
12257
12344
12452
12125
11940
14497
19345
25090
22529
9006
7858
9831
11270
12137
12811
13161
13282
13432
13700
13916
14056
14230
14444
14593
14975
15288
15585
16065
16455
16932
17348
17691
17766
17786
17526
17188
16471
15653
14188
13156
12251
11638
11316
11126
11012
11081
11116
11187
11318
11442
11454
11572
11726
11820
11805
11815
11896
11841
11790
11718
11794
11800
11760
11739
11852
12200
12572
12891
13014
12968
12726
12512
12355
12280
12195
12326
12439
12197
11782
13858
18391
23826
23886
10806
7766
9758
10806
11977
12695
13060
13207
13235
13492
13709
13941
13958
14215
14303
14670
14979
15273
15731
16305
16768
17098
17414
17653
17644
17442
17185
16503
15373
14081
12981
12249
11669
11342
11185
11007
10969
11033
11180
11301
11473
11579
11678
11752
11897
11817
11994
11877
11696
11885
11819
11819
12049
11984
11817
11780
12182
12669
12919
13013
12916
12901
12691
12581
12406
12315
12386
12298
12143
11730
13270
17504
23483
24975
12614
7812
9426
10639
11906
12465
12925
13190
13341
13484
13906
13888
13864
14205
14216
14417
14891
15391
15737
16193
16618
17232
17404
17668
17610
17369
17041
16480
15344
14173
13119
12327
11624
11208
11055
11122
11053
11042
11274
11540
11627
11598
11786
11773
11810
11789
11823
11796
11914
11934
11969
12075
11945
11979
11964
11963
11973
11927
12249
12766
12996
13032
13009
13007
12859
12685
12450
12453
12448
12519
12203
11720
13609
17944
23687
24683
11789
7662
9656
11124
12204
12773
13077
13232
13498
13589
13726
13888
14090
14238
14374
14490
14886
15164
15628
16231
16776
17242
17539
17698
17557
17388
16982
16254
15393
14548
13386
12435
11648
11315
11135
11121
11084
11102
11257
11342
11416
11632
11653
11730
11752
11746
11776
11823
11875
11840
11905
11829
11848
11973
12047
12051
12172
12185
11983
11963
12442
12970
13283
13241
13220
13177
12851
12821
12593
12506
12547
12584
12210
12534
15674
20838
25970
19397
7938
8817
10428
11760
12688
13156
13340
13451
13633
13733
13867
13991
14287
14481
14782
14997
15381
15633
16081
16532
17075
17531
17714
17742
17611
17289
16821
16145
14987
13973
12873
12173
11601
11247
11092
11154
11078
11198
11272
11329
11322
11533
11624
11716
11785
11713
11690
11822
11789
11731
11823
11841
11926
11848
11950
11850
11863
11711
12162
12713
12981
12942
13007
12965
12693
12495
12383
12328
12259
12346
11961
11790
13763
18134
23798
23891
10774
7974
9742
10958
12000
12712
13010
13281
13370
13478
13658
13802
14108
14272
14555
14859
15190
15398
15996
16457
16914
17337
17631
17567
17532
17295
16925
16212
15248
14106
13143
12342
11771
11275
10999
11081
11132
11125
11248
11417
11511
11620
11623
11634
11600
11849
11878
11942
11905
11990
11944
11888
11900
11766
11890
12065
12195
11944
11842
11982
12520
12940
13189
13148
13128
13096
12902
12707
12550
12465
12503
12518
12132
11933
14555
19429
25391
21774
8859
8571
10056
11602
12489
12952
13222
13430
13581
13583
13822
14130
14220
14487
14736
14991
15233
15615
16070
16458
17040
17507
17694
17680
17708
17403
16964
16279
15214
14293
13278
12202
11541
11284
11202
11115
11081
11281
11360
11381
11559
11612
11699
11756
11808
11795
11814
12050
12000
12051
11881
11965
11969
12057
12121
12155
11991
12014
12206
12205
12085
11945
12328
12797
13211
13286
13303
13235
13123
12913
12768
12514
12525
12574
12429
12119
13357
17253
23286
25454
13624
7426
9350
11113
12201
12935
13208
13536
13611
13869
14081
14145
14180
14411
14738
14946
15122
15618
16036
16391
16858
17365
17632
17726
17777
17582
17346
16807
15948
14948
13946
12932
12186
11611
11317
11159
11155
11207
11292
11372
11481
11584
11619
11760
11654
11665
11837
11958
11910
11785
11730
11931
11917
11836
11788
11855
11887
11962
12030
12137
12017
12004
12074
12458
13033
13218
13250
13182
13110
12812
12743
12679
12538
12281
12304
11970
12257
15147
20112
25633
14860
7326
9275
10819
12085
12746
13090
13192
13374
13637
13766
13971
14113
14313
14431
14765
14979
15285
15728
16148
16576
17024
17388
17601
17688
17577
17440
16933
16118
15180
14178
13102
12081
11509
11260
11108
10969
10874
11047
11148
11312
11348
11520
11506
11535
11582
11641
11696
11718
11782
11821
11788
11821
12007
11973
11826
11862
11799
11803
11915
12105
12386
12789
13098
13068
12956
12919
12619
12480
12303
12303
12356
12350
11824
13921
18162
23896
23920
10918
8037
9947
10965
12077
12724
13023
13165
13429
13589
13888
14072
14186
14444
14556
14747
15037
15385
15759
16408
16867
17262
17631
17775
17660
17572
17091
16556
15802
14775
13583
12799
11944
11129
11230
11140
11035
11228
11164
11186
11453
11285
11471
11657
11703
11776
11781
11811
11864
12048
11947
11861
11796
11924
11878
11916
11976
12059
11909
12230
12796
13287
13296
13187
12909
12874
12808
12638
12527
12491
12333
12034
12038
14536
19042
25147
22175
8996
8317
9825
11336
12367
12963
13133
13323
13339
13560
13921
14072
14102
14238
14374
14744
14996
15299
15804
16305
16811
17204
17498
17653
17735
17367
16810
16262
15483
14431
13385
12474
11724
11351
11178
11072
11190
11169
11205
11271
11388
11542
11597
11649
11691
11765
11723
11822
11896
11932
11915
11897
11831
11844
11912
11832
11790
11869
12264
12723
13052
13112
13106
13054
12905
12653
12448
12235
12466
12443
12090
12199
15266
20161
25616
19788
7677
8409
10381
11809
12479
12902
13131
13425
13485
13696
13854
13996
14134
14390
14562
14859
15168
15567
15961
16448
16901
17237
17561
17745
17694
17365
17062
16409
15464
14360
13342
12451
11781
11258
11115
11094
11197
11325
11404
11431
11469
11566
11628
11704
11851
11875
11783
11883
11830
11811
11748
11773
11849
11918
11803
11819
11907
12181
12516
12955
13251
13218
13117
12922
12722
12478
12354
12397
12480
12040
12036
14439
19351
24999
22008
8710
7977
10048
11637
12420
12964
13234
13412
13602
13770
13856
14037
14190
14267
14566
14820
15190
15467
15868
16306
16852
17324
17707
17603
17580
17403
17059
16335
15512
14599
13480
12495
11870
11454
11112
10997
10941
11119
11243
11380
11425
11485
11495
11721
11738
11657
11728
11746
11576
11692
11854
11908
11846
11748
11656
11720
12167
12532
12761
12827
12840
12688
12515
12420
12267
12266
12273
12196
11831
12299
15545
20475
25606
18761
7529
8790
10104
11369
12343
13032
13098
13276
13317
13572
13815
14093
14132
14259
14577
14851
15097
15520
15805
16305
17000
17270
17488
17454
17405
17121
16798
16019
15030
14014
12900
12140
11686
11362
11111
11252
11241
11106
11122
11447
11597
11732
11755
11849
11860
11949
11929
11860
11860
12090
11911
11766
11834
11871
11799
11788
12090
12492
12841
12975
13062
13078
12814
12590
12428
12192
12171
12391
12511
11897
13441
17737
23855
24339
11059
7671
9688
11162
12093
12963
13172
13205
13369
13716
14064
14074
14280
14244
13967
14623
15119
15537
15728
16245
16457
17054
17391
17506
17509
17301
17029
16572
15661
14622
13618
12674
12032
11420
11084
11081
11221
11294
11377
11387
11581
11600
11695
11775
11748
11854
11751
11752
11811
11906
11704
11936
12093
12134
11992
11873
11659
11943
12355
12831
13154
13161
13048
12937
12787
12780
12340
12188
12199
12172
11774
12553
16073
21642
25756
16275
7043
8919
10771
11938
12648
12922
13123
13302
13560
13597
13697
14036
14206
14372
14695
14849
15100
15545
15845
16452
16776
17027
17297
17526
17372
17150
16723
15927
15088
14057
12975
12204
11443
11119
11177
11230
11243
11241
11400
11339
11518
11676
11725
11784
11795
11801
11762
11825
11929
11867
11902
11978
11811
11994
12002
11952
11741
12181
12665
12923
13054
13059
12906
12907
12783
12602
12346
12352
12398
12121
11923
14329
19062
24819
22335
9056
7847
9921
11538
12392
12900
13103
13344
13364
13649
13858
14015
14147
14338
14563
14768
15104
15534
15882
16420
16743
17011
17332
17419
17405
17234
16899
16195
15589
14510
13438
12532
11831
11301
11113
11007
10943
11004
11159
11282
11430
11586
11755
11766
11724
11772
11724
11645
11695
11708
11588
11660
11903
11966
11752
11769
12216
12610
12848
12928
12879
12795
12451
12349
12294
12347
12358
12334
12030
12113
15067
19829
25341
20415
7942
8442
9989
11446
12456
12895
13186
13327
13552
13806
13904
13952
14136
14317
14414
14699
15130
15570
15803
16349
16904
17297
17409
17477
17399
17218
16804
16104
15042
14123
13155
12329
11622
11185
11155
10994
11121
11166
11339
11410
11591
11538
11567
11699
11862
11730
11835
11902
11809
12004
11972
11816
11909
11883
11765
11911
12415
12759
13086
13247
13071
12862
12619
12640
12485
12457
12426
12454
12099
12215
14782
19494
25376
21625
8650
8578
10259
11657
12545
13089
13185
13132
13436
13782
13988
13968
14071
14329
14669
14936
15112
15441
15857
16370
16815
17255
17470
17713
17653
17363
16953
16265
15344
14267
13377
12523
11921
11463
11151
11127
11322
11350
11501
11597
11736
11739
11907
11905
11908
12012
12107
11911
12014
12039
12121
12060
11962
12144
12200
11994
12077
12423
12961
13237
13205
13065
12986
12836
12699
12457
12296
12489
12390
12005
12102
14824
19577
25332
21118
8312
8211
10294
11733
12565
13096
13215
13415
13460
13572
13768
14046
14287
14514
14627
14919
15239
15680
16062
16474
16995
17388
17338
17465
17617
17450
17053
16342
15499
14474
13435
12548
11830
11312
11221
11198
11145
11193
11401
11467
11628
11623
11700
11832
11858
11839
11875
11850
11881
11990
11985
11964
11992
11987
11972
11947
11833
11848
12241
12799
13120
13137
13037
13018
12792
12617
12340
12316
12392
12392
12183
12287
14866
19729
25394
21006
8072
7991
10121
11511
12271
12917
13225
13355
13453
13670
13899
14055
14171
14378
14519
14908
15274
15687
16082
16500
16975
17433
17519
17636
17432
17209
16846
16294
15481
14407
13299
12404
11801
11348
11126
10922
10997
11101
11313
11343
11443
11557
11649
11697
11708
11674
11799
11832
11868
11832
11598
11789
11845
11957
11901
11690
11894
12306
12736
13105
13144
12870
12753
12710
12496
12321
12223
12211
12128
11804
12559
16481
21794
25780
16403
7373
9262
10319
11676
12450
12797
13213
13495
13567
13655
13767
13892
14024
14316
14614
14911
15337
15754
16012
16402
16853
17235
17424
17396
17447
17203
16712
15818
14978
13840
12832
12095
11570
11275
11190
11061
11040
11210
11319
11493
11571
11636
11808
11892
11826
11889
11909
11851
12027
11977
11808
11887
11897
11935
12117
12071
11905
11977
12371
12945
13180
13175
13074
13022
12865
12748
12473
12407
12414
12393
12023
12169
15205
20193
25787
19899
7826
8596
10394
11696
12597
12963
13109
13377
13512
13752
13944
14049
14177
14437
14616
14916
15200
15486
15928
16444
16858
17280
17631
17595
17498
17224
16884
16187
15316
14157
13304
12361
11816
11382
11191
11103
11107
11090
11132
11303
11481
11622
11710
11764
11867
11838
11922
11845
11762
11876
11946
11895
11932
12020
12072
11950
11801
12023
12635
13067
13289
13245
13225
13059
12873
12734
12517
12352
12446
12422
12013
12966
16690
22237
25648
15191
7065
9061
10829
12101
12553
12976
13313
13474
13521
13681
13870
14088
14198
14447
14699
14910
15259
15641
16080
16470
16924
17353
17567
17498
17505
17250
16726
15961
15062
13932
12933
12174
11599
11263
11015
11070
11153
11182
11309
11507
11557
11655
11675
11787
11640
11865
11919
11929
11741
11877
11906
11911
11912
11859
11949
12052
11969
11824
11909
12437
12915
13106
13181
13135
13023
12728
12653
12428
12339
12261
12428
12119
12208
14877
19674
25324
21488
8251
7971
10124
11618
12472
12932
13202
13305
13521
13581
13761
13950
14183
14367
14546
14726
15082
15511
15878
16376
16899
17341
17529
17643
17506
17263
16964
16487
15532
14419
13420
12588
11746
11304
11086
10915
10959
11076
11189
11232
11339
11444
11536
11600
11764
11791
11808
11767
11940
11807
11862
11769
11837
11841
11940
11943
11850
11852
12329
12720
12977
13139
12977
13009
12955
12698
12388
12276
12260
12420
12201
12078
14159
18615
24367
23215
10035
8110
9862
11218
12266
12885
13009
13344
13539
13495
13716
13890
14125
14347
14638
14900
15110
15397
15901
16322
16791
17174
17422
17452
17558
17403
17036
16401
15601
14558
13440
12657
11939
11580
11191
11102
11194
11224
11316
11417
11479
11607
11730
11785
11896
12113
12041
11855
11870
11885
11941
11956
11952
11917
11893
11847
11970
12024
12510
12865
13276
13225
13236
13128
12810
12649
12457
12360
12342
12285
11972
12565
15726
20849
25784
18772
7476
8686
10414
11807
12660
13194
13173
13275
13497
13684
13841
14016
14198
14350
14707
14913
15253
15631
16056
16368
16887
17386
17643
17730
17710
17390
17013
16316
15330
14332
13225
12301
11713
11459
11178
11080
11084
11194
11416
11594
11610
11628
11658
11803
11843
11888
11830
11749
11833
11892
11912
11943
11952
11922
11878
11853
12048
12479
12770
12954
13003
12949
12928
12624
12393
12283
12379
12397
12422
12038
12636
16075
21283
25661
17650
6910
8366
10414
11700
12441
12856
13218
13317
13481
13643
13918
13996
14151
14352
14624
14907
15166
15616
16001
16476
17012
17449
17641
17675
17474
17256
16795
16132
15222
14190
13148
12280
11686
11362
11145
11280
11277
11256
11280
11389
11477
11591
11671
11773
11737
11845
11864
11847
11960
11820
11788
11810
12008
11860
11678
11734
12102
12517
12867
12978
12991
12931
12729
12590
12384
12205
12217
12292
12111
12054
14057
18601
24264
23676
10375
7323
9526
11032
12073
12733
13120
13275
13443
13487
13628
13811
13970
14080
14378
14630
14980
15370
15896
16299
16672
17032
16857
17102
17141
17139
16898
16352
15509
14442
13383
12408
11730
11135
10987
10819
10760
10968
11115
11255
11321
11478
11536
11612
11608
11704
11698
11663
11678
11731
11788
11819
11720
11706
11821
12089
12575
12829
12985
12998
12863
12504
12304
12131
12049
12008
12095
12019
11835
14020
18479
23997
23033
10037
7741
9602
10607
11763
12510
12882
13068
13324
13398
13664
13901
13903
14117
14344
14718
15050
15464
15778
16169
16586
17226
17394
17699
17676
17445
16997
16350
15414
14383
13254
12178
11533
11135
11071
11127
11166
11207
11222
11445
11416
11461
11567
11754
11901
11813
11860
11937
11972
11796
11965
11887
11875
11805
11852
12251
12589
12763
12911
12889
12734
12507
12414
12311
12136
12041
12057
11832
12143
15525
20639
25812
18955
7598
8659
9918
11362
12217
12749
12947
13257
13453
13743
13819
14030
14146
14298
14508
14858
15157
15494
16052
16554
17018
17398
17602
17629
17611
17395
16876
15964
14990
13805
12784
11968
11569
11287
11110
11130
11158
11221
11414
11423
11469
11578
11700
11732
11863
11808
11943
11882
11849
11871
11932
11988
12007
11967
11865
11807
12099
12593
12904
13134
13047
13019
12836
12645
12458
12315
12353
12411
12231
11801
13091
17188
23064
25487
13590
7436
9315
10635
12036
12754
13074
13214
13353
13611
13776
13844
14092
14311
14526
14658
14988
15377
15841
16387
16702
17216
17551
17805
17759
17573
17290
16750
15861
14822
13747
12763
11965
11446
11312
11218
11251
11322
11372
11481
11609
11692
11723
11750
11852
11921
11972
11960
11894
11803
11914
11941
11898
11813
11907
12019
12087
12209
12175
12055
12040
12355
12749
13101
13219
13317
13223
13090
12829
12670
12480
12507
12519
12330
11859
13435
17630
23520
25184
12839
7505
9461
11003
12135
12871
13160
13504
13660
13785
13854
14051
14269
14386
14615
14863
15089
15441
15875
16231
16837
17367
17625
17759
17760
17555
17357
16874
15735
14682
13649
12668
12022
11594
11332
11289
11302
11277
11333
11430
11516
11596
11703
11785
11760
11843
11786
11755
11715
11790
11725
11877
11949
11945
11887
11941
11984
11958
12106
12185
12278
12079
12058
12432
12911
13190
13286
13198
13191
13084
13004
12723
12617
12471
12480
12321
11820
13276
17607
23600
25056
12725
7426
9408
10799
12087
12677
13010
13264
13529
13615
13831
13873
14057
14378
14594
14782
15123
15451
15702
16201
16696
17386
17714
17813
17711
17457
17018
16402
15518
14621
13564
12542
11696
11235
11082
11074
11025
11181
11193
11232
11263
11331
11481
11512
11633
11704
11864
11740
11695
11638
11792
11635
11497
11674
11852
11896
11941
11906
11846
11893
11895
11887
11922
12428
12892
13244
13215
13091
13034
12979
12761
12540
12390
12438
12490
12200
11958
13761
18339
24164
24302
11440
8061
9876
11080
12225
12932
13257
13586
13632
13776
13974
14133
14159
14559
14778
15063
15273
15656
16069
16540
17049
17416
17834
17854
17724
17497
17007
16398
15601
14499
13366
12403
11784
11352
11194
11122
11186
11189
11355
11451
11527
11538
11654
11712
11836
12000
11994
11945
11908
11943
11983
12071
12079
12071
12075
12101
12046
12033
12132
12122
12255
12279
12071
11943
12446
12890
13276
13324
13335
13392
13313
12927
12743
12642
12708
12722
12503
12066
13735
18109
24168
24813
11866
8012
9799
11266
12305
13150
13333
13472
13637
13803
13985
14197
14322
14478
14660
14990
15343
15586
15904
16461
16935
17394
17679
17767
17749
17510
17172
16382
15542
14625
13612
12500
11755
11434
11370
11243
11313
11246
11308
11374
11448
11579
11642
11700
11770
11821
11744
11803
11740
11794
11863
11892
11852
11813
11877
12056
12032
11988
12034
12160
12210
12171
12100
12037
12442
12929
13305
13334
13324
13271
13206
12925
12789
12651
12645
12714
12462
12091
15211
20142
25819
20739
8346
8589
10478
11916
12725
13244
13445
13595
13674
13825
13931
14126
14290
14485
14715
15100
15396
15654
16041
16532
16948
17370
17699
17865
17836
17616
17324
16764
15842
14691
13543
12572
12013
11584
11309
11346
11464
11345
11367
11570
11777
11787
11771
11827
11792
11799
11896
11822
11885
12073
12090
12082
12064
12131
12072
12057
12098
12128
12126
12038
12049
12187
12675
13041
13423
13366
13284
13337
13294
12907
12687
12615
12662
12542
12092
12904
16740
22045
25839
16353
7423
9222
10721
11949
12787
13216
13364
13581
13683
13908
14117
14212
14356
14601
14840
15176
15435
15797
16159
16674
17211
17642
17869
17903
17793
17594
17134
16279
15306
14187
13155
12326
11705
11216
11054
10999
11150
11162
11214
11268
11399
11565
11602
11666
11668
11766
11788
11760
11692
11767
11766
11718
11704
11810
11810
11721
11678
11828
12132
12552
12842
13042
12966
12798
12445
12411
12360
12290
12276
12230
11813
12383
15895
21066
25790
18150
7618
9049
10155
11429
12414
13019
13306
13431
13542
13720
13834
13954
14134
14382
14484
14885
15124
15508
15927
16513
16993
17424
17674
17746
17624
17373
16911
16127
15089
13914
12835
11991
11442
11035
10908
10860
10783
10767
10963
11064
11117
11266
11366
11484
11610
11670
11677
11695
11667
11672
11664
11745
11851
11872
11714
11749
11914
12289
12625
12932
12856
12737
12527
12483
12257
12086
12124
12204
12020
12051
14133
18187
23088
22017
9795
7075
9571
10513
11776
12593
12929
13113
13355
13489
13681
13813
13983
14161
14355
14563
14836
15160
15479
15896
16423
16960
17191
17422
17347
17205
16790
16179
15197
14226
13249
12481
11769
11474
11306
11047
11028
11297
11466
11372
11339
11222
11324
11486
11743
11754
11915
11999
12003
11892
11849
11929
11891
11873
11980
11973
12145
12643
13003
13077
12895
12848
12677
12523
12242
12262
12317
12347
12129
12757
15531
19594
23452
17852
7705
8940
10709
11561
12334
12983
13276
13373
13580
13737
13886
14043
14220
14405
14618
14855
15188
15391
15753
16198
16534
16888
17177
17176
17147
16877
16327
15628
14716
13821
13059
12344
11903
11673
11443
11353
11418
11592
11689
11676
11797
11883
12100
12363
12283
12268
12133
12118
12220
12283
12191
12208
12364
12204
12130
12253
12520
12933
13113
13264
13143
13151
12997
12777
12632
12562
12376
12449
12360
12474
14796
18888
23555
20044
8621
8614
10633
11563
12261
13026
13485
13592
13704
13843
14005
14156
14372
14566
14824
14939
15252
15701
15998
16419
16886
17234
17315
17368
17330
17034
16598
15968
15065
14059
13148
12402
11899
11676
11533
11477
11538
11589
11697
11692
11673
11836
12019
11989
12054
12107
12175
12197
12180
12218
12330
12239
12219
12222
12229
12211
12091
12091
12711
13146
13338
13257
13222
13105
12878
12686
12530
12614
12614
12528
12147
12517
15642
20417
25209
18788
8145
9444
10632
11682
12547
13175
13374
13532
13720
13874
14070
14196
14333
14492
14737
15020
15342
15683
16097
16529
17037
17440
17739
17832
17737
17510
16959
16176
15163
14171
13157
12344
11796
11554
11425
11360
11365
11454
11532
11634
11758
11877
12030
12096
12235
12178
12040
12038
12101
12158
12244
12233
12242
12235
12329
12367
12431
12321
12179
12386
12873
13258
13449
13371
13385
13254
13107
12995
12845
12843
12859
12739
12206
12861
16366
21455
25731
17536
7916
9714
10820
11986
12780
13275
13506
13600
13817
14009
14180
14325
14490
14684
14882
15099
15442
15732
16148
16678
17198
17563
17816
17916
17775
17452
17025
16304
15345
14225
13187
12339
11740
11445
11286
11211
11157
11256
11312
11462
11564
11628
11732
11876
11920
11969
11959
11958
12020
11991
12025
12000
12055
12091
12095
12106
12125
12145
12282
12161
12052
12201
12726
13108
13314
13211
13169
13112
12938
12788
12579
12556
12620
12612
12231
12403
15299
20052
25166
20329
8345
8713
10375
11562
12408
13034
13275
13433
13602
13732
13881
14075
14293
14409
14669
14920
15229
15481
15880
16394
16819
17306
17672
17724
17694
17473
17144
16502
15587
14491
13444
12516
11851
11481
11235
11194
11090
11121
11248
11389
11426
11541
11607
11619
11658
11761
11802
11808
11884
11932
11951
11918
11827
11899
11951
11949
11982
12003
12064
11971
11996
12353
12842
13106
13068
12966
13034
12905
12779
12565
12465
12515
12540
12233
12061
14132
18392
23727
23343
11188
8052
10107
10899
12019
12664
13083
13328
13522
13685
13746
13977
14151
14313
14512
14712
15009
15399
15799
16251
16697
17207
17528
17731
17648
17500
17132
16605
15800
14698
13606
12648
11896
11489
11282
11175
11150
11079
11111
11305
11359
11497
11599
11681
11755
11793
11904
11851
11869
11889
11994
11986
11997
12064
12051
12065
12135
12051
11940
12154
12635
12993
13199
13196
13047
12951
12891
12720
12547
12588
12585
12510
12095
12549
15830
20661
24834
18082
8072
9567
10795
11548
12568
13084
13345
13565
13722
13859
14037
14174
14323
14501
14692
14979
15224
15602
16029
16572
17064
17464
17738
17905
17788
17595
17087
16271
15261
14162
13062
12331
11772
11406
11208
11199
11210
11234
11308
11435
11511
11606
11752
11878
12028
12078
12140
12118
12116
12092
12081
12102
12148
12178
12109
12005
11995
12275
12636
12909
13086
13076
13015
12970
12751
12671
12455
12507
12631
12567
12063
12226
15094
19776
24729
20487
9092
9228
10771
11380
12196
12773
13149
13330
13464
13593
13752
13871
14091
14292
14521
14794
15056
15397
15850
16162
16669
17140
17436
17634
17609
17367
16945
16222
15209
14170
13055
12218
11452
11206
11049
10980
10989
11098
11141
11278
11377
11491
11622
11765
11793
11888
11882
11892
11948
11962
11929
11979
12011
11919
11947
11996
12039
11937
12126
12541
12768
12859
12934
12968
12925
12670
12588
12500
12410
12417
12364
11984
12136
15016
19534
24428
20055
8890
9147
10825
11473
12285
12906
13150
13291
13425
13609
13756
13986
14129
14265
14388
14683
14980
15383
15690
16168
16620
17110
17442
17563
17485
17341
16995
16248
14920
13904
12925
12172
11690
11451
11269
11174
11274
11402
11498
11474
11534
11642
11756
11863
11931
11850
11898
11924
11952
11978
11932
11945
12002
12028
12060
12097
12039
11989
12139
12493
12883
13113
13049
12999
13000
12906
12752
12574
12486
12452
12521
12185
11938
14026
18195
23460
22528
10741
8376
10426
11239
12076
12769
13072
13278
13391
13538
13738
13873
13998
14236
14390
14617
14919
15194
15569
16041
16529
16975
17299
17507
17482
17356
16968
16172
15239
14160
13172
12284
11737
11453
11355
11296
11252
11260
11382
11520
11613
11671
11714
11787
11820
11930
11870
11887
11895
11977
11960
12034
12066
11998
12041
12061
12079
12146
12091
11970
12065
12546
13035
13189
13255
13081
13011
12907
12811
12636
12521
12515
12598
12257
11958
14040
18153
23584
22523
10639
8553
10538
11442
12243
12887
13160
13337
13528
13573
13695
13829
14033
14216
14380
14604
14840
15157
15525
16065
16511
16966
17246
17396
17428
17232
16901
16261
15264
14218
13277
12449
11854
11503
11329
11260
11236
11322
11437
11459
11546
11637
11725
11773
11825
11786
11826
11889
11933
11911
11931
11922
11998
11992
12019
12036
12089
12169
12125
12169
12160
12067
12064
12494
12893
13093
13092
13080
13027
12910
12754
12631
12575
12519
12545
12310
12011
13771
17731
23299
23446
11639
8602
10498
11346
12227
12930
13137
13339
13518
13709
13828
14036
14119
14389
14768
15033
15098
15437
15750
16111
16599
17005
17345
17501
17506
17375
17069
16394
15518
14525
13551
12621
11956
11565
11392
11280
11259
11327
11415
11484
11628
11732
11754
11807
11814
11896
11941
11926
11828
11825
11894
11971
11947
11914
11952
12019
12052
12075
12138
12245
12288
12205
12091
12271
12767
13073
13239
13197
13198
13128
12996
12805
12635
12521
12569
12587
12203
12184
14865
19390
24856
20401
8843
9153
10587
11927
12746
13102
13197
13391
13673
13925
13911
14099
14203
14526
14726
14883
15073
15472
15831
16343
16773
17320
17742
17841
17759
17509
17116
16414
15531
14340
13250
12304
11786
11540
11345
11264
11244
11392
11526
11601
11682
11791
11849
11827
11809
11897
11869
11896
11886
11892
11888
11974
12027
12058
12048
12109
12184
12209
12254
12269
12192
12052
12381
12851
13259
13353
13329
13286
13186
12912
12783
12498
12490
12560
12509
12035
13215
17089
22578
24457
13170
7990
9774
10971
12137
12885
13273
13355
13315
13471
13739
13920
13989
14232
14393
14596
14885
15215
15542
15917
16402
16901
17310
17622
17646
17492
17301
16801
16082
15113
14128
12999
12171
11647
11351
11204
11280
11139
11229
11413
11633
11654
11663
11709
11667
11719
11802
12039
11884
11768
11783
11811
11762
11823
11890
11891
11911
12068
11999
11873
11924
12327
12667
12923
13174
13117
13036
12854
12689
12458
12447
12528
12518
12121
11795
13561
17892
23635
22978
10571
8442
10107
11126
12055
12660
12965
13114
13376
13505
13660
13799
14026
14249
14483
14725
15040
15218
15647
16221
16626
16870
17327
17577
17496
17323
17043
16498
15675
14626
13514
12822
12231
11419
11143
11076
11026
11104
11148
11271
11354
11410
11481
11587
11708
11708
11736
12124
12366
12217
12014
11954
11894
11875
11922
11899
11838
11786
11928
12250
12601
12819
12880
12879
12810
12644
12444
12307
12306
12314
12186
11827
12971
16685
21561
24142
13808
7790
9872
10630
11695
12480
12874
13096
13319
13529
13638
13772
13917
14080
14220
14468
14783
15090
15335
15717
16244
16623
16905
17097
17137
17000
16776
16341
15646
14680
13741
12810
12176
11758
11463
11286
11266
11375
11451
11525
11557
11651
11722
11841
11921
12044
12089
12174
12140
12175
12103
12110
12125
12146
12080
12040
12027
12274
12609
12864
13110
13163
13065
12917
12806
12540
12439
12452
12516
12314
12114
13885
17814
22869
23164
11347
8472
10425
11193
12149
12808
13130
13296
13513
13621
13853
13898
14085
14243
14474
14677
14896
15214
15632
16089
16564
16961
17302
17496
17407
17245
16872
16326
15615
14568
13437
12592
12070
11784
11481
11358
11315
11456
11516
11528
11491
11436
11636
11977
12218
12138
12074
12038
12060
12096
12064
12147
12088
12154
12283
12214
12136
11934
12025
12623
12964
13132
13097
13065
12978
12766
12628
12449
12447
12482
12313
11959
12662
16111
21169
25303
16231
7740
9700
10841
11830
12497
12894
13170
13363
13533
13775
13900
13885
13970
14214
14534
14896
15195
15511
15903
16079
16581
17150
17367
17376
17353
17123
16522
15997
15358
14500
11464
7939
5036
2833
1461
225
6
110
544
1089
1358
1382
1706
2104
2331
2628
2830
2807
2908
3011
3076
3185
3424
3658
4007
4268
4531
5107
6026
6815
7417
7925
8225
8485
8811
9243
9460
9846
10468
11004
11247
12835
17044
22696
25864
16051
9356
11631
12879
14261
15301
15775
16052
16432
16743
16962
17184
17465
17532
17973
18447
18841
19261
19686
20081
20418
20971
21400
21641
21612
21387
21051
20703
20060
19150
18026
16944
16183
15575
15124
14728
14718
14837
15016
15018
14840
14763
14825
14835
14880
14746
14710
14748
14682
14538
14587
14539
14365
14338
14421
14285
14140
14323
14679
14855
14966
14891
14871
14780
14531
14129
13811
13900
13905
13799
13433
14917
18988
24154
25798
14918
8973
11423
12438
13233
13649
14007
14219
14237
14371
14628
14676
14916
15092
15296
15403
15585
16012
16215
16518
16936
17334
17644
17800
17800
17500
17275
16870
16181
15242
14077
12983
12349
11988
11651
11349
11322
11386
11447
11473
11663
11794
11767
11843
11924
11874
11855
11936
11904
11957
11925
11893
11958
12004
11972
12035
12262
12420
12831
13019
