12142
12369
12454
12377
12375
12515
12510
12511
12526
12671
12576
12589
12545
12779
12995
13406
13683
13593
13454
13277
13131
13042
12832
12798
12841
12616
12831
15113
18646
22773
20771
9966
8471
10422
11701
12828
13614
13617
13565
13647
13790
13795
14016
14271
14082
14014
14608
15318
15860
15874
15947
16291
16650
17020
17458
17681
17043
16525
16174
15723
14689
13916
13218
12523
12082
11982
11792
11734
11662
11893
12191
12286
12185
12179
12271
12142
12137
12144
12031
12306
12174
11674
11901
12276
12005
12000
12319
12347
12194
11872
11899
12210
12505
11849
11978
12532
12696
12387
12343
12426
12802
13127
13172
12861
12825
13130
13309
13206
12700
12561
12414
12380
12366
12995
16143
20866
24661
17373
8174
9323
10456
11708
12773
13184
13407
13492
13634
13508
13941
14186
14015
14278
14669
15143
15476
15641
15815
16067
16442
17056
17464
17605
17492
17316
16807
16252
15368
14124
13187
12476
11985
11727
11553
11498
11545
11606
11491
11645
11687
11721
11658
11740
11937
12068
12129
11972
11812
11771
11862
11349
11705
12080
12358
12151
12243
12268
12187
12296
12348
12290
12332
12289
12325
12840
13100
13246
13149
13176
13139
13107
12860
12739
12463
12464
12489
12194
12481
15399
19877
24606
19193
8243
9079
10756
11812
12525
13009
13254
13501
13629
13660
13636
14026
14360
14627
14791
14820
15103
15398
15696
16001
16895
17227
17393
17526
17605
17192
16687
16278
15399
14191
13104
12561
12039
11625
11356
11186
11292
11445
11683
11474
11604
11911
11968
11904
11880
11942
11958
11895
11870
11991
11990
11988
12017
12040
11972
12066
12172
12214
12187
12080
12003
12192
12649
13283
13488
13288
13262
13116
12848
12628
12535
12545
12630
12456
12098
13752
17772
23058
23556
11864
8023
9920
11024
12148
13019
13302
13478
13671
13799
13928
14124
14294
14490
14733
14946
15207
15799
16340
16630
17009
17351
17622
17787
17695
17439
17002
16399
15588
14512
13427
12486
11832
11405
11232
11147
11113
11188
11323
11499
11577
11544
11633
11737
11698
11763
11795
11853
11861
11870
11796
11771
11874
11918
11861
11898
11938
11961
11867
12137
12419
12834
13215
13137
12857
12814
12633
12499
12289
12317
12472
12295
11999
12370
15346
20178
24958
17971
7888
9130
10369
11460
12426
12968
13259
13546
13701
13839
13975
14072
14117
14275
14622
14894
15303
15802
16205
16633
17002
17410
17564
17582
17521
17328
16821
16044
14987
13863
12826
12070
11653
11323
11210
11172
11244
11272
11282
11397
11604
11628
11654
11720
11817
11820
11901
11958
11955
11971
12036
11916
11917
11959
11972
12065
12290
12559
12752
13044
13056
12970
12795
12634
12487
12385
12378
12400
12232
12040
13683
17742
23285
23968
11976
7956
9644
10898
12125
12749
13092
13306
13565
13688
13876
13983
14175
14359
14632
14894
15223
15583
15937
16418
16954
17382
17649
17737
17644
17476
17114
16497
15503
14399
13269
12387
11763
11421
11178
11106
11106
11236
11387
11519
11529
11552
11578
11664
11803
11846
11842
11836
11926
11880
11823
11792
11884
11911
12081
12396
12774
12986
13076
13043
12932
12633
12408
12262
12299
12317
12259
11875
12325
15547
20501
25322
18070
7741
8805
10062
11548
12476
12965
13096
13355
13486
13653
13862
13972
14120
14403
14622
14871
15147
15682
16131
16520
17027
17384
17491
17547
17361
17027
16491
15702
14678
13625
12592
11886
11445
11061
10958
11084
11211
11230
11259
11419
11564
11532
11598
11687
11751
11761
11805
11826
11814
11916
11837
11738
11710
12109
12510
12804
12941
12904
12755
12652
12422
12256
12119
12113
12118
11855
11697
13913
18445
24184
22584
9884
8054
9453
10977
11985
12679
12921
13124
13347
13569
13844
13931
14022
14020
14262
14902
15360
15482
15888
16351
16641
16995
17408
17473
17293
16798
16229
15609
14780
13748
12878
12235
11829
11454
11224
11248
11242
11275
11397
11445
11473
11772
11771
12001
12090
11909
11886
11992
12040
11928
11944
12095
12233
12425
12857
13369
13248
13222
12971
12646
12299
12277
12205
12219
11853
11919
14766
19853
25213
19330
8281
9048
10360
11710
12641
12986
12952
13152
13441
13604
13727
13915
14071
14296
14482
14745
15185
15584
16001
16400
16795
17205
17257
17256
17067
16760
16219
15426
14489
13474
12589
12000
11683
11232
11008
11121
11246
11334
11512
11573
11750
11741
11695
11680
11752
11849
11801
11855
11850
11912
11943
12296
12521
12721
12935
12949
12835
12739
12512
12310
12154
12170
12172
11939
11727
13867
18325
23995
22252
9636
8254
9874
11239
12112
12657
12874
13122
13297
13393
13545
13727
13840
14016
14216
14526
14846
15161
15587
15990
16554
16897
17076
16992
16796
16570
16262
15491
14496
13575
12811
11986
11487
11215
11150
11101
11190
11301
11411
11505
11534
11608
11624
11706
11789
11808
11749
11823
11783
11689
11678
11810
12102
12474
12728
12878
12775
12719
12531
12378
12125
12016
12052
12007
11745
11822
14496
19238
24689
20307
8351
8527
10083
11366
12251
12675
12870
13081
13254
13445
13621
13772
13829
14044
14324
14637
14883
15223
15588
16062
16475
16811
16979
17019
16818
16579
16164
15583
14731
13731
12758
12050
11593
11339
11186
11132
11247
11331
11430
11474
11541
11644
11758
11732
11774
11817
11815
11844
11867
11870
11836
11958
12341
12681
12875
13004
12883
12717
12553
12424
12179
12160
12209
12190
11813
12552
15843
21079
24795
16101
7590
9350
10453
11746
12621
12950
13222
13396
13554
13592
13759
13857
14127
14372
14579
14861
15242
15584
15945
16350
16724
17062
17190
17156
16922
16673
16238
15250
14345
13388
12516
11950
11581
11431
11381
11481
11583
11628
11712
11761
11779
11880
11916
11964
11998
11988
11996
12110
12132
11933
11916
12165
12512
12816
13026
13012
12936
12819
12655
12466
12297
12249
12227
12117
11856
12829
16585
22077
24781
14348
8001
9710
10731
11951
12703
13040
13146
13362
13523
13724
13851
13995
14189
14343
14565
14851
15182
15576
16014
16359
16747
17030
17099
17037
16858
16520
16078
15318
14396
13413
12304
11773
11448
11305
11344
11403
11447
11523
11641
11752
11829
11884
11885
11950
11982
11938
11918
11997
11871
11891
11967
12282
12639
12913
12920
12814
12755
12576
12460
12195
12192
12166
12094
11720
12478
16005
21408
24929
15397
8115
9600
10668
11785
12537
12904
13157
13340
13475
13584
13750
13919
14077
14157
14449
14740
15095
15438
15864
16290
16683
16856
16929
16848
16770
16499
16018
15295
14498
13532
12654
12074
11640
11389
11230
11404
11496
11587
11653
11693
11744
11855
11883
11950
11889
11909
11918
11946
11944
11914
12184
12465
12784
13027
12950
12821
12711
12545
12340
12197
12204
12229
11975
11885
14450
19224
24632
19788
8325
8874
10197
11490
12437
12871
13014
13266
13454
13632
13776
13926
14049
14260
14501
14827
15166
15463
15806
16213
16587
16888
16955
16945
16895
16659
16295
15676
14905
13903
13085
12313
11891
11618
11517
11394
11516
11527
11608
11710
11890
11821
11915
11993
11982
12021
12049
11991
11892
11958
12036
12357
12765
13015
13035
12940
12736
12560
12387
12219
12203
12345
12207
11689
12422
15995
21520
24836
14794
7573
9460
10686
11940
12692
13087
13142
13344
13575
13753
13896
14047
14189
14435
14616
14865
15197
15506
15970
16401
16774
16991
17015
16860
16696
16493
16098
15398
14580
13639
12805
12108
11678
11495
11417
11408
11427
11548
11720
11810
11776
11850
11866
11922
11920
12016
11935
11995
11990
12020
11966
12291
12676
13035
13226
13150
12977
12823
12595
12455
12282
12159
12251
12002
11794
13840
18279
23896
22211
9453
8102
9770
11236
12298
12802
13046
13271
13443
13580
13733
13834
13998
14193
14477
14760
15029
15261
15688
16037
16441
16838
16898
16813
16656
16492
16156
15714
15016
14123
13219
12500
11915
11565
11338
11418
11495
11528
11586
11703
11749
11830
11826
11810
11835
11888
11850
11870
11825
11891
11810
11780
11839
12166
12509
12767
12998
12946
12813
12549
12416
12177
12108
12045
12004
11688
12258
15584
20735
24748
16087
7150
8889
10297
11557
12366
12737
12985
13161
13388
13505
13604
13741
13958
14171
14453
14710
15018
15399
15808
16113
16459
16738
16764
16734
16569
16347
15898
15307
14477
13649
12797
12131
11644
11353
11318
11383
11381
11455
11534
11579
11571
11607
11739
11716
11738
11751
11767
11770
11818
11813
11697
11705
11934
12246
12661
12924
12981
12856
12770
12631
12450
12212
12179
12304
12088
11817
13137
17014
22416
23986
12188
7212
9291
10850
12025
12763
13056
13176
13329
13524
13655
13781
13904
14069
14382
14635
14985
15251
15652
15971
16359
16694
16844
16866
16850
16690
16429
15963
15364
14499
13586
12772
12160
11721
11421
11381
11443
11567
11631
11757
11743
11859
11918
11926
11919
11876
11872
11878
11926
11952
12020
11905
11902
11908
12252
12789
13088
13113
12978
12924
12791
12577
12352
12313
12421
12231
11922
13138
17077
22627
24341
12581
7362
9402
10891
12069
12848
13177
13311
13516
13679
13799
13956
14163
14275
14531
14790
15036
15325
15722
16031
16389
16678
16916
17009
16820
16624
16393
15980
15198
14428
13501
12734
12123
11761
11438
11365
11404
11511
11555
11600
11683
11781
11818
11808
11873
11912
11928
11917
11940
11916
12057
12094
11905
11837
12041
12348
12744
13018
13126
12944
12822
12639
12486
12310
12290
12311
12104
11958
13940
18298
23746
22424
9551
7700
9684
11256
12261
12806
13117
13325
13448
13618
13733
13923
14104
14244
14456
14794
15039
15360
15757
16066
16514
16820
16994
16935
16878
16630
16368
15937
15246
14384
13409
12601
12024
11702
11512
11438
11495
11605
11662
11822
11910
11926
11896
11985
11976
12027
12055
12066
11986
11968
12061
12160
12048
11957
12172
12601
13023
13230
13309
13189
13015
12788
12651
12497
12527
12499
12248
12182
14533
18955
24397
21549
8770
8024
9948
11534
12545
13153
13409
13529
13592
13842
13992
14143
14272
14554
14790
15053
15261
15673
16004
16400
16755
17026
17184
17159
17016
16752
16447
15971
15270
14323
13402
12534
11962
11633
11516
11516
11565
11649
11770
11886
11935
11897
11944
12034
12001
12077
12097
12065
11994
11970
12005
12087
11980
11955
11951
12136
12484
12900
13154
13156
12990
12922
12758
12575
12403
12367
12393
12169
12275
14712
19318
24728
21325
8574
8214
9978
11553
12463
13065
13214
13430
13614
13757
13877
14016
14187
14356
14593
14853
15155
15456
15783
16157
16676
16936
17042
16940
16796
16580
16299
15795
15051
14130
13218
12479
11907
11522
11339
11311
11410
11440
11458
11589
11629
11733
11789
11904
11903
11887
11845
11853
11856
11866
11876
11961
11913
11866
11915
12130
12544
12824
13096
13061
12941
12649
12477
12193
12162
12208
12191
11895
12969
16503
21675
24754
14605
7363
9208
10348
11649
12565
12924
13174
13395
13611
13715
13922
13995
14164
14385
14660
14973
15353
15703
16037
16444
16761
16979
17036
16968
16797
16569
16067
15419
14454
13535
12693
12045
11569
11381
11311
11307
11327
11423
11560
11640
11731
11771
11872
11937
11930
11987
12026
11953
11916
11909
11928
11855
11922
12054
12420
12785
13028
13054
12901
12810
12550
12395
12216
12295
12314
11991
12001
14552
19106
24692
20715
8614
8587
9900
11280
12369
12970
13154
13233
13422
13597
13755
13927
14113
14357
14572
14829
15099
15542
15880
16297
16640
16911
17097
17112
16943
16685
16276
15589
14752
13831
12822
12129
11656
11342
11226
11291
11394
11368
11541
11620
11711
11732
11762
11777
11922
11962
11937
11918
11920
11960
11959
12013
11929
11957
12095
12432
12743
13037
13084
13072
13009
12744
12509
12328
12198
12260
12065
11897
13617
17818
23534
23610
10935
7993
9743
11121
12254
12933
13160
13308
13552
13654
13806
13969
14177
14303
14570
14802
15144
15447
15775
16167
16544
16904
17155
17190
17006
16768
16376
15847
15070
14111
13136
12400
11823
11488
11298
11303
11325
11389
11457
11593
11683
11735
11829
11855
11923
11915
12001
12000
11991
11947
11987
12021
12091
11960
11911
11999
12363
12749
13033
13172
13080
13016
12779
12652
12501
12426
12276
12120
11871
13469
17511
23166
24201
11927
7617
9500
11023
12247
12925
13175
13294
13438
13634
13812
13964
14154
14338
14563
14820
15106
15430
15737
16153
16568
16983
17119
17132
16985
16787
16438
15997
15258
14359
13428
12574
11994
11620
11443
11329
11402
11476
11674
11685
11668
11677
11737
11848
11961
11977
11955
11896
11884
11958
11979
12047
12148
12064
11992
11930
12210
12562
12803
13052
13024
12998
12824
12678
12517
12361
12367
12386
12007
12517
15641
20740
25164
17237
7160
8627
10300
11726
12620
13010
13255
13359
13506
13651
13864
14024
14226
14424
14654
14896
15262
15581
15999
16326
16681
16995
17083
17032
16843
16620
16243
15608
14710
13760
12871
12253
11667
11371
11217
11216
11316
11460
11556
11564
11691
11764
11829
11870
11907
11882
11913
11912
11915
11904
11999
12055
11993
11942
11926
12217
12617
12908
13060
13007
12871
12727
12608
12465
12326
12358
12193
11911
13084
16912
22275
24707
13803
7267
9224
10574
11948
12722
13002
13209
13369
13451
13691
13841
14040
14200
14499
14754
15044
15316
15739
16150
16599
16944
17154
17221
17069
16746
16482
16086
15338
14388
13389
12540
11906
11573
11373
11243
11227
11291
11320
11482
11533
11653
11757
11873
11958
11957
11946
11929
11959
11934
11910
11945
11896
11865
12026
12296
12604
12791
13039
12946
12729
12453
12345
12166
12109
12192
12281
11989
13105
16639
21705
24149
13677
7569
9585
10624
11840
12768
13062
13190
13384
13624
13731
13848
13941
14145
14439
14734
15042
15351
15689
16020
16539
16865
17065
17068
17025
16840
16516
15952
15199
14232
13320
12408
11857
11534
11344
11200
11166
11182
11285
11475
11610
11617
11621
11731
11765
11950
11901
11909
11856
11932
12023
11886
11906
12005
12259
12581
12862
13028
13031
12830
12673
12543
12385
12257
12350
12292
12108
12359
16391
21487
24069
14014
7612
9386
10576
11855
12757
13136
13279
13434
13581
13762
13898
14139
14316
14541
14759
15118
15382
15795
16179
16643
16992
17286
17355
17253
17025
16698
16085
15158
14204
13268
12458
11846
11533
11249
11168
11177
11318
11377
11551
11681
11773
11852
11829
11841
11850
11934
12014
12046
11994
12026
12032
12051
12037
12042
12213
12553
12802
13068
13011
12926
12806
12605
12464
12280
12276
12297
12123
11807
13163
17059
24442
21352
9069
8522
9860
11127
12249
12866
13109
13237
13432
13571
13848
13962
14112
14351
14672
14909
15208
15545
15903
16419
16754
17064
17244
17323
17107
16929
16439
15815
14820
13836
12909
12184
11642
11367
11202
11140
11218
11296
11439
11515
11638
11676
11785
11860
11935
11917
11934
11872
11948
11959
11991
11985
11987
12121
12096
12098
12049
12359
12766
13126
13211
13231
13157
12961
12731
12605
12442
12396
12472
12267
12109
15672
20752
25623
18440
7876
8999
10263
11649
12669
13088
13227
13404
13547
13712
13880
14042
14255
14458
14627
14885
15230
15727
16048
16519
16897
17207
17400
17392
17231
16954
16503
15799
14975
13887
12932
12208
11625
11271
11243
11221
11298
11361
11460
11610
11648
11738
11827
11888
11965
11996
11981
11941
11885
11931
11915
11976
12026
12099
12088
12149
12208
12172
12107
12213
12717
13109
13267
13211
13220
13155
12928
12690
12540
12432
12473
12292
12115
13770
17928
23559
24119
11604
7649
9603
11034
12185
12842
13146
13319
13488
13644
13755
13932
14129
14314
14523
14728
15075
15424
15882
16321
16779
17088
17360
17454
17407
17265
16881
16306
15538
14639
13590
12664
11981
11612
11324
11139
11052
11218
11316
11446
11540
11583
11713
11798
11785
11839
11820
11815
11845
11813
11880
11899
11985
11991
11974
11989
12135
12035
11969
11984
12367
12737
13065
13182
13112
13044
12761
12651
12506
12456
12416
12338
12074
13187
16836
21855
25292
16134
7762
9657
10563
11676
12578
13099
13275
13453
13531
13662
13834
14029
14168
14337
14677
14948
15305
15685
16085
16499
17028
17359
17513
17373
17179
16831
16375
15694
14745
13690
12783
12114
11632
11329
11146
11098
11158
11300
11264
11388
11512
11606
11640
11758
11821
11838
11865
11908
11944
11902
11879
11883
11975
11986
12071
12018
11986
11923
12192
12515
12882
13085
13035
12975
12830
12717
12617
12448
12481
12507
12310
12198
14145
18418
23756
23318
11051
8315
10140
11016
12022
12809
13128
13360
13445
13642
13840
14016
14139
14328
14585
14858
15068
15417
15892
16317
16818
17273
17626
17701
17675
17409
17077
16454
15427
14309
13303
12400
11834
11463
11252
11157
11123
11236
11298
11428
11548
11603
11577
11723
11771
11838
11850
11947
11974
11956
11921
11897
11927
11989
12057
12059
12132
12115
12092
11984
12250
12695
13019
13160
13187
13107
13024
12850
12740
12597
12574
12589
12522
12128
13154
16968
22421
25420
15094
7986
9763
10779
11975
12765
13139
13283
13436
13657
13770
13946
14135
14388
14520
14788
15057
15445
15809
16255
16800
17282
17618
17722
17752
17564
17318
16723
15901
14890
13813
12785
12042
11504
11203
11106
11133
11160
11112
11241
11358
11493
11549
11688
11765
11819
11862
11892
11875
11933
11908
11946
11907
11911
11971
12004
12005
12058
12108
12084
11977
12035
12513
12978
13293
13182
13108
13021
12861
12675
12514
12410
12423
12428
12128
11993
14453
19035
24829
22061
9466
8493
9936
11255
12270
12913
13165
13317
13445
13628
13800
13967
14091
14292
14512
14827
15202
15558
15908
16410
16949
17323
17591
17650
17611
17452
17065
16397
15587
14507
13362
12457
11809
11321
11170
11128
11097
11199
11304
11409
11508
11659
11740
11669
11701
11850
11832
11797
11797
11815
11784
11896
11940
11930
11940
12003
12012
12134
12110
12102
12158
12146
12099
12298
12733
13065
13290
13203
13140
13051
12934
12772
12645
12498
12602
12512
12055
12663
16011
21186
25703
17960
8147
9306
10450
11731
12644
13084
13276
13503
13710
13776
13875
14145
14266
14492
14756
15090
15346
15727
16145
16550
17090
17452
17685
17706
17686
17402
16957
16254
15362
14289
13244
12307
11720
11365
11185
11136
11156
11200
11275
11451
11504
11569
11600
11578
11639
11768
11763
11762
11780
11811
11769
11850
11903
11955
11962
12026
12038
12085
12101
12214
12286
12344
12400
12295
12203
12351
12816
13179
13397
13389
13400
13321
13210
13009
12780
12695
12741
12705
12317
12425
15124
19801
25328
20958
8997
8800
10268
11673
12607
13172
13353
13511
13670
13888
14029
14194
14262
14453
14656
14929
15245
15569
16025
16442
16980
17357
17661
17740
17688
17521
17191
16617
15746
14296
13259
12362
11769
11371
11238
11126
11171
11221
11347
11429
11496
11609
11657
11726
11772
11835
11749
11792
11809
11838
11813
11884
11903
12001
12010
12009
12047
12067
12055
12143
12257
12241
12138
12011
12497
12992
13262
13323
13314
13266
13153
12919
12778
12682
12669
12698
12413
12050
13702
17726
23441
24348
12517
8130
9789
10969
12149
12837
13178
13462
13537
13671
13790
13980
14203
14334
14534
14818
15101
15383
15848
16217
16954
17385
17714
17812
17697
17535
17258
16575
15653
14597
13546
12540
11884
11478
11255
11145
11159
11115
11147
11288
11360
11392
11502
11613
11613
11731
11732
11784
11790
11841
11835
11824
11791
11786
11827
11894
11959
12032
12048
12057
12143
12128
12080
12052
12502
12924
13223
13244
13219
13093
13015
12835
12648
12526
12547
12498
12217
12169
14555
18920
24441
21923
9724
8797
10162
11288
12330
13028
13230
13449
13643
13823
13922
14065
14291
14563
14759
15024
15326
15698
16110
16589
17089
17487
17712
17752
17704
17457
16992
16233
15277
14196
13132
12219
11690
11396
11239
11124
11099
11176
11302
11349
11442
11530
11598
11699
11703
11820
11887
11938
11875
11878
11831
11866
11894
11982
11955
12036
12034
12043
12115
12252
12186
11981
12012
12509
13004
13266
13338
13209
13118
12946
12806
12670
12591
12566
12538
12289
12157
14290
18578
24419
22650
10165
8606
10029
11263
13625
13660
13884
14099
14227
14430
14660
14889
15202
15581
15892
16375
16911
17374
17648
17835
17729
17591
17214
16557
15612
14564
13508
12555
11918
11524
11279
11086
11095
11116
11212
11315
11481
11423
11557
11642
11697
11742
11816
11861
11876
11835
11825
11846
11866
11911
11895
11947
11925
12023
12032
12090
12103
12234
12197
12078
12147
12646
13041
13288
13279
13264
13213
13066
12962
12792
12669
12651
12656
12288
12337
14829
19430
25735
16942
8202
9596
10680
12028
12854
13237
13343
13596
13792
13913
14042
14185
14371
14566
14760
15041
15376
15728
16202
16638
17133
17479
17755
17795
17726
17434
17035
16368
15408
14271
13233
12405
11780
11454
11214
11136
11142
11251
11242
11383
11503
11604
11587
11677
11742
11751
11760
11764
11794
11786
11826
11788
11844
11891
12005
12054
12073
12044
12084
12081
12240
12232
12175
12130
12588
12980
13255
13333
13235
13231
13032
12784
12502
12422
12492
12554
12183
12452
15333
20168
25487
19808
8374
9010
10361
11761
12661
13195
13354
13532
13722
13863
13962
14099
14276
14450
14733
15024
15349
15579
15958
16443
16949
17324
17638
17733
17634
17389
17019
16441
15531
14414
13333
12455
11769
11422
11210
11134
11056
11116
11192
11365
11426
11485
11558
11662
11697
11683
11736
11757
11869
11852
11789
11807
11866
11920
11963
11940
11978
12010
12097
12118
12215
12290
12265
12117
12523
12918
13256
13326
13333
13289
13164
12961
12774
12658
12628
12680
12463
12080
13249
17087
22723
25017
13966
7848
9565
11025
12245
12943
13288
13492
13681
13769
13903
14075
14229
14429
14615
14839
15123
15402
15783
16209
16758
17201
17618
17811
17816
17626
17396
16978
16255
15254
14156
13195
12393
11846
11518
11397
11202
11192
11239
11407
11476
11592
11629
11664
11733
11747
11766
11839
11844
11816
11726
11689
11748
11743
11880
11940
11989
11938
12024
12161
12161
12025
12021
12357
12907
13210
13345
13275
13207
12974
12875
12723
12546
12550
12572
12383
12037
13472
17448
23032
24504
13046
7846
9720
10904
12157
12884
13182
13329
13545
13704
13862
13999
14171
14386
14534
14781
15127
15524
15842
16317
16770
17288
17653
17795
17693
17514
17229
16739
16049
15040
13892
12879
12102
11553
11283
11102
11086
11013
11066
11071
11142
11276
11429
11488
11556
11623
11683
11701
11727
11696
11689
11706
11721
11777
11824
11916
11904
11864
11838
12019
12288
12676
12952
13076
12943
12882
12682
12530
12357
12303
12305
12249
12044
12525
15518
20091
24658
18674
8023
9020
10380
11421
12508
13061
13229
13391
13564
13672
13870
14070
14286
14499
14679
14950
15316
15631
15975
16459
16983
17482
17710
17790
17654
17433
16998
16293
15322
14266
13159
12247
11644
11310
11168
11096
11106
11141
11286
11298
11393
11424
11567
11694
11759
11777
11908
11887
11904
11911
11970
12000
12072
11988
11986
12084
12049
12071
12043
12416
12764
13109
13235
13085
12976
12808
12709
12544
12343
12556
12729
12540
12092
13220
17065
22367
25191
14926
7914
9647
10841
12020
12766
13116
13265
13452
13690
13835
13969
14116
14255
14455
14663
14947
15250
15680
16176
16716
17127
17421
17693
17903
17696
17427
16885
16102
15151
14038
12859
12040
11584
11276
11083
10829
10769
10866
11041
11139
11225
11362
11473
11519
11572
11552
11719
11721
11762
11754
11824
11748
11751
11768
11796
11784
11702
11966
12383
12626
12933
13016
12741
12700
12566
12362
12144
12266
12310
12208
11918
12346
15362
20220
24980
18899
7597
8264
9941
11305
12301
12824
13117
13263
13465
13640
13758
13931
14156
14367
14634
14895
15213
15558
15973
16374
16912
17376
17646
17719
17625
17503
17058
16374
15407
14336
13221
12316
11779
11453
11261
11207
11245
11272
11312
11421
11458
11620
11757
11710
11804
11894
11931
11899
11852
11855
11932
11942
11969
12051
12191
12199
12049
11931
12185
12592
13004
13297
13296
13175
13089
12870
12759
12603
12551
12533
12544
12351
12244
14645
19198
24758
22325
9516
7945
9875
11403
12506
13176
13373
13586
13746
13925
14086
14416
14641
14643
14748
15046
15378
15774
16160
16629
17075
17546
17865
17950
17881
17672
17331
16668
15779
14675
13620
12651
11800
11427
11251
11157
11180
11207
11302
11391
11503
11530
11609
11689
11777
11824
11849
11830
11858
11886
11850
11879
11885
11903
11990
11913
11756
11804
12122
12493
12795
13088
13000
12894
12767
12643
12495
12357
12347
12433
12345
11922
12665
16201
21337
25552
17432
7775
9044
10157
11464
12404
12956
13117
13298
13509
13672
13770
13934
14149
14342
14609
14855
15200
15614
16100
16563
17055
17466
17705
17723
17629
17342
16843
16025
14696
13597
12614
11907
11417
11112
11014
11028
11032
11093
11164
11277
11380
11496
11591
11585
11610
11671
11702
11758
11799
11804
11777
11798
11811
11835
11794
11855
11905
12204
12602
12793
12997
12909
12852
12713
12597
12480
12358
12353
12385
12217
11882
13104
16889
22122
24588
14221
7767
9525
10410
11666
12561
13092
13219
13479
13630
13727
13843
14029
14245
14480
14748
15074
15354
15672
16194
16685
17183
17492
17724
17760
17721
17348
16446
15534
14430
13253
12388
11778
11361
11150
11081
11093
11127
11124
11177
11353
11457
11562
11610
11732
11843
11923
11859
11936
11891
11895
11844
11867
11934
12055
12114
12077
12063
12062
12437
12867
13067
13030
13008
12968
12848
12700
12571
12465
12488
12462
12197
11818
13308
17372
23168
24454
12654
7886
9472
10783
12096
12874
13149
13401
13595
13849
13951
14019
14165
14394
14608
14862
15125
15475
15870
16323
16811
17271
17616
17789
17679
17537
17195
16482
15522
14385
13389
12472
11790
11374
11271
11159
11093
11114
11301
11419
11477
11510
11585
11684
11777
11848
11850
11820
11877
11935
11920
11976
11909
11918
11892
11987
12028
12145
12036
11968
12095
12611
13009
13256
13179
13075
13073
12935
12819
12591
12462
12455
12576
12309
12027
13659
17792
23589
24110
11895
7807
9555
10976
12154
12860
13189
13312
13464
13588
13781
13953
14182
14315
14560
14721
15100
15443
15970
16400
16930
17268
17544
17621
17634
17401
17039
16399
15492
14436
13339
12399
11771
11367
11069
11021
11073
11266
11298
11429
11467
11557
11631
11714
11794
11857
11879
11927
11903
11878
11909
11896
11974
11953
12012
12075
12127
12160
12263
12346
12387
12283
12154
12425
12911
13217
13301
13295
13223
13198
13016
12826
12611
12565
12566
12605
12196
12417
15297
20181
25392
19710
8311
8740
10269
11719
12707
13249
13457
13567
13761
13959
14124
14210
14387
14556
14849
15074
15427
15813
16275
16730
17287
17624
17837
17818
17686
17468
17057
16260
15205
14136
13058
12284
11699
11345
11176
11127
11116
11170
11220
11421
11486
11562
11637
11737
11753
11777
11813
11833
11873
11923
11918
11884
11974
11972
11979
11899
11964
12116
12111
11990
12051
12462
12872
13112
13157
13152
13099
12953
12746
12574
12505
12492
12486
12309
11999
13635
17533
22941
24142
12660
8024
9885
11196
12319
12936
13206
13394
13587
13710
13863
14023
14166
14403
14599
14873
15109
15525
15914
16385
16850
17337
17613
17727
17658
17450
17118
16420
15481
14408
13360
12358
11705
11332
11140
10979
10946
10974
11137
11244
11395
11471
11538
11577
11682
11784
11866
11830
11765
11840
11968
11971
11904
11977
11972
12004
12036
12143
12098
12063
12076
12554
13009
13293
13249
13112
13088
12925
12873
12666
12488
12519
12550
12285
12188
14031
18165
25137
19229
8262
9002
10154
11438
12456
13030
13280
13477
13657
13837
13925
14107
14333
14531
14747
14984
15340
15701
16147
16583
17130
17557
17906
17896
17865
17651
17215
16443
15413
14260
13176
12321
11690
11312
11131
11080
11019
11150
11215
11354
11446
11533
11643
11714
11722
11785
11791
11810
11816
11860
11875
11883
11914
12016
12060
11992
11996
12117
12187
12055
12004
12287
12851
13146
13180
13130
13058
12965
12752
12603
12487
12500
12525
12285
12052
13859
17945
23761
23880
11557
7994
9657
10875
12134
12905
13214
13450
13610
13784
13951
14061
14245
14440
14645
14924
15224
15601
15900
16377
16853
17304
17643
17851
17866
17700
17342
16809
15913
14802
13687
12670
11973
11512
11235
11106
11071
11086
11212
11272
11318
11369
11474
11573
11666
11718
11822
11887
11905
11885
11862
11894
11906
11897
11946
12001
12016
12067
12085
12181
12185
12125
12065
12433
12876
13295
13257
13199
13158
13041
12867
12698
12526
12518
12573
12421
12260
14039
18134
23871
23612
11175
7922
9684
11106
12271
12982
13354
13521
13564
13706
13869
14053
14268
14487
14684
14923
15280
15657
15934
16341
16816
17248
17710
17888
17838
17616
17301
16750
15961
14890
13816
12808
11997
11493
11240
11121
11113
11190
11297
11375
11423
11526
11554
11643
11695
11794
11869
11891
11823
11837
11863
11881
11923
11869
11887
11911
11975
12034
12121
12223
12199
12058
12223
12730
13161
13310
13269
13190
13223
13047
12896
12684
12625
12657
12718
12380
12270
14371
18703
24510
22795
10087
8142
9901
11282
12397
13060
13337
13469
13697
13837
14007
14231
14325
14410
14638
14931
15241
15641
16076
16519
17021
17408
17667
17900
18016
17772
17256
16702
15790
14756
13691
12737
11992
11536
11313
11183
11157
11216
11211
11232
11304
11319
11458
11530
11705
11691
11709
11829
11936
11894
11913
11892
11901
11789
11926
11957
12024
12220
12178
12023
11985
12364
12803
13137
13173
13094
13023
12824
12652
12540
12326
12372
12413
12212
12017
13782
17907
23589
23973
11755
8146
9833
10876
12084
12861
13102
13287
13402
13630
13800
13990
14133
14361
14555
14811
15160
15499
15897
16336
16782
17293
17725
17839
17785
17543
17245
16648
15785
14651
13568
12594
11816
11366
11120
10986
10952
10932
11080
11286
11304
11399
11497
11622
11686
11799
11868
11874
11823
11847
11819
11809
11934
11924
11954
12090
11993
11793
12063
12546
13029
13176
13118
13151
12919
12792
12587
12496
12438
12412
12388
12060
12301
15116
19743
25223
20611
8585
8704
9952
11425
12545
13065
13335
13555
13687
13790
13850
14064
14183
14362
14623
14998
15326
15630
15955
16474
17043
17445
17757
17937
17866
17520
17118
16341
15385
14296
13276
12293
11748
11324
11144
11111
11095
11067
11251
11364
11530
11585
11697
11765
11835
11919
11913
11941
11923
11881
11851
11950
11993
11986
11985
12082
12153
12158
12012
12011
12406
12920
13170
13169
13089
13043
12904
12707
12565
12456
12480
12411
12170
12007
13994
18213
24070
23144
10392
8004
9738
11194
12368
13013
13249
13452
13524
13744
13912
14087
14255
14475
14659
14957
15210
15627
16068
16429
16891
17330
17681
17827
17887
17662
17301
16722
15793
14687
13585
12570
11895
11447
11234
11084
11073
11188
11311
11366
11488
11590
11672
11672
11689
11731
11744
11771
11830
11810
11819
11805
11848
11887
11858
11869
11962
12057
12003
11934
11846
12260
12776
13145
13187
13115
13040
12910
12766
12556
12401
12389
12456
12377
12103
13054
16764
22180
25248
14877
7380
9170
10621
11969
12801
13175
13368
13559
13680
13885
14061
14199
14306
14525
14751
15043
15337
15707
16156
16687
17142
17511
17736
17777
17713
17436
16970
16201
15209
14113
12728
11942
11486
11237
11134
11100
11168
11276
11429
11474
11573
11641
11773
11827
11821
11829
11879
11890
11906
11920
11945
11953
11922
11974
12007
12079
12145
12169
12129
12077
12446
12967
13199
13238
13154
13181
13003
12759
12566
12468
12503
12529
12406
12146
13562
17418
23108
24682
12982
7475
9376
10862
12157
12857
13241
13426
13525
13673
13813
14005
14208
14401
14589
14865
15115
15476
15852
16277
16827
17269
17566
17792
17821
17724
17288
16615
15688
14664
13634
12645
11926
11469
11251
11097
11064
11079
11256
11374
11471
11509
11584
11646
11737
11807
11865
11829
11843
11857
11866
11806
11848
11900
11922
12000
12037
11957
11830
12127
12645
13050
13135
13073
12997
12920
12714
12565
12412
12404
12443
12347
12033
12978
16556
21785
25406
16132
7606
9139
10381
11733
12612
12976
13149
13318
13485
13675
13875
13970
14098
14326
14685
14988
15262
15635
16099
16556
16973
17543
17691
17663
17440
17174
16553
15665
14586
13539
12500
11818
11394
11167
11004
10932
10986
11041
11166
11254
11426
11619
11543
11522
11647
11759
11817
11829
11824
11835
12035
11907
11846
11885
11984
12020
11975
11976
12366
12905
13182
13156
13031
13033
12843
12752
12550
12397
12349
12405
12242
12059
13640
17648
23347
24341
12176
7874
9500
10689
11986
12743
13072
13232
13486
13620
13841
13925
14087
14245
14590
14849
15176
15488
15977
16427
16960
17351
17759
17897
17836
17588
17061
16374
15357
14291
13231
12369
11684
11297
11081
10982
11025
11150
11114
11167
11325
11410
11477
11608
11619
11709
11767
11675
11774
11783
11843
11901
11918
11957
12014
12007
12100
12018
11905
12227
12769
13117
13227
13080
13062
12969
12770
12567
12435
12499
12509
12417
11951
12671
16107
21416
25599
16784
7568
8956
10373
11799
12703
13094
13279
13494
13797
13865
13970
14108
14277
14461
14884
15155
15568
15964
16406
16852
17352
17710
17852
17896
17738
17342
16779
15873
14804
13750
12679
11896
11513
11310
11181
11176
11116
11219
11295
11348
11412
11544
11687
11768
11722
11779
11760
11724
11840
11838
11887
11918
11928
11805
11861
11879
12073
12046
11995
12037
12446
12982
13291
13182
12978
13020
12820
12653
12424
12402
12416
12501
12282
12111
13840
18016
23828
23470
10845
7644
9738
11421
12414
12978
13226
13363
13511
13684
13921
14164
14258
14365
14604
14930
15329
15570
15994
16528
17029
17429
17735
17828
17757
17570
17240
16486
15537
14478
13416
12553
11855
11546
11210
11069
11081
11226
11314
11435
11510
11536
11537
11702
11758
11762
11866
11963
11998
11910
11962
11996
11984
11975
12058
12073
12052
12165
12283
12124
11917
12212
12769
13147
13214
13129
13065
13013
12758
12590
12474
12518
12561
12420
12053
12915
16509
21871
25363
15978
7482
9120
10735
12314
12940
13241
13412
13558
13640
13791
13972
14215
14415
14539
14816
15105
15460
15888
16390
16818
17284
17646
17937
17838
17598
17299
16834
15879
14785
13617
12630
11868
11419
11316
11030
10965
11056
11168
11265
11417
11488
11495
11567
11671
11648
11657
11709
11760
11775
11880
11848
11795
11922
11969
11945
11992
11957
11806
11867
12307
12831
13025
13130
12982
12755
12694
12599
12403
12332
12327
12447
12147
11930
13955
18122
23940
19623
8268
8847
10120
11503
12502
13030
13204
13344
13541
13693
13924
14092
14226
14353
14547
14833
15239
15671
16094
16587
17080
17529
17746
17837
17752
17582
17164
16339
15187
14106
13079
12209
11551
11242
11180
11047
11041
11098
11071
11227
11476
11420
11487
11628
11786
11757
11841
11711
11822
11931
11935
11971
12061
11987
11938
12094
12128
12158
12049
12003
12221
12607
13184
13340
12996
12943
12940
12803
12684
12502
12433
12459
12361
11997
12811
16458
22002
25586
15748
7748
9172
10480
11862
12661
13011
13221
13550
13656
13735
13848
14010
14238
14445
14654
14972
15364
15788
16166
16627
17149
17512
17766
17884
17779
17506
17067
16207
15156
14013
12981
12108
11588
11278
11151
11120
11067
11140
11235
11293
11346
11490
11578
11680
11745
11844
11839
11799
11804
11883
11853
11872
11934
12088
11977
12010
12073
12100
12185
12282
12200
12006
12266
12760
13155
13340
13380
13211
13028
12815
12684
12538
12542
12554
12442
12019
13064
16761
22432
25178
14721
7591
9334
10879
12100
12861
13235
13500
13612
13808
13947
14191
14265
14413
14548
14813
15116
15559
15909
16291
16805
17314
17657
17901
17980
17817
17609
17054
16325
15315
14238
13076
12207
11642
11302
11133
11151
11191
11235
11334
11391
11441
11584
11671
11673
11818
11798
11897
11851
11918
11905
11883
11852
11953
11978
11955
12005
12020
12026
12080
12196
12152
12087
12082
12473
12951
13271
13298
13185
13108
13056
12873
12775
12533
12591
12611
12453
12080
13349
17207
22790
25143
14403
7912
9558
10871
12071
12803
13096
13320
13428
13636
13761
13992
14178
14359
14526
14758
15043
15455
15848
16274
16748
17198
17604
17810
17927
17754
17490
16960
16218
15165
14026
12924
12101
11553
11286
11084
11047
10993
11021
11062
11148
11253
11377
11558
11599
11660
11705
11848
11935
11862
11821
11843
11844
11852
11845
11917
11972
12043
12107
12189
12213
12097
12037
12481
12962
13155
13165
13124
13093
12890
12784
12536
12468
12485
12562
12232
12096
14232
18674
24586
22751
10087
8391
9971
11329
12391
12961
13270
13522
13718
13716
13884
14056
14250
14357
14631
14892
15176
15513
15891
16408
16911
17439
17830
17995
17938
17826
17424
16843
15889
14776
13639
12697
11968
11549
11256
11128
11141
11079
11137
11251
11418
11451
11542
11613
11794
11816
11851
11820
11872
11885
11961
11957
11973
11849
11903
11954
12047
12065
12159
12120
12008
12159
12720
13168
13283
13240
13184
13102
12911
12849
12594
12530
12542
12567
12215
12413
15080
19838
25365
20350
8320
8447
10240
11725
12588
13076
13298
13458
13678
13717
13851
14018
14244
14462
14684
14861
15269
15584
15982
16468
17007
17499
17781
17972
17865
17688
17308
16659
15674
14566
13418
12506
11816
11501
11280
11166
11157
11200
11244
11312
11390
11536
11606
11637
11705
11788
11779
11770
11814
11847
11923
11871
11903
11974
11944
11960
12000
12044
12028
11918
11901
12329
12823
13180
13218
13166
13125
12990
12724
12622
12434
12442
12454
12307
12017
13160
16904
22489
25239
14780
7318
9110
10759
12030
12792
13123
13324
13503
13682
13724
13892
14108
14309
14418
14685
15026
15290
15683
16191
16761
17275
17704
17942
18038
17935
17624
17134
16390
15308
14100
12969
11857
11390
11145
10978
10895
10855
11011
11059
11138
11269
11372
11448
11580
11695
11732
11737
11738
11754
11768
11792
11761
11846
11871
11876
11930
11990
11919
11925
12298
12743
13037
13105
13026
13018
12847
12609
12495
12385
12376
12400
12258
11941
13125
16944
22354
25171
14760
7810
9579
10498
11781
12645
13049
13322
13425
13577
13754
13815
13963
14325
14557
14801
15069
15467
15841
16329
16809
17342
17693
17971
18034
17930
17628
16711
15690
14569
13456
12445
11682
11330
11154
11005
10969
11058
11147
11137
11259
11321
11405
11456
11631
11772
11863
11804
11885
11909
11924
11865
11904
11868
11867
12004
12004
11949
11883
12311
12783
13038
12950
12913
12827
12790
12672
12465
12298
12334
12436
12202
11941
13607
17793
23709
24113
11777
8157
9706
11053
12207
12919
13176
13300
13491
13726
13889
14109
14155
14272
14574
14844
15167
15525
15975
16351
16878
17370
17770
17959
17964
17755
17333
16538
15566
14363
13129
12174
11606
11212
11085
10982
10960
11056
11085
11220
11336
11471
11551
11656
11733
11830
11816
11895
11928
11907
11924
11999
11967
12047
12000
12067
12147
12067
11925
12139
12656
12980
13143
13082
13055
12949
12805
12607
12437
12346
12413
12411
12143
12201
14963
19745
25330
20734
8559
8421
9992
11538
12458
13080
13233
13379
13616
13833
13917
14048
14232
14430
14661
14882
15223
15550
15986
16738
17162
17592
17893
17948
17792
17523
17102
16217
15216
14123
13027
12165
11661
11256
11201
11119
11098
11176
11295
11260
11265
11374
11491
11642
11639
11685
11726
11831
11830
11878
11931
11973
11877
11854
11909
11930
12075
12062
11971
11850
12189
12729
13167
13302
13248
13050
13002
12710
12534
12398
12499
12468
12422
12156
12933
16215
21645
25513
16378
7343
8845
10633
11955
12762
13026
13266
13422
13564
13699
13908
14043
14218
14458
14781
15026
15417
15831
16273
16710
17211
17603
17883
17919
17789
17486
16960
16136
15075
13977
12858
12027
11470
11211
11017
10992
11057
11062
11172
11281
11365
11470
11567
11643
11724
11772
11773
11785
11772
11766
11834
11860
11940
11984
11988
11964
12052
12116
12083
11993
12088
12518
12946
13237
13265
13116
13018
12874
12714
12542
12435
12501
12432
12229
12213
14424
18861
24633
22816
10002
8093
9755
11187
12330
12911
13155
13356
13505
13655
13851
14017
14155
14382
14619
14927
15264
15682
16079
16555
17061
17566
17868
17951
17835
17600
17201
16497
15536
14307
13173
12326
11709
11315
11115
11079
11010
11051
11162
11206
11347
11441
11528
11581
11642
11736
11746
11740
11809
11819
11772
11797
11829
11873
11798
11843
11910
11897
11814
12004
12397
12817
13045
12994
12928
12791
12613
12541
12380
12311
12348
12333
12059
12154
14956
19600
25256
20692
8825
8779
10045
11391
12639
13040
13230
13369
13599
13831
14001
14086
14242
14450
14671
14954
15323
15718
16180
16660
17082
17575
17916
18043
17886
17602
17023
16175
15109
13958
12813
11993
11534
11289
11139
10973
11037
11103
11204
11221
11390
11429
11573
11579
11675
11740
11814
11797
11791
11806
11862
11886
11810
11886
11990
11957
11942
11985
11884
12053
12579
13022
13213
13144
13071
13011
12834
12660
12479
12408
12505
12420
12066
12091
14874
19762
25488
15263
7847
9203
10556
11913
12746
13054
13257
13446
13631
13758
13939
14110
14389
14536
14682
14996
15340
15709
16199
16779
17269
17662
17880
17976
17893
17651
17113
16308
15159
14025
12894
12009
11513
11260
11070
10984
11025
11100
11188
11305
11451
11516
11597
11629
11686
11700
11737
11762
11819
11858
11896
11901
11958
12028
11960
11981
12028
12062
11974
11897
12178
12706
13034
13185
13140
13047
12904
12748
12631
12456
12373
12441
12250
11982
13626
17849
23680
23858
11454
7600
9515
11108
12198
12825
13182
13329
13517
13706
13863
13999
14199
14376
14631
14864
15168
15525
15864
16318
16898
17309
17572
17816
17868
17736
17413
16966
16112
15062
13833
12842
12032
11514
11210
11072
11002
11080
11120
11238
11364
11482
11552
11607
11621
11668
11798
11792
11785
11777
11840
11873
11895
11813
11968
12026
11996
12081
12194
12167
12132
12284
12571
13009
13244
13330
13227
13131
12828
12709
12485
12478
12465
12447
12094
12903
16400
21909
25446
16182
7467
9061
10686
12004
12792
13144
13395
13472
13644
13803
13919
14079
14269
14389
14617
14844
15259
15650
15961
16468
17061
17437
17735
17855
17727
17488
17033
16292
15263
14196
13010
12211
11773
11350
11072
10999
10783
10880
11019
11189
11328
11423
11615
11653
11689
11804
11731
11638
11731
11752
11843
11855
11906
11973
12067
12014
12125
12094
11964
11896
12182
12833
13073
13041
13072
13108
12865
12620
12526
12518
12508
12450
12068
12014
13840
17979
23662
23791
11322
8183
9834
11033
12223
12926
13136
13273
13579
13769
13922
13967
14320
14388
14509
14816
15181
15477
15868
16292
16772
17285
17692
17931
17967
17809
17449
16915
16077
15008
13685
12682
12047
11509
11206
11190
11113
11107
11127
11218
11287
11373
11483
11634
11672
11757
11821
11724
11786
11882
11885
11859
11895
11948
11972
12006
12150
12140
12050
12211
12788
13128
13245
13118
13062
12885
12691
12592
12458
12495
12413
12407
11901
12665
16300
21738
25599
16402
7901
9325
10473
11854
12698
13064
13285
13491
13593
13747
13979
14161
14335
14480
14731
15074
15443
15727
16164
16569
17100
17593
17820
17819
17794
17599
17135
16277
15153
14031
12964
12098
11555
11246
11135
11047
11033
11101
11208
11362
11471
11584
11566
11606
11754
11809
11760
11823
11859
11843
11896
11884
11949
11959
11980
12063
11999
11966
11988
12336
12831
13135
13143
13017
13044
12844
12715
12525
12362
12344
12379
12219
11976
13563
17717
23593
24095
11918
7721
9611
11221
12380
12904
13178
13358
13584
13656
13849
13983
14124
14310
14531
14803
15074
15439
15854
16305
16751
17243
17605
17811
17883
17811
17486
16953
16154
15049
13931
12914
12093
11645
11401
11232
11198
11090
11147
11302
11402
11406
11565
11539
11667
11791
11788
11764
11943
11882
11865
11842
11896
11853
11967
11897
12004
12021
11959
11927
12255
12638
12981
13165
13069
13054
12995
12907
12635
12412
12405
12516
12369
12107
13031
16750
22238
25198
15252
7494
9202
10808
12132
12761
13061
13277
13496
13656
13852
13979
14152
14320
14433
14759
15113
15424
15721
16123
16623
17151
17603
17899
17879
17819
17573
17146
16441
15428
14167
13109
12233
11716
11340
11168
11162
11169
11178
11272
11366
11375
11452
11503
11689
11763
11745
11767
11821
11876
11887
11906
11931
11974
11985
12038
12057
11997
11947
12168
12687
13009
13146
13154
13030
12788
12654
12562
12346
12355
12369
12345
12059
12968
16473
21807
25432
16213
7761
9292
10467
11767
12625
12997
13182
13380
13641
13758
13969
14012
14219
14394
14677
14970
15347
15725
16212
16635
17196
17508
17737
17872
17765
17545
17082
16285
15176
14051
12942
12069
11451
11190
11016
10992
10872
10894
11049
11334
11252
11351
11500
11565
11573
11670
11712
11799
11879
11867
11821
11881
11821
11897
11975
11869
11860
11885
12317
12771
13069
13053
13013
12944
12802
12646
12490
12365
12378
12464
12197
12065
14144
18556
24500
23094
10346
8323
9742
11114
12146
12808
13110
13296
13461
13648
13780
13936
14097
14195
14431
14672
15031
15377
15929
16391
16803
17302
17713
17967
18008
17751
17495
16916
15811
14661
13486
12520
11801
11421
11199
11192
11076
11152
11276
11336
11382
11520
11622
11717
11656
11730
11760
11864
11897
11967
11980
12009
12050
12045
12025
12153
12073
11969
11961
12325
12810
13157
13236
13185
13149
12933
12854
12639
12411
12352
12405
12219
11891
13270
17217
23006
24834
13460
7692
9396
10897
12148
12742
13072
13269
13460
13553
13752
13920
14109
14310
14452
14682
14958
15371
15699
16150
16628
17146
17515
17781
17846
17751
17450
17006
16127
15118
13892
12830
11984
11415
11137
11090
10987
11034
11118
11220
11298
11399
11538
11534
11555
11639
11714
11707
11722
11766
11820
11808
11872
11833
11889
11832
11976
12025
11956
11909
12172
12698
13008
13099
13043
13017
12833
12667
12504
12399
12402
12472
12328
12019
13187
16993
22739
24883
14100
7374
9212
10815
12021
12704
13092
13275
13520
13614
13734
13889
14193
14336
14532
14769
15000
15313
15701
16170
16707
17168
17535
17813
17817
17754
17487
17085
15962
14819
13587
12621
11865
11485
11224
11114
11080
11071
11216
11335
11328
11390
11537
11597
11674
11736
11766
11748
11832
11844
11851
11776
11815
11817
11856
11916
12024
11968
11896
11947
12427
12882
13093
13081
13067
13006
12758
12661
12417
12375
12343
12451
12042
12341
15280
20151
25415
19822
8212
8633
10073
11404
12362
12791
13002
13231
13476
13599
13753
13922
14115
14296
14544
14744
15052
15445
15970
16392
16909
17386
17707
17799
17716
17455
16968
16078
15041
13845
12796
12042
11487
11194
10955
10878
10855
10941
11054
11165
11269
11474
11583
11690
11682
11705
11770
11749
11760
11786
11810
11881
11886
11916
11924
12033
12092
12016
12016
12334
12855
13076
13052
12969
12992
12864
12656
12496
12374
12390
12454
12276
11991
13414
17404
23381
24584
12742
7887
9516
10911
12137
12855
13206
13418
13521
13722
13876
14018
14128
14303
14645
14886
15112
15497
15801
16405
17109
17519
17778
18001
18024
17893
17412
16715
15650
14501
13430
12454
11732
11308
11072
11010
11089
11038
11161
11182
11296
11421
11549
11621
11712
11715
11751
11870
11923
11842
11857
11881
11957
11962
11952
12017
12061
12121
12148
12101
11966
12084
12540
13054
13174
13158
13113
13105
12850
12740
12606
12551
12547
12540
12206
12149
14877
19799
25408
20776
8669
8441
10143
11690
12634
13054
13269
13435
13634
13824
13909
14032
14211
14414
14753
14992
15305
15761
16228
16764
17241
17676
17877
17965
17936
17764
17252
16567
15595
14457
13206
12305
11720
11433
11153
11013
11035
11132
11362
11443
11485
11530
11631
11626
11719
11673
11735
11710
11733
11819
11856
11871
11872
11935
11962
11998
12019
12017
11983
12163
12201
12064
12053
12575
12957
13239
13278
13190
13147
13050
12877
12720
12576
12585
12596
12362
12213
14085
18513
24379
23007
10514
7959
9880
11479
12503
13090
13341
13503
13646
13826
