12162
12809
12986
13250
13433
13645
13834
14145
14168
14301
14621
14969
15259
15626
15943
16391
16866
17315
17531
17583
17503
17323
16901
16142
15168
13918
12958
12094
11574
11214
10994
11027
11042
11059
11271
11350
11354
11481
11555
11586
11639
11637
11766
11827
11777
11928
11900
11814
11730
11757
12019
12465
12811
12956
12917
12893
12683
12570
12481
12265
12265
12191
12077
11668
12491
16047
21328
25529
16255
7986
10054
10874
11755
12377
13847
14135
14398
14716
14915
15374
15857
16219
16650
16991
17283
17480
17368
17194
16880
16256
15268
14333
13185
12223
11484
11155
11171
11107
11124
11105
11134
11307
11402
11519
11603
11691
11733
11681
11802
11804
11777
11874
11909
11759
11680
11838
12204
12563
12823
12957
12747
12687
12547
12371
12204
12247
12266
12237
11829
11721
14479
19167
24852
20377
8355
9202
10691
11526
12318
12881
13072
13112
13293
13450
13811
13933
13996
16474
16953
17153
17314
17366
17287
17003
16392
15573
14590
13580
12554
11854
11436
11187
11142
11255
11205
11181
11237
11441
11627
11669
11684
11689
11742
11801
11792
11854
11906
11831
11940
11859
12185
12456
12758
12994
12907
12772
12688
12488
12210
12051
12125
12241
11801
11492
13874
18854
24735
21194
8962
9351
10603
11645
12435
12901
12900
13181
13351
13652
13792
13860
14016
14316
14564
14685
14965
15416
15888
16335
16724
17051
17361
13417
12570
11859
11431
11106
11045
11087
11156
11215
11235
11464
11648
11713
11707
11697
11633
11832
11942
11911
11779
11809
11798
11926
12183
12616
12890
12932
12948
12865
12673
12469
12165
12142
12225
12118
11644
11624
14605
19450
25143
19655
8343
9689
10891
11682
12296
12803
13051
13274
13436
13620
13738
13840
13974
14219
14499
14850
15061
15421
15826
16325
16736
17161
17318
17369
17243
17213
16779
16008
14998
13904
12848
11968
11278
11520
11598
11610
11712
11766
11809
11733
11813
11907
11841
11914
11916
11723
11710
12074
12587
12899
12935
12902
12843
12666
12454
12310
12076
12192
12176
11948
11489
13359
17905
23673
23636
10333
8401
10317
11356
12019
12691
12965
13154
13262
13547
13699
13891
13937
14285
14457
14673
14981
15351
15766
16190
16460
16886
17385
17522
17362
17136
16758
16291
15460
14388
13392
12384
11738
11454
11298
11165
11156
11173
11277
11453
11827
11803
11837
11930
11852
11988
11961
11859
11777
11974
12470
12971
13048
13082
12965
12790
12552
12277
12151
12294
12318
11944
11572
13670
18430
24049
23954
10465
8501
10179
11275
12148
12821
13065
13270
13434
13524
13755
14168
14138
14163
14413
14744
15102
15362
15614
16166
16696
16929
17303
17378
17400
17244
16926
16300
15503
14412
13387
12409
11682
11468
11166
11035
11124
11189
11152
11230
11247
11489
11612
11634
11549
11770
11791
11824
11675
11853
12277
12791
12985
12972
12868
12742
12578
12313
12176
12215
12301
11959
11572
13254
17613
23220
24109
11039
8269
10466
11236
11968
12677
13036
13197
13287
13390
13690
13840
14073
14081
14387
14749
15096
15335
15715
16069
16479
16981
17378
17254
17205
17194
16953
16395
15511
14422
13287
12380
11672
11350
11178
11112
11037
11087
11127
11341
11572
11585
11616
11621
11668
11755
11891
11858
11957
11928
11953
11935
11915
12920
12912
12807
12606
12338
12344
12361
12225
12035
11856
14395
19226
25076
21567
8631
9085
10550
11508
12299
12781
13112
13283
13328
13563
13803
13965
14105
14347
14448
14785
15142
15484
15859
16252
16605
17138
17368
17436
17345
17153
16776
16176
15237
14144
13102
12252
11721
11307
11093
11024
11171
11144
11266
11312
11498
11604
11742
11825
11817
11860
11808
11811
11950
12026
11885
11897
11907
11734
11730
12014
12379
12772
13111
12250
12267
12058
11795
14106
18599
24411
22235
9091
8826
10438
11493
12284
12826
13121
13204
13504
13749
13834
14014
14223
14373
14608
14988
15095
15456
15959
16417
16810
17249
17621
17697
17565
17501
17178
16439
15470
14307
13197
12379
11846
11453
11201
11044
11074
11076
11308
11380
11497
11686
11728
11674
11820
11878
11831
11793
11851
11893
11853
11971
11867
11742
11797
12176
12586
13009
13068
13012
12864
12786
12626
12355
12155
12239
16492
7441
9472
10512
11783
12543
12951
13125
13321
13489
13588
13857
14119
14187
14471
14679
14971
15240
15565
16049
16617
16998
17406
17612
17642
17494
17242
16872
16014
15000
13777
12836
12077
11634
11222
11036
10950
11069
11094
11090
11322
11449
11596
11648
11683
11654
11794
11751
11789
11697
11748
11850
11778
11694
11778
12048
12432
12769
12892
12864
12695
12673
12450
12218
12037
12122
12055
11736
11736
14465
19370
24483
20476
13026
13031
13336
13475
13746
13935
14259
14417
14546
14895
15182
15651
16089
16459
17009
17346
17451
17518
17481
17199
16615
15656
14596
13517
12584
11927
11431
11177
11036
10922
10948
11101
11331
11349
11437
11597
11625
11578
11639
11684
11850
11818
11820
11843
11870
11696
11732
12134
12456
12814
12940
12863
12621
12516
12345
12060
11911
12108
12039
11701
11723
14728
19767
24844
19799
8120
9119
10367
11232
12036
12630
12988
13436
13516
14992
15330
15760
16147
16730
17169
17480
17710
17726
17520
17230
16677
15792
14701
13478
12584
11663
11232
11138
11214
11183
11232
11265
11338
11327
11425
11545
11766
11767
11753
12013
12060
12032
11880
11955
11892
11880
11785
12144
12600
12985
13063
13016
12861
12658
12514
12346
12039
12244
12349
12088
11803
13904
18770
24244
23348
10357
8450
10033
10967
12045
12842
13018
13251
13393
13623
13822
13942
14125
14307
14472
14729
15185
17691
17566
17291
16791
16034
15003
13788
12759
12017
11422
11163
11013
10993
11077
11196
11225
11360
11506
11525
11594
11690
11831
11948
11836
11748
11812
12012
11954
11903
11830
11854
12204
12545
12875
13070
12843
12737
12641
12386
12210
12058
12164
12214
11857
11871
15010
20114
25597
20555
8282
8905
10167
11242
12238
12926
13049
13245
13432
13682
13678
13892
14147
14418
14604
14786
15095
15631
15988
16450
16944
17322
17643
17890
12428
11783
11337
11097
11013
10931
11002
11092
11268
11399
11452
11560
11496
11655
11699
11675
11773
11807
11810
11722
11799
11855
11881
11885
11747
11875
12368
12758
13022
12997
12971
12906
12609
12456
12403
12397
12297
12046
11570
12272
16154
21531
25869
17353
7816
9407
10165
11259
12217
12846
13102
13245
13460
13523
13679
13906
14232
14330
14520
14807
15140
15529
15965
16471
17121
17665
17709
17758
17571
17405
16840
16001
14922
13839
10888
10995
11187
11213
11326
11377
11358
11400
11693
11748
11777
11719
11722
11716
11791
11762
11908
11867
11780
11781
11873
12221
12610
12753
12930
12974
12945
12891
12737
12542
12431
12293
12459
12060
11525
13661
18227
23780
24038
11289
8404
10240
10931
11948
12647
13060
13279
13410
13647
13686
13790
13986
14314
14584
14708
14977
15379
15739
16268
16742
17189
17637
17887
17891
17758
17532
16792
15861
14724
13584
12330
11675
11417
11515
11561
11526
11563
11764
11769
11813
11787
11943
11950
11857
11915
11928
11983
12006
12018
11998
12141
12236
12220
12305
12256
12084
12265
12721
13231
13363
13444
13428
13313
13051
12829
12705
12664
12806
12676
12040
12133
15491
20602
25948
19797
8726
9457
10481
11670
12655
13189
13336
13491
13713
13859
13952
14012
14289
14506
14688
15020
15263
15662
16076
16543
16876
17479
17852
18105
18076
17982
17518
16762
15773
14586
13332
12434
11291
11245
11399
11502
11602
11604
11622
11664
11779
11797
11689
11682
11881
11854
11736
11851
11975
12042
11947
11991
12015
12121
12078
12197
12241
12260
12221
12323
12328
12469
12366
12233
12626
13033
13398
13585
13512
13400
13351
13206
13178
12855
12791
12765
12786
12214
12498
15723
21011
26032
19774
8878
9797
10785
12039
12796
13329
13553
13578
13820
13959
14128
14097
14261
14570
14807
15107
15396
15646
16135
16563
17096
17564
15642
14405
13271
12273
11561
11250
11176
11177
11128
11252
11342
11520
11551
11569
11643
11662
11673
11696
11737
11703
11628
11729
11908
11831
11718
11702
11821
11775
11875
11890
11967
11974
12070
12061
12234
12194
12212
12290
12316
12286
12207
12193
12570
13061
13255
13215
13414
13564
13280
13098
12880
12749
12662
12772
12569
11942
13122
17440
22990
25611
14703
8448
10198
10863
12009
12780
13248
13306
13627
13721
13772
13831
14116
16169
16724
17225
17608
17883
18009
17721
17497
17011
16089
14886
13752
12684
11897
11392
11082
11046
11000
11086
11127
11126
11291
11396
11354
11422
11475
11621
11734
11634
11644
11752
11803
11740
11792
11888
12070
11931
11880
11880
11935
12093
12174
12148
12135
12167
12325
12334
12242
12124
12277
12860
13090
13383
13393
13516
13384
13154
12922
12738
12784
12770
12425
11984
12956
16785
22342
25853
15925
8372
10068
10868
12091
12912
13481
14585
14816
14957
15158
15395
16020
16445
16734
17378
17799
18058
18170
18066
17821
17435
16315
15273
13990
12971
12010
11539
11291
11087
11108
11150
10989
11081
11310
11401
11415
11643
11779
11732
11756
11770
11719
11673
11785
11747
11838
11944
11997
11906
12044
12076
12035
12017
12165
12172
12096
12290
12117
12258
12630
13004
13196
13272
13261
13185
13091
13078
12792
12645
12554
12546
12106
12194
15181
19994
25662
20380
8844
9445
13781
13780
13939
14204
14526
14592
14759
14946
15323
15679
16203
16743
17237
17784
18001
18083
18097
17861
17452
16739
15627
14536
13300
12281
11651
11303
10989
11022
11004
11185
11128
11096
11245
11456
11557
11558
11585
11647
11603
11603
11656
11671
11782
11641
11698
11792
11866
11929
11930
11907
11988
12018
11876
11839
12238
12636
13078
13274
13096
13114
13082
12852
12512
12460
12516
12438
12092
11967
14520
19111
24855
22515
9390
13362
13521
13737
13908
14140
14218
14296
14798
14916
15165
15527
16083
16492
17063
17493
17793
17892
18023
17944
17594
16710
15552
14340
13139
12126
11452
11040
10889
11012
10919
11076
11101
11039
11100
11294
11376
11538
11543
11563
11611
11741
11780
11662
11701
11580
11753
11850
11840
11980
12014
11714
11678
11919
12594
12909
13042
12947
13083
13011
12651
12426
12380
12500
12254
11975
11749
13925
18015
23501
23856
11052
8281
10352
11083
13895
13926
14138
14430
14663
14877
15067
15517
16054
16499
16924
17369
17573
17866
17826
17696
17225
16799
15764
14617
13408
12322
11807
11400
11027
11024
11070
11070
11221
11346
11399
11534
11602
11645
11842
11686
11611
11756
11902
11985
11811
11930
12007
11958
11864
11975
12003
11980
11949
12384
12710
13104
13211
13125
12927
12944
12777
12519
12360
12525
12303
12033
11988
14839
19774
25403
20363
8361
9264
10452
11663
12437
12907
14142
14275
14577
15076
15358
15719
16146
16574
17092
17477
17738
17824
17773
17572
17352
16394
15394
14189
13071
12101
11443
11183
11095
11074
11156
11274
11321
11475
11575
11501
11535
11655
11706
11799
11784
11797
11754
11778
11689
11828
11888
11874
12002
11816
11726
11987
12440
12739
12974
12927
12991
13043
12758
12665
12537
12270
12285
12311
12070
12057
14701
19353
25013
21160
8465
8799
10312
11578
12446
12928
13090
13355
13477
14906
15325
15612
15848
16369
17082
17474
17714
17909
17832
17632
17102
16330
15358
14241
13018
12136
11622
11245
11199
11104
11071
11078
11212
11265
11427
11509
11573
11638
11754
11738
11675
11754
11730
11706
11816
11838
11718
11889
11965
11932
11820
11838
12146
12532
12804
13070
13027
13044
12787
12663
12485
12342
12363
12482
12200
11879
13642
18000
23517
24354
11423
7997
10071
10996
12041
12770
13128
13216
13332
13532
13832
13998
13921
16175
16839
17223
17479
17615
17457
17371
17082
16583
15513
14537
13574
12605
11692
11331
11106
10944
11002
11057
11220
11305
11513
11530
11536
11498
11660
11628
11659
11688
11725
11768
11877
11821
11839
11725
11806
11646
11962
12359
12649
12874
13000
13001
12808
12584
12293
12265
12337
12294
12036
11838
13550
17881
23296
23828
11038
8334
10336
11097
11954
12673
13038
13152
13425
13591
13719
13827
14237
14339
14368
14623
15143
15344
17457
17306
16967
16240
15340
14327
13198
12290
11629
11349
11011
11072
11086
11141
11234
11375
11440
11680
11573
11655
11749
11863
11923
11817
11844
11715
11847
11948
11859
11938
11920
11853
12064
12285
12744
13012
13020
12987
12965
12803
12607
12297
12212
12277
12355
11999
11940
14472
18980
24782
21766
9006
8988
10367
11524
12319
12820
13205
13383
13602
13718
13783
13781
13934
14088
14453
14685
14956
15438
15789
16232
16717
17180
15235
14057
12929
12202
11579
11145
10892
10954
10993
11112
11349
11457
11561
11618
11557
11669
11715
11667
11599
11670
11909
11966
11947
11741
11890
12035
11957
11629
11911
12416
12693
13134
13197
13088
12915
12702
12580
12487
12287
12317
12244
11930
12157
15282
20403
25760
19227
7929
9293
10462
11626
12385
12779
13118
13429
13500
13662
13759
14010
14181
14321
14496
14843
15248
15597
15995
16242
16759
17211
17565
17661
17583
17319
17159
11175
11130
11003
11137
11194
11360
11496
11499
11476
11660
11767
11811
11761
11823
11763
11823
11707
11749
11865
11795
11859
11779
11933
11876
12258
12760
13100
12972
12914
12982
12868
12558
12302
12313
12420
12334
11856
12407
15738
20630
25489
18521
7674
9453
10555
11644
12384
12938
13200
13387
13432
13586
13940
13844
14093
14306
14703
14963
15241
15495
15931
16290
16705
17093
17540
17710
17639
17435
16960
16334
15464
14346
13146
11191
11315
11417
11456
11630
11581
11669
11867
11900
11894
12001
11907
11949
11931
12117
12036
11835
11825
11945
12313
12853
13086
13149
13038
12839
12763
12649
12510
12375
12382
12387
11977
12113
15040
19920
25482
20169
8268
9434
10746
11750
12442
12932
13227
13478
13505
13588
13782
14005
14175
14474
14603
14782
15019
15489
15847
16175
16715
17171
17357
17417
17481
17201
16902
16236
15378
14240
13133
12369
11720
11228
11069
10974
10996
11600
11812
11888
11896
11877
11744
11902
11845
11945
11841
11916
11986
12039
11964
12346
12799
12988
13051
13229
13093
12973
12837
12657
12419
12303
12505
12155
11877
13807
18168
23824
24357
11098
8628
10267
11234
12199
12971
13175
13340
13518
13698
13846
14008
14168
14223
14551
14783
15104
15458
15876
16182
16712
17144
17443
17489
17556
17552
17330
16793
16015
14886
13672
12704
11980
11603
11294
11162
11120
11200
11140
11369
11474
11754
11709
11725
11696
11832
11894
11975
11950
12049
12058
11935
12016
11840
11950
12402
13102
13298
13321
13138
13066
12839
12794
12579
12503
12492
12421
11998
12969
16610
21909
25875
15735
7667
9839
10992
12111
12776
12957
13229
13526
13648
13709
13958
14145
14349
14761
14876
15079
15156
15608
16133
16538
16881
17133
17490
17879
17637
17358
16912
16377
15377
14309
13247
12468
11700
11287
11197
11117
11117
11260
11366
11283
11282
11773
11696
11753
11803
11822
12010
12021
12108
12003
11902
11864
11855
12151
12590
12994
13101
13165
13103
12991
12762
12660
12330
12301
12605
12507
12015
13040
16860
22020
25478
15086
7429
9827
10681
11733
12686
13056
13187
13179
13524
13678
13922
14001
14174
14451
14785
15048
15180
15644
15969
16442
17000
17272
17393
17670
17733
17462
16824
16113
15196
14129
12976
12038
11635
11542
11133
11061
11067
11224
11405
11381
11423
11427
11468
11743
11757
11661
11831
12097
12112
12055
12064
11998
12099
12424
12854
13173
13058
13008
13113
12874
12576
12349
12391
12480
12290
12004
13877
18419
24223
24014
10579
8471
10125
11241
12256
12759
12938
13356
13547
13621
13908
13958
14129
14309
14498
14782
15157
15329
15677
16288
16790
17158
17411
17599
17763
17434
17020
16656
15874
14719
13676
12674
11965
11467
11031
11177
11139
11185
11269
11437
11362
11596
11798
11663
11637
11783
11968
11675
11568
11934
12566
12988
13006
13003
13020
12982
12836
12476
12290
12382
12424
12184
11762
13494
17894
23823
24464
11162
8258
10199
11314
12124
12640
13010
13317
13577
13651
13699
13898
14094
14414
14482
14686
15036
15385
15554
16102
16690
17062
17493
17724
17689
17587
17268
16860
15994
14912
13790
12727
11983
11411
11198
11073
11121
10988
11193
11126
11280
11406
11670
11690
11661
11752
11693
11769
11716
11691
11634
11785
11630
11789
12280
12754
13060
13155
13104
13169
12869
12710
12565
12473
12380
12357
12257
11932
13840
18383
24260
24183
10664
8287
9988
11162
12246
12729
13105
13354
13602
13745
13916
13873
14006
14269
14537
14742
15083
15578
15803
16212
16553
17060
17368
17793
17802
17641
17353
16926
15998
14887
13908
12801
11937
11450
11260
11185
11105
10939
11023
11129
11286
11312
11448
11457
11623
11778
11767
11658
11743
11721
11722
11756
11729
11986
12191
12647
12973
12933
12935
13018
12756
12549
12284
12322
12460
12431
11978
12483
16196
21299
25487
16897
7349
9562
10651
11743
12440
12865
13232
13189
13431
13630
13916
14023
14213
14453
14731
14940
15249
15603
16000
16621
16881
17278
17421
17712
17837
17492
17003
16399
15344
14283
13215
12330
11744
11394
11140
11088
11142
11271
11572
11528
11445
11357
11609
11657
11812
11882
11894
11906
12012
12092
12022
11806
11836
11874
11921
13177
13123
13110
13062
12792
12642
12554
12356
12425
12461
12039
12271
15545
20643
25902
19563
8175
9467
10525
11718
12505
12970
13320
13510
13607
13614
13871
14197
14237
14493
14621
14893
15123
15525
15862
16455
16875
17266
17565
17820
17841
17651
17184
16658
15674
14481
13353
12352
11675
11335
11264
11173
11238
11111
11340
11436
11371
11418
11591
11709
11730
11671
11660
11789
11786
11870
11898
11952
11966
11945
11880
12110
12033
11973
12848
12687
12623
12530
12386
12327
12422
12038
12259
15414
20694
25843
19236
7829
9169
10545
11796
12527
13045
13289
13460
13535
13849
13959
14092
14303
14457
14654
14898
15086
15503
15973
16374
16886
17191
17500
17563
17741
17570
17396
16633
15684
14514
13327
12410
11805
11371
11144
11073
10969
11046
11173
11409
11552
11668
11577
11771
11789
11822
11772
11814
11772
11715
11760
11713
11663
11975
12041
12170
12032
11886
11779
11968
12663
12456
12275
12261
12257
11976
12069
14710
19676
25238
22035
8666
8732
10270
11338
12268
12829
13189
13240
13483
13744
14042
13959
14154
14431
14561
14779
15113
15419
15893
16364
16845
17259
17508
17571
17551
17519
17082
16622
15705
14637
13544
12589
11901
11384
11043
11125
10983
11000
11163
11263
11456
11503
11491
11505
11765
11713
11789
11801
11876
11715
11755
11753
11798
11815
11850
11844
11877
11834
12042
12418
12816
12973
12950
12234
11873
11792
14300
19296
25082
21986
8873
8853
10282
11123
12069
12769
13101
13276
13390
13629
13839
13922
14121
14343
14490
14812
15071
15274
15786
16398
16845
17306
17636
17693
17747
17471
17175
16642
15735
14756
13539
12457
11755
11451
11115
11141
11161
11189
11169
11317
11318
11530
11623
11694
11762
11887
11949
11843
11805
11834
11959
11968
11968
11754
11917
11938
12013
11840
12046
12687
13132
13119
13051
13043
12917
12620
15637
20889
25779
18854
7804
9248
10417
11608
12388
12867
13040
13277
13451
13804
13958
14057
14201
14428
14704
14990
15336
15596
16041
16552
16951
17339
17700
17728
17856
17639
17268
16522
15586
14417
13255
12234
11777
11412
11208
11034
10983
11006
11144
11272
11347
11472
11546
11641
11625
11698
11745
11775
11773
11817
11764
11849
11811
11782
11616
11734
11957
11819
11869
12331
12872
13110
13068
12951
13092
12864
12645
12312
12087
25770
15280
7557
9564
10843
12071
12917
13421
13542
13664
13797
13965
14317
14367
14446
14549
14760
14935
15181
15546
16236
16642
17067
17549
17941
18068
18209
18209
17578
16595
15350
14061
12788
12678
12437
11790
11208
11098
11279
11619
11527
11394
11461
11603
11462
11465
11591
11754
11901
11813
12100
12214
12056
11896
12109
11961
12071
11798
11564
11493
11927
12198
12636
12836
12637
12405
12133
12099
11882
11902
11979
11871
11683
11463
9436
10840
11909
12432
12945
13254
13187
13291
13585
13873
14050
14115
14493
14821
15065
15539
15896
16183
16623
17036
17421
17507
17479
17450
17018
16303
15268
14191
13100
12119
11556
11163
11004
11003
10872
10852
11070
11406
11462
11548
11585
11649
11521
11867
12006
12011
11778
11720
11732
11775
11957
12034
11796
11725
12219
12655
12964
13064
13043
12892
12851
12676
12406
12224
12446
12413
12131
11576
13370
17873
23496
25370
12980
13385
13496
13638
13886
14008
14082
14368
14689
15095
15199
15523
15970
16364
16767
17322
17549
17785
17779
17567
17249
16474
15413
14264
13179
12129
11629
11360
11286
11001
11046
11113
11238
11274
11310
11495
11693
11567
11575
11890
11879
11756
11738
11816
11829
11784
11749
11815
11756
12135
12617
12732
12758
12837
12612
12684
12588
12523
12467
12401
12541
12396
11944
11656
14565
19546
25155
22075
9239
8911
10259
11277
12201
12777
13153
14671
14783
14901
15198
15667
16200
16685
17235
17788
17940
17979
17837
17797
17249
16379
15161
13987
12945
12195
11594
11342
11178
11075
11163
11137
11259
11314
11411
11476
11625
11628
11766
11676
11736
11739
11594
11493
11560
11853
11981
12051
12793
14930
17464
19814
21554
22968
23870
25566
26068
26138
26170
26182
26191
26187
26170
26199
26249
26283
26290
26279
26243
26186
26024
25238
24604
24186
23813
23349
22872
21431
17836
14621
11464
11846
12407
12910
13033
12626
12277
11826
10832
9125
6313
3782
1833
1023
555
330
249
654
1237
1695
2415
3257
3939
4542
4948
5602
6036
6148
6430
6631
5896
5207
4959
4936
5149
5211
5176
5416
6043
6646
7104
7167
7452
7809
7825
7793
7720
7768
7940
8122
7833
7801
10744
15962
21879
18403
5613
5970
7467
9072
10389
11471
12384
13224
13860
14401
15464
16172
16569
16872
17135
17321
17458
17623
18065
18569
18929
19183
18990
17911
11103
10322
9904
9703
9683
9819
9968
10018
10025
10169
10277
10336
10348
10443
10520
10620
10598
10724
10796
10903
10939
11092
11140
11113
10930
10831
11364
11909
12258
12508
12495
12508
12418
12163
12145
12016
12058
12091
11975
11597
13383
17808
23162
24543
12297
8014
10135
10826
11838
12801
13401
13765
13942
14150
14207
14419
14600
14791
15032
15320
15582
15940
16227
16623
17063
17585
18027
18137
18284
18117
17923
17388
16506
15358
11889
11835
12096
12248
12346
12414
12500
12532
12691
12718
12791
12864
12890
12906
12946
13001
12943
12845
12748
12726
12603
13080
13625
13880
13857
13810
13805
13719
13403
13175
13107
13232
13137
12621
12210
14457
19146
25025
23993
10777
9112
10625
11607
12482
13260
13529
13774
14041
14193
14278
14380
14569
14692
14842
15124
15445
15738
16228
16567
17039
17418
17804
17960
18067
17962
17636
16979
15910
14770
13684
12769
12098
11630
11680
11780
11875
11968
11916
11980
11941
12037
12021
12084
12033
12004
11996
12087
11964
12124
12144
11942
12074
12610
13017
13182
13292
13280
13280
13039
12895
12557
12338
12459
12604
12290
11897
13899
18380
24434
24124
10767
8366
9821
11124
12115
12839
13128
13310
13625
13702
13913
13940
14141
14325
14511
14733
15016
15472
15889
16259
16648
17170
17472
17719
17792
17663
17319
16821
15848
14791
13615
12543
11791
11323
11061
10898
10930
11627
11592
11593
11655
11661
11722
11706
11698
11648
11785
11785
11868
11890
12003
12010
11981
11882
11921
12356
12754
13073
13098
13015
12972
12916
12672
12507
12367
12431
12508
12275
11863
13771
18221
24321
24158
10703
8215
9811
11143
12093
12765
13165
13357
13411
13858
13939
14103
14263
14469
14536
14767
15095
15426
15773
16322
16732
17123
17580
17764
17798
17653
17462
16915
16066
14956
13829
12777
11968
11493
11270
11127
11079
11615
11675
11625
11734
11688
11714
11749
11762
11754
11742
11720
11818
11985
11956
11970
11860
11932
11883
12199
12641
12993
13102
12970
12942
12887
12671
12435
12312
12309
12361
12099
11631
12876
16975
22637
25779
14497
7905
9817
10680
11733
12436
12953
13173
13286
13433
13569
13790
14003
14072
14363
14574
14867
15157
15558
15937
16396
16797
17264
17586
17548
17274
17101
16800
16094
14973
13825
12785
11962
11455
11187
11077
10942
10955
11225
11172
11168
11215
11210
11304
11354
11570
11576
11510
11460
11568
11670
11533
11470
11614
12104
12441
12652
12694
12728
12591
12485
12450
12280
12194
12239
11988
11542
12311
15877
21430
25950
16898
7813
9673
10590
11723
12554
12950
13170
13364
13561
13741
13874
14128
14273
14475
14665
14938
15333
15761
16215
16538
16931
17335
17623
17677
17573
17286
16890
16162
15199
14011
12986
12223
11688
11450
11244
11071
11224
11288
11363
11867
11979
12041
11948
11930
11866
11967
11998
12088
12108
12227
12124
12023
12097
12586
12965
13086
13122
13191
13167
12929
12754
12527
12504
12528
12445
11891
12725
16450
21872
25900
16286
7968
9925
10808
12017
12764
13189
13434
13562
13702
13746
14013
14105
14341
14608
14899
15015
15411
15764
16216
16616
17090
17438
17593
17842
17854
17471
17031
16400
15430
14296
13156
12365
11633
11406
11224
11207
11208
11297
11262
11453
11627
11560
11788
11789
11956
11933
11899
11924
12064
11913
11816
11829
12329
12763
13160
13177
13204
13168
12986
12672
12511
12272
12441
12560
12055
11996
14836
19606
25480
21950
8619
8710
10247
11450
12258
12993
13107
13353
13510
13610
13801
14079
14147
14264
14598
14855
15171
15470
15823
16301
16853
17220
17434
17480
17412
17331
17148
16593
15601
14461
13475
12567
11855
11494
11129
11016
11092
11104
11229
11341
11398
11584
11641
11714
11800
11794
11860
11863
11841
11955
11862
11840
12197
12780
12961
12967
12986
12936
12652
12523
12335
12434
12397
12364
11922
12128
15179
20157
25722
20218
8101
9092
10539
11716
12556
12951
13210
13360
13545
13645
13999
14121
14193
14386
14665
14934
15279
15639
16025
16398
16898
17341
17538
17636
17641
17549
17167
16504
15619
14463
13198
12287
11727
11395
11247
11073
11052
11198
11303
11295
11412
11518
11566
11588
11584
11618
11702
11800
11658
11669
12046
12613
13052
13035
12951
12766
12678
12581
12292
12216
12398
12333
12130
12027
14692
19416
24777
21983
8543
8652
10250
11291
12171
12982
13195
13295
13479
13595
13712
14051
14288
14463
14617
14852
15179
15528
15916
16275
16710
17081
17373
17420
17447
17254
16912
16241
15400
14378
13331
12456
11843
11527
11222
11071
11088
11191
11135
11234
11398
11549
11584
11750
11822
11787
11849
11965
11966
11859
11868
11826
11811
11695
12870
12829
12616
12475
12314
12198
12257
12227
11746
12618
16379
21635
25823
16087
7567
9732
10744
11722
12488
12973
13441
13558
13696
13878
13892
14101
14247
14470
14676
14953
15196
15653
16061
16566
16921
17195
17395
17428
17288
17026
16605
15883
14904
13700
12775
12078
11593
11109
11104
11143
11224
11231
11331
11417
11596
11705
11687
11838
11933
11929
11920
11862
11884
11909
11916
11963
11932
11851
11834
12321
12639
13009
13126
12346
12409
11937
12232
15529
20732
25884
18147
7925
9609
10727
11900
12731
13158
13200
13394
13493
13777
14051
14187
14325
14635
14698
15006
15407
15721
16185
16643
16973
17294
17606
17478
17536
17310
16804
16034
15182
13980
13013
12304
11786
11383
11252
11179
11178
11398
11558
11552
11618
11845
11847
11901
11767
11765
11926
12043
11953
12086
12022
12143
12088
11981
12100
12536
12878
13116
13189
13160
13037
12771
12693
12501
12499
12539
13902
8289
10185
11229
12252
12961
13280
13374
13631
13815
13997
14123
14368
14512
14722
14958
15162
15545
15851
16361
16735
17145
17540
17693
17767
17572
17235
16902
16125
15020
13826
12814
12102
11580
11445
11475
11439
11339
11513
11648
11769
11821
11871
11873
11932
11952
12020
12012
12180
12195
12050
12013
12156
12111
12012
12027
12299
12829
13168
13334
13195
13140
12992
12839
12543
12518
12563
12544
12165
12020
14390
19083
25048
13041
13396
13650
13780
14005
14204
14360
14566
14684
14913
15138
15487
15679
16171
16692
17161
17381
17535
17776
17602
17351
16921
16118
14939
13740
12961
12334
11669
11466
11258
11201
11232
11334
11451
11566
11566
11646
11709
11645
11637
11856
11965
11797
11821
11857
11944
11949
11899
11706
11634
11961
12453
12734
12955
12913
12902
12678
12473
12390
12315
12307
12251
11788
11800
14905
20117
25653
20819
8186
9174
10347
11403
12285
13937
14183
14434
14690
14983
15229
15610
16130
16486
16830
17220
17373
17419
17275
17074
16436
15524
14440
13510
12506
11722
11272
11110
10974
10852
10977
11077
11258
11334
11409
11492
11637
11679
11730
11775
11748
11684
11913
11909
11910
11874
11887
11793
12005
12471
12946
13129
12999
12933
12874
12747
12490
12415
12327
12379
12125
11648
13438
18037
23928
24771
11309
8585
10406
11321
12308
12979
13176
13373
13600
13723
13972
14085
14398
16533
17019
17302
17624
17645
17523
17296
16975
16191
15077
13928
12896
12299
11759
11448
11198
11224
11217
11414
11536
11488
11603
11739
11880
11983
11976
11968
12033
11932
11965
12070
12201
12039
11919
11983
12336
12634
13106
13176
13148
12934
12693
12598
12491
12299
12337
12377
11941
11560
13938
18925
25093
23015
9504
8917
10258
11423
12250
12962
13131
13292
13421
13611
13865
14092
14184
14354
14576
14758
15133
15440
15909
16310
16639
15758
14641
13485
12637
11937
11313
11104
11122
11073
11015
11198
11350
11375
11429
11539
11678
11770
11703
11773
11804
11782
11684
11785
11877
12063
11898
11724
11726
12251
12786
13067
12948
12913
12778
12575
12445
12236
12171
12216
12200
11636
12285
15957
21657
25917
16267
7804
9675
10605
11677
12418
12814
13113
13361
13475
13649
13847
13992
14267
14433
14684
14892
15200
15549
15985
16354
16856
17185
17386
17594
17564
17195
16615
11748
11757
11723
11755
11762
11844
11917
11888
11742
11660
12049
12501
12841
12907
12924
12925
12752
12619
12432
12164
12153
12278
12138
11792
13908
18755
24836
23594
9627
8249
9943
11149
12062
12663
12947
13109
13291
13672
13679
13997
14120
14343
14520
14741
14975
15386
15757
16168
16635
17096
17451
17546
17479
17372
17074
16498
15580
14354
13251
12239
11624
11165
11101
10998
10943
11004
11028
11221
11370
11481
11481
11528
11661
11789
11693
11611
11777
11925
11957
11915
11743
12008
12481
12841
12980
12997
12967
12901
12765
12632
12476
12398
12406
12305
11857
12900
17160
22789
25859
14875
7471
9477
10497
11732
12518
12987
13211
13362
13508
13644
13855
13953
14181
14362
14602
15033
15318
15652
15996
16597
17169
17488
17568
17722
17646
17443
16954
16076
14980
13848
12759
12054
11514
11033
11034
10939
11040
11019
11170
11265
11350
11400
11618
11656
11757
11757
11745
11940
11886
11915
11939
12000
11949
11781
12008
12551
12894
13168
13184
13180
13104
12943
12671
12494
12393
12398
12386
11994
12988
17096
22752
25915
15061
7970
9784
10704
11900
12625
13103
13376
13608
13691
13812
13916
14095
14334
14470
14668
15131
15451
15781
16209
16642
17123
17521
17855
17864
17752
17544
17160
16264
15208
13979
12725
11974
11533
11126
10845
10892
10908
11100
11277
11431
11498
11646
11701
11667
11652
11772
11789
11795
11782
11835
12009
12138
12154
12117
12034
11951
12075
12060
11901
12081
12549
12878
13100
13088
13118
12967
12848
12697
12537
12429
12417
12375
11916
12629
16381
21957
25911
16717
8069
10005
10862
11910
12601
13090
13242
13432
13517
13733
13889
14038
14192
14428
14738
14956
15249
15650
16098
16498
16959
17320
17557
17669
17659
17438
17231
16522
15514
14374
13224
12226
11767
11433
11124
11010
11056
11240
11319
11456
11516
11616
11732
11715
11827
11972
12047
12134
12215
12016
12039
12188
12397
12358
12206
12171
12636
13020
13192
13272
13381
13354
13208
13035
12817
12756
12710
12706
12227
12049
14628
19727
25619
22709
9878
9529
10793
11674
12499
13094
13279
13457
13601
13712
13768
14061
14393
14415
14598
14984
15265
15493
16003
16400
16787
17186
17653
17863
17915
17762
17500
16952
16010
14892
13660
12634
11884
11476
11156
11146
11078
11056
11084
11283
11430
11520
11726
11821
11809
11747
11866
12003
11988
11964
11976
12024
12056
12023
12033
12118
12231
12190
12245
12262
12384
12448
12341
12099
12359
12830
13202
13337
13352
13414
13407
13394
13246
13152
12822
12786
12759
12717
12178
12894
16585
22304
26053
17609
8893
10427
11157
12153
12864
13215
13500
13532
13591
13854
14096
14192
14395
14557
14768
15056
15378
15541
16021
16509
17022
17457
17858
18064
18006
17902
17539
16936
16044
14912
13602
11083
11118
11239
11255
11328
11392
11541
11583
11622
11601
11731
11871
11827
11790
11769
11786
11737
11870
11896
11921
11948
11963
11974
12059
12101
12273
12229
12224
12236
12441
12420
12310
12524
12497
12477
12602
13058
13283
13418
13389
13433
13391
13240
13042
12920
12730
12643
12715
12576
12203
13769
18059
23993
25459
13378
8288
10114
11219
12188
13075
13388
13446
13706
13938
14102
14220
14270
14511
14765
14962
15242
15521
15867
17978
17722
17201
16511
15478
14340
13076
12193
11583
11310
11115
11073
11005
11175
11228
11328
11325
11307
11575
11703
11593
11600
11677
11689
11782
11860
11750
11695
11736
11714
11790
11816
11896
11946
12038
12011
12150
12091
11946
12074
12223
12336
12380
12295
12229
12452
12789
13201
13383
13248
13165
13259
13152
12975
12885
12655
12604
12639
12239
11835
14228
19079
25057
24005
10673
8558
10205
11287
12337
12939
13205
13405
13608
13784
15220
15600
15846
16456
16919
17398
17812
18041
17968
17852
17527
16996
16019
14912
13716
12765
11894
11351
11045
10973
11021
11136
11222
11123
11179
11343
11520
11549
11623
11540
11668
11678
11763
11645
11778
11752
11789
11715
11794
11764
11715
11808
11961
12112
12043
12022
12020
12046
11904
12216
12610
13170
13334
13138
13122
13165
13021
12804
12559
12456
12549
12551
12242
12948
16704
22123
25989
16960
8288
9991
10898
11990
12771
14157
14281
14525
14713
14932
15390
15817
16225
16682
17171
17652
17980
18072
18022
17898
17328
16508
15430
14287
13093
12228
11571
11086
10841
10968
11008
10905
11192
11291
11359
11395
11541
11554
11585
11508
11554
11554
11559
11692
11976
11850
11686
11664
11664
11652
11851
12019
11978
12097
12104
12021
11886
12303
12725
12991
12980
12970
12930
13015
12790
12621
12667
12644
12561
12433
12123
13754
18130
23727
24772
12279
7750
9942
13932
13883
14074
14259
14563
14795
15133
15368
15728
16138
16599
17151
17621
17887
18157
18290
18198
17929
17518
16662
15474
14313
13205
12289
11654
11435
11280
11199
11134
11333
11641
11615
11667
11799
11907
11924
11826
11863
11893
11816
12063
12046
12067
12004
12085
12045
12126
12183
12097
11927
11790
12216
12797
13248
13496
13379
13148
13103
12942
12683
12575
12643
12538
12351
12027
13442
17441
23126
25651
14156
7590
9739
10866
12144
14324
14427
14651
14902
15079
15275
15661
16011
16580
17040
17558
17948
18362
18444
18206
17843
17284
16513
15460
14321
13215
12291
11649
11312
11197
11286
11171
11223
11338
11679
11716
11758
11788
11846
11871
11880
11910
11988
12004
12024
12035
11910
11934
12217
12439
12336
12130
12161
12660
13048
13331
13404
13323
13337
13173
13136
12866
12764
12780
12854
12394
12216
14540
19348
25229
24018
10441
8475
10256
11780
12739
13278
13737
14902
15241
15517
15846
16125
16673
17401
17827
18133
18587
18750
18754
18545
18296
17688
16770
15556
14409
13449
12651
12171
11894
11701
11705
11858
12040
12210
12242
12306
12411
12546
12490
12480
12576
12644
12550
12572
12634
12708
12728
12543
12517
12586
12795
13145
13385
13661
13892
13761
13738
13488
13462
13172
13082
13018
13013
12598
12857
16033
21156
26060
21394
9036
9594
11043
12355
13093
13610
14000
14152
14190
14347
14688
14698
16905
17246
17914
18368
18608
18798
18751
18427
18076
17504
16419
15269
14143
13222
12653
12310
12177
12287
12315
12539
12523
12610
12763
12883
13037
12990
12935
13055
13266
13223
13386
13381
13304
13275
13412
13426
13423
13733
14203
14574
14752
14635
14501
14303
14311
14168
13989
14127
14175
13627
13789
17072
22066
26139
23189
10924
11074
12387
13823
14707
15073
15369
15597
15762
15955
16059
16249
16387
16611
16855
17064
17284
17695
19846
19670
19425
18787
17744
16642
15519
14653
14111
13784
13764
13809
13965
14263
14648
15141
15555
15911
16169
16582
17134
17270
17425
17524
17677
17864
17707
17540
17471
17792
18202
18401
18460
18286
18043
17916
17534
17120
16895
16889
16833
16504
15894
17329
21473
26120
26172
17659
12033
13150
14216
15120
15637
15700
15824
15932
15938
15934
15943
16064
16174
16221
16476
16549
16750
17066
17442
17821
18096
18307
18532
18547
18265
11868
11300
11192
11030
11054
11298
11403
11399
11491
11460
11391
11390
11340
11242
11228
11279
11405
11551
11385
11163
11172
11251
11610
12084
12226
12323
12261
12186
12003
11779
11371
11262
11590
11798
11345
11249
14225
19427
25114
20225
7889
8328
9864
11205
12114
12578
13015
13534
14075
14606
15242
15937
16446
16891
17272
17858
18466
19071
19580
19982
20403
20924
21273
21316
21220
21057
20631
19925
18933
17895
16729
15674
14758
13401
13294
13287
13283
13223
13216
13140
13108
12981
12965
12921
12783
12755
12528
12359
12433
12696
13025
13308
13322
13162
13052
12979
12731
12483
12445
12423
12365
12064
11735
14207
19141
25059
23400
10448
9771
11549
12933
13722
14245
14539
14718
14774
14828
14830
14887
14885
14938
15126
15356
15527
15638
15991
16445
16755
17118
17339
17278
17134
16967
16638
16069
15131
14048
12960
11905
11020
10501
10165
10046
9949
10052
10105
10050
9776
9796
9883
9920
9724
9834
9850
9739
9815
10206
10510
10679
10748
10603
10631
10471
10328
10034
9927
10109
10137
9673
9921
12998
17911
23173
17583
5666
6854
8136
9118
9945
10613
10897
11105
11234
11366
11607
11772
12027
12157
12341
12690
13084
13314
13660
14129
14642
15042
15340
15470
15476
15229
14924
14390
13609
12621
11631
10776
10145
9709
9587
9673
9669
9770
9897
9967
10054
10111
10169
10338
10372
10436
10334
10515
10623
11224
11502
11826
11895
11856
11590
11566
11389
11260
11293
11339
11050
10868
13291
17961
23845
22016
8667
7895
9384
10532
11359
12086
12504
12691
12854
12968
13092
13333
13567
13793
14022
14200
14386
14749
15156
15613
16116
16468
16805
17050
16905
16716
16500
15956
15202
14275
13184
12251
11689
11189
10897
10755
10862
10942
11065
11177
11064
11188
11286
11471
11416
11491
11823
11699
11241
11345
11519
11531
11468
11476
11347
11285
11608
12089
11921
11891
11922
11938
11603
11582
14127
18791
24737
21964
8807
8320
9775
11059
11991
12698
12896
13017
13170
13378
13595
13779
13798
13829
14183
14519
14828
15356
15524
15800
16322
16743
16977
17114
17237
17062
16737
16200
15357
14363
13406
12379
11788
11325
11011
10874
11111
11216
11102
11233
11363
11365
11369
11460
11580
11585
11540
11588
11445
11571
11765
11745
11608
11764
11918
11717
11532
11783
12271
12844
13061
12933
12935
11701
11594
14127
18928
24838
22021
8594
8230
9884
11364
12123
12578
12868
13107
13254
13351
13462
13732
13956
14114
14467
14730
14969
15331
15662
16055
16479
16799
17138
17230
17195
17095
16714
16265
15594
14635
13614
12567
11879
11446
11213
11122
11222
11217
11341
11369
11374
11449
11597
11593
11524
11555
11696
11657
11634
11578
11702
11800
11755
11598
11714
11998
11763
11529
11654
12257
12742
13045
12940
12780
12853
12657
12661
17743
23589
24123
10503
7732
9835
11098
11975
12724
13128
13189
13369
13529
13745
13844
14017
14128
14471
14720
14939
15199
15633
16099
16438
16825
17094
17303
17311
17039
16822
16510
15776
14865
13775
12752
12128
11593
11189
11116
11063
11111
11276
11386
11460
11554
11613
11711
11750
11749
11599
11585
11749
11638
11577
11538
11615
11737
11761
11759
11720
11707
11886
12377
12747
12876
12897
12888
12753
12417
12196
12123
12143
12143
11896
8794
9853
11315
12281
12836
13057
13244
13460
13627
13703
13878
14051
14177
14461
14881
15190
15499
15827
16169
16675
16923
17112
17232
17087
16846
16610
16130
15238
14299
13160
12183
11708
11387
11073
11101
11002
11145
11054
11220
11434
11564
11581
11591
11577
11549
11752
11679
11692
11697
11700
11812
11719
11596
11567
11700
12171
12557
12822
12914
12721
12677
12597
12397
12175
12108
12166
12086
11664
12135
15724
21142
25759
17175
12930
13210
13469
13614
13845
13948
14076
14370
14850
15025
15313
15700
16047
16474
16969
17179
17251
17147
17155
16892
16240
15494
14656
13539
12617
11902
11396
11232
11102
11117
11229
11311
11456
11475
11696
11870
11883
11760
11698
11758
11787
11815
11791
11769
11821
12005
11797
11745
11801
12034
12523
12929
13045
12851
13045
12996
12749
12483
12114
12212
12402
12079
11589
13453
18033
24140
24921
11308
8036
9744
11143
12236
12758
14025
14220
14516
14773
15119
15317
15735
16291
16681
16933
17247
17346
17298
17089
16628
15995
15070
14149
13017
12144
11683
11446
11073
10856
11019
11281
11351
11439
11454
11608
11633
11756
11722
11669
11614
11574
11617
11797
11816
11834
11879
11803
11759
11781
12019
12455
12854
13043
13003
12904
12722
12631
12436
12270
12187
12195
11981
11663
13658
18334
24402
23660
9874
8221
10049
11370
12211
12753
13005
13166
13387
13531
13802
13912
15640
16141
16612
17054
17173
17269
17177
16979
16671
16000
15043
13994
12901
12065
11619
11288
11148
11111
11121
11252
11402
11451
11520
11603
11658
11689
11643
11623
11745
11725
11684
11689
11698
11670
11702
11756
11694
11637
11687
12183
12731
13015
12949
12869
12815
12512
12422
12173
12171
12316
12044
11702
12695
16513
22089
25862
15500
7388
9310
10590
11838
12597
12845
12982
13332
13445
13507
13716
13923
13960
14229
14563
14778
17170
17050
16976
16799
16280
15488
14497
13546
12619
11700
11183
11073
11016
10983
11064
11231
11344
11256
11302
11461
11601
11732
11664
11691
11705
11675
11727
11750
11639
11837
11874
11749
11703
11878
12228
12737
12881
12807
12900
12762
12497
12303
12164
12241
12245
12023
11731
12927
17044
22602
25389
13351
7380
9764
10633
11820
12660
13028
13138
13282
13436
13611
13732
13979
14232
14448
14636
14922
15265
15622
16002
16482
16923
17127
14034
13040
12228
11578
11282
11050
10986
11186
11102
11115
11263
11542
11601
11654
11747
11692
11823
11975
11850
11673
11801
11824
11934
11843
11749
11828
11852
12331
12789
13076
13031
12869
12774
12614
12410
12248
12185
12274
12216
11699
12253
15841
21448
25953
16758
7810
9570
10530
11774
12585
12910
13070
13300
13511
13581
13803
13901
14119
14321
14486
14713
15262
15704
15987
16235
16795
17118
17293
17347
17209
17050
16652
15802
10865
10912
11091
11157
11258
11478
11617
11733
11680
11733
11749
11755
11710
11802
11836
11972
12029
11852
11848
11856
11722
11943
12418
12950
13063
13046
13087
12835
12634
12520
12421
12281
12302
12168
11735
12610
16560
22235
25918
15386
7677
9571
10724
11779
12493
12949
13219
13385
13541
13655
13685
13936
14126
14305
14581
14829
15127
15483
15927
16341
16808
17141
17293
17323
17181
17153
16793
15825
14824
13858
12845
12025
11364
11169
11302
11442
11533
11634
11779
11732
11636
11588
11733
11877
11827
11753
11973
11872
11718
11818
12231
12603
12901
13007
12930
12916
12775
12475
12218
12196
12436
12400
11789
11994
15435
20765
25874
19092
7665
8907
10417
11744
12506
12929
13268
13487
13636
13746
13777
13963
14165
14295
14616
14919
15278
15513
15882
16429
16750
17062
17309
17496
17313
17162
16847
16174
15111
14232
13168
12199
11648
11228
10945
10913
10936
11114
11291
11634
11561
11577
11732
11632
11491
11566
11703
11715
11756
11611
11832
12480
12774
12763
12845
12863
12702
12583
12237
12199
12162
12071
11929
12090
14730
19863
25383
21480
8224
8675
10064
11200
12155
12738
13014
13215
13541
13612
13740
13858
13995
14214
14547
14837
15086
15368
15799
16181
16593
17027
17260
17558
17362
17195
16726
15995
15142
14270
13093
