11721
12454
12902
13113
13157
13094
13062
12886
12750
12580
12531
12516
12415
11937
12783
16535
21804
25643
15489
7793
9772
10661
11749
12610
13060
13310
13482
13663
13796
13929
14071
14270
14386
14588
14919
15225
15613
15999
16477
16929
17362
17615
17757
17711
17573
17150
16470
15458
14340
13225
12283
11678
11327
11143
11020
11062
11133
11247
11302
11444
11477
11591
11634
11667
11700
11755
11760
11794
11817
11818
11858
11849
11904
11926
12466
12837
13086
13067
13072
13016
12884
12707
12554
12443
12454
12319
11879
12522
16171
21474
25782
16326
7611
9524
10468
11691
12514
13019
13217
13418
13594
13776
13884
14046
14214
14424
14630
14941
15239
15564
15981
16393
16886
17240
17617
17735
17778
17574
17252
16616
15675
14521
13396
12431
11774
11393
11190
11070
10981
11088
11182
11311
11399
11512
11573
11675
11687
11701
11720
11748
11741
11810
11774
11769
11803
11843
11846
12077
12617
12940
13100
13080
13124
12976
12844
12600
12458
12429
12523
12302
11948
13719
18100
23701
24277
11091
8013
9897
10896
12026
12790
13146
13347
13507
13657
13845
13997
14171
14292
14499
14691
15012
15310
15691
16106
16574
17071
17459
17728
17858
17847
17627
17233
16440
15414
14201
13127
12210
11625
11280
11150
11042
11058
11150
11260
11349
11399
11469
11564
11673
11704
11764
11715
11741
11778
11849
11840
11912
11867
11893
11897
12578
12919
13097
13108
13075
13009
12805
12636
12435
12465
12521
12362
11825
13182
17288
22624
24985
13340
7654
9771
10626
11825
12693
13100
13314
13481
13680
13824
13981
14096
14292
14484
14715
14952
15276
15635
16053
16490
17007
17468
17765
17876
17842
17652
17255
16598
15555
14421
13226
12362
11679
11315
11076
11020
11017
11092
11192
11246
11341
11445
11547
11583
11656
11671
11728
11726
11761
11738
11795
11791
11818
11780
11793
12889
12918
12907
12883
12717
12570
12376
12307
12384
12249
11796
12790
16694
21819
25088
14652
7450
9638
10471
11579
12461
12959
13203
13426
13609
13765
13915
14025
14169
14408
14650
14900
15151
15546
15921
16409
16862
17278
17562
17771
17734
17579
17221
16535
15530
14335
13248
12314
11721
11338
11172
11081
11085
11132
11247
11317
11466
11528
11602
11643
11686
11763
11762
11806
11793
11793
11792
11851
11865
11931
11903
12003
11956
11894
12895
12739
12529
12376
12332
12359
12211
11750
13006
17041
22471
25236
13547
7808
9797
10726
11830
12618
13054
13263
13472
13609
13767
13901
14050
14230
14460
14664
14929
15265
15625
16041
16460
17000
17423
17757
17851
17853
17642
17318
16595
15566
14409
13280
12331
11699
11370
11194
11112
11089
11202
11260
11382
11450
11538
11611
11721
11720
11785
11766
11766
11781
11812
11785
11782
11816
11859
11936
11962
12025
11952
11838
11921
12762
12544
12405
12393
12434
12144
11825
13597
17887
23473
24409
11413
8039
9876
10888
11994
12774
13140
13315
13526
13654
13830
13945
14131
14216
14426
14689
14982
15298
15637
16026
16496
17044
17462
17753
17815
17808
17584
17217
16450
15458
14290
13211
12241
11664
11306
11114
11072
11120
11187
11252
11333
11410
11538
11586
11620
11657
11723
11694
11740
11774
11815
11810
11832
11836
11882
11884
11933
11972
11996
12035
11972
11942
12192
12761
12512
12453
12482
12501
12054
12246
15262
20046
25091
19682
7944
9095
10323
11325
12329
12961
13204
13344
13595
13738
13912
14040
14242
14399
14601
14830
15163
15498
15929
16354
16804
17237
17632
17854
17782
17711
17424
16950
16056
15021
13855
12839
11973
11495
11224
11099
11052
11128
11243
11357
11441
11536
11588
11622
11678
11717
11786
11779
11827
11799
11829
11819
11902
11895
11897
11848
11959
11955
11863
11799
12143
12595
12452
12377
12401
12392
11953
12467
15764
20688
25400
17766
7659
9441
10443
11526
12439
12981
13206
13395
13586
13714
13863
14026
14209
14349
14593
14819
15116
15414
15835
16277
16746
17186
17502
17694
17699
17537
17226
16688
15759
14654
13535
12583
11881
11485
11197
11141
11079
11169
11239
11325
11395
11463
11543
11605
11690
11719
11793
11805
11825
11816
11849
11855
11916
11936
11961
11938
11988
12028
12142
12114
11974
12040
12479
12620
12448
12458
12500
12316
11792
13262
17376
22870
24751
12355
7900
9880
10869
12008
12771
13142
13340
13535
13708
13812
13981
14119
14317
14513
14736
14948
15284
15598
16015
16433
16941
17330
17636
17756
17719
17505
17138
16499
15536
14446
13354
12449
11764
11427
11201
11136
11090
11188
11267
11356
11443
11554
11616
11680
11697
11708
11709
11707
11754
11745
11780
11774
11826
11848
11889
11870
11920
11978
12018
12076
12095
12016
11940
12897
12725
12536
12455
12517
12435
12000
12538
16096
21135
25695
17106
7565
9373
10452
11687
12619
13108
13338
13489
13654
13821
13968
14137
14318
14476
14688
14933
15205
15567
15927
16409
16855
17350
17679
17894
17847
17749
17437
16903
16066
14970
13870
12795
12026
11499
11290
11138
11107
11159
11265
11309
11412
11382
11475
11531
11612
11633
11660
11700
11705
11746
11710
11721
11733
11790
11772
11822
11844
11919
11900
12030
12044
13055
12952
12857
12716
12521
12427
12465
12441
12082
12543
15761
20606
25065
18198
7540
9345
10394
11403
12329
12996
13205
13420
13594
13732
13906
14046
14224
14385
14605
14834
15136
15408
15810
16216
16673
17044
17441
17584
17603
17447
17152
16661
15867
14846
13741
12777
12027
11617
11311
11200
11141
11201
11215
11340
11429
11521
11609
11711
11713
11765
11777
11795
11842
11818
11852
11896
11889
11836
11822
11839
11983
11995
11902
11823
12769
12586
12466
12408
12460
12342
11909
12582
16123
21232
25471
16361
7469
9583
10509
11639
12497
13047
13243
13444
13592
13752
13908
14055
14214
14393
14610
14875
15186
15492
15935
16346
16825
17296
17628
17727
17724
17496
17183
16571
15681
14610
13499
12542
11856
11436
11190
11094
11054
11125
11222
11333
11420
11497
11560
11656
11671
11708
11715
11758
11771
11787
11798
11800
11831
11872
11901
11883
11969
11902
11867
11954
12432
12489
12379
12365
12436
12081
11721
13484
17821
23226
24311
11442
7842
9784
10767
11954
12728
13118
13271
13501
13635
13777
13906
14109
14239
14451
14681
14975
15245
15612
16064
16543
17007
17361
17640
17668
17652
17434
17085
16408
15434
14313
13206
12292
11695
11311
11104
11072
11058
11147
11222
11313
11375
11521
11600
11678
11699
11799
11809
11876
11816
11811
11793
11863
11835
11880
11882
11868
11945
11945
11873
11767
12164
12626
12947
12287
12328
12256
11906
12309
15598
20556
25404
18085
7413
9015
10213
11543
12446
12973
13188
13383
13551
13764
13904
14071
14199
14409
14584
14845
15128
15460
15800
16267
16739
17154
17520
17693
17705
17502
17248
16732
15883
14766
13680
12673
11970
11462
11206
10996
10969
11009
11148
11311
11441
11565
11615
11627
11634
11700
11680
11736
11740
11774
11773
11803
11826
11820
11747
11870
11963
11970
11908
11810
12095
12549
12888
13049
12493
12442
12101
12008
14889
19625
24958
20798
8241
8749
10144
11217
12243
12863
13177
13541
13683
13776
13955
14096
14220
14425
14630
14826
15098
15462
15880
16487
16979
17308
17441
17624
17570
17446
17164
16682
15920
14982
13983
12938
12144
11640
11384
11228
11186
11203
11324
11430
11518
11506
11618
11609
11589
11633
11797
11744
11744
11886
11821
11825
11881
11816
11874
11776
11918
11894
12053
12700
13195
13378
13202
12944
12765
12190
15012
19533
24289
19384
7628
8645
10191
11037
12046
12742
13178
13379
13438
13676
13994
14078
14180
14372
14542
14805
15045
15383
15753
16161
16669
17180
17460
17666
17714
17525
17221
16727
15859
14898
13855
12750
11969
11493
11255
11141
11082
11110
11311
11467
11588
11616
11683
11732
11762
11845
11885
11921
11973
11962
11965
11981
11938
11991
12086
12041
11970
12113
12442
12826
13057
13061
13048
12922
12709
12474
12323
12331
12292
8625
8445
9856
11044
12076
12805
13229
13537
13487
13473
13703
13935
14087
14253
14470
14734
15064
15405
15775
16242
16701
17157
17458
17609
17727
17633
17309
16751
15982
14942
13880
12858
12096
11656
11409
11296
11208
11250
11338
11497
11637
11614
11679
11736
11760
11844
11837
11846
11711
11844
11915
11900
11877
11942
11984
11931
11824
11893
12276
12649
13027
13131
13057
12959
12802
12568
12354
12356
12365
12361
12066
11904
14329
11552
12492
12990
13180
13332
13544
13755
13948
14096
14159
14368
14643
14798
15085
15461
15917
16297
16724
17206
17548
17621
17619
17349
16984
16437
15508
14479
13411
12501
11761
11313
11161
11098
11162
11250
11373
11386
11475
11602
11703
11761
11737
11740
11827
11768
11824
11896
11869
11883
11993
11912
11813
11846
11960
12419
12723
12962
13049
13075
12993
12712
12518
12316
12270
12262
12275
11953
12099
15036
19869
25149
19651
7770
8829
13547
13693
13893
14064
14283
14486
14734
15025
15378
15684
16030
16564
17081
17470
17672
17698
17561
17394
17011
16209
15272
14179
13099
12198
11572
11319
11163
10980
11094
11247
11300
11349
11381
11525
11547
11634
11699
11691
11683
11703
11728
11769
11794
11805
11815
11712
11714
11789
12164
12517
12781
12867
12845
12816
12669
12498
12318
12246
12273
12310
11912
11839
14793
19779
24816
20292
8127
8949
10208
11139
12003
12750
13008
14275
14507
14768
15090
15473
15885
16289
16742
17129
17336
17352
17245
16997
16651
15929
14927
13790
12866
12066
11564
11188
11053
11004
11043
11051
11174
11375
11487
11527
11592
11725
11694
11733
11733
11786
11769
11725
11597
11772
11932
11866
11763
11836
12136
12548
12840
12882
12859
12827
12716
12552
12367
12217
12304
12223
11771
11849
14940
19824
25138
19619
8188
9309
10372
11356
12232
12866
13093
13312
13446
13648
13835
14029
14124
16276
16692
17087
17340
17431
17244
17039
16587
15814
14835
13805
12839
12085
11642
11358
11241
11140
11194
11257
11383
11429
11521
11607
11724
11798
11853
11877
11882
11910
11932
11953
11960
11956
11964
12054
11949
11887
11984
12425
12806
13087
13105
13060
12985
12868
12690
12481
12419
12415
12364
11894
11985
15101
20134
25669
20284
8441
9288
10283
11532
12327
12913
13168
13309
13476
13637
13776
13910
14127
14278
14521
14729
15054
17568
17528
17247
16880
16140
15188
14069
13013
12163
11634
11301
11160
11108
11159
11245
11317
11400
11487
11606
11648
11714
11723
11799
11804
11826
11821
11939
11920
11976
11994
12059
12085
12084
12034
11861
12152
12603
12995
13078
13082
13030
13007
12846
12699
12422
12367
12344
12138
11711
13385
17834
23389
24726
11791
7818
9652
10733
11908
12717
13011
13280
13474
13666
13839
13972
14123
14284
14439
14641
14933
15295
15680
16022
16466
16607
15793
14695
13680
12706
11982
11461
11225
11035
11036
11120
11252
11343
11440
11536
11595
11629
11639
11692
11718
11742
11728
11760
11713
11770
11773
11831
11806
11915
11919
11867
11759
11937
12384
12831
13099
13038
13020
12946
12760
12555
12366
12284
12404
12330
11976
12366
15740
20678
25185
18576
7548
8791
10018
11180
12216
12847
13133
13333
13459
13677
13812
13979
14145
14342
14552
14839
15113
15448
15801
16293
16834
17254
15380
14308
13276
12357
11727
11334
11107
10964
11059
11140
11267
11305
11390
11461
11580
11620
11672
11712
11751
11787
11749
11752
11729
11778
11823
11749
11643
11781
12089
12487
12751
12820
12727
12716
12541
12406
12236
12159
12208
12181
12041
11828
13750
17867
22458
22246
10855
7368
9819
10398
11544
12475
13014
13254
13443
13598
13738
13892
14024
14284
14455
14717
14937
15319
15670
16121
16554
17077
17466
17668
17645
17542
17324
11410
11156
11091
11129
11182
11274
11387
11510
11551
11661
11688
11785
11827
11914
11890
11940
11937
11943
11944
11997
11928
11840
11853
12122
12530
12777
13008
12935
12921
12741
12608
12411
12326
12348
12406
12214
11805
12977
16932
21949
24608
14338
7252
9362
10084
11385
12320
12968
13214
13446
13581
13768
13910
14084
14253
14462
14716
15006
15294
15612
16052
16499
16986
17374
17701
17732
17662
17388
16999
16211
15252
14144
13106
12244
11353
11392
11504
11638
11749
11803
11812
11868
11846
11894
11843
11897
11927
11974
11957
11892
11847
11952
12278
12682
12936
13014
12959
12921
12756
12583
12425
12273
12308
12330
12000
11567
13806
18411
23931
23097
10306
8343
9863
10736
11821
12626
13036
13274
13422
13605
13734
13909
14041
14261
14428
14709
14925
15279
15646
16098
16512
16986
17399
17622
17666
17477
17250
16692
15876
14761
13673
12605
11941
11454
11229
11083
11122
11692
11755
11751
11825
11814
11839
11901
11874
11890
11865
11953
11957
11891
11762
11977
12466
12914
13018
13014
12977
13007
12836
12638
12419
12401
12417
12320
11722
12016
15562
20610
25528
17789
7822
9259
10163
11362
12375
12931
13202
13432
13612
13741
13859
14019
14172
14385
14552
14825
15087
15477
15868
16353
16779
17239
17530
17687
17644
17447
17074
16450
15469
14309
13271
12336
11732
11385
11226
11131
11150
11200
11314
11356
11467
11725
11825
11799
11856
11809
11873
11913
11947
12038
12029
11963
11834
12098
12560
12938
13065
13111
13065
13038
12849
12726
12488
12408
12435
12339
11744
12244
15875
21000
25482
16798
7884
9488
10333
11516
12478
12990
13227
13384
13617
13732
13900
14009
14169
14370
14625
14900
15161
15520
15965
16404
16835
17322
17592
17744
17677
17553
17179
16514
15549
14474
13394
12435
11795
11396
11235
11160
11150
11235
11379
11425
11525
11602
11790
11710
11741
11810
11896
11866
11908
11928
12056
12069
11977
11899
12196
12665
12974
13131
13080
13084
12950
12825
12622
12525
12460
12541
12286
11748
12933
17034
22245
24878
14017
7959
10010
10595
11696
12577
13118
13279
13471
13602
13805
13939
14103
14286
14495
14721
14973
15252
15624
16031
16465
16929
17362
17595
17647
17642
17439
17038
16238
15239
14133
13115
12223
11674
11391
11235
11169
11189
11281
11335
11438
11520
11614
11885
11930
11938
12012
11981
12003
11993
12063
12106
12087
11986
12045
12445
12908
13135
13145
13157
13094
12946
12778
12651
12560
12610
12545
12098
11806
14514
19181
24871
21308
8918
9022
10243
11242
12207
12956
13234
13408
13581
13742
13856
14029
14107
14317
14529
14827
15096
15430
15827
16299
16754
17149
17511
17672
17731
17565
17307
16705
15800
14696
13619
12615
11939
11492
11295
11148
11159
11170
11296
11426
11539
11635
11652
11729
11824
11874
11894
11905
11970
12054
12044
12139
12115
12221
12243
12139
11993
12331
12800
13115
13240
13226
13244
13161
12985
12765
12615
12560
12640
12401
11849
12702
16650
22067
25588
15014
8086
9783
10610
11772
12644
13115
13357
13571
13667
13803
13940
14154
14281
14477
14683
15008
15285
15634
16046
16521
16997
17382
17660
17779
17720
17494
17165
16452
15487
14312
13261
12355
11745
11354
11225
11102
11141
11251
11340
11391
11504
11746
11761
11822
11802
11886
11898
11911
11900
11946
11973
12031
12051
12129
12173
12184
12046
12104
12545
12947
13211
13238
13280
13212
13091
12909
12757
12624
12646
12591
12219
11834
14240
18778
24558
22568
9689
8858
10206
11246
12239
12998
13262
13437
13586
13794
13921
14068
14182
14420
14599
14849
15091
15434
15787
16209
16707
17164
17536
17775
17826
17667
17395
16876
16077
14989
13911
12864
12075
11551
11311
11164
11129
11147
11237
11709
11754
11790
11771
11823
11795
11763
11780
11836
11813
11898
11847
11922
11942
12075
12071
12158
12118
12051
11959
12341
12840
13110
13241
13227
13213
13097
12975
12764
12683
12636
12686
12437
11928
13187
17328
22744
25252
13750
8185
9947
10755
11956
12709
13135
13324
13563
13662
13810
13868
14084
14271
14510
14693
14939
15261
15615
16071
16521
17055
17542
17830
17889
17863
17647
17269
16507
15532
14397
13335
12288
11663
11258
11410
11489
11577
11637
11667
11698
11748
11742
11706
11714
11716
11733
11721
11779
11825
11892
11883
11956
11993
12071
11968
11870
12141
12621
12930
13109
13109
13060
13029
12849
12723
12549
12547
12517
12420
11946
12905
16520
21343
24397
14595
7542
9864
10709
11737
12591
13095
13351
13503
13697
13770
13946
14089
14302
14460
14749
14997
15352
15665
16045
16501
16975
17447
17709
17861
17787
17613
17241
16591
15522
14427
13273
12386
11733
11399
11442
11557
11641
11761
11835
11878
11890
11903
11957
11929
11946
11926
11962
11974
12012
12002
12079
12122
12158
11998
11934
12250
12769
13069
13195
13116
13082
13012
12873
12688
12499
12527
12526
12380
11924
13179
17013
22317
24725
13388
7946
9916
10857
11963
12826
13233
13443
13609
13813
13958
14142
14233
14428
14586
14847
15072
15377
15736
16171
16586
17074
17484
17720
17857
17799
17593
17172
16470
15382
14242
13139
12273
11530
11596
11696
11747
11811
11771
11851
11864
11911
11839
11895
11890
11940
11916
11986
12021
12053
11997
11920
12088
12528
12923
13104
13172
13140
13123
12890
12787
12561
12495
12464
12451
11987
12141
15255
20129
25428
19390
8080
9199
10291
11487
12434
13003
13280
13435
13641
13776
13934
14038
14267
14427
14651
14908
15203
15505
15918
16394
16854
17327
17664
17861
17818
17702
17354
16808
15870
14741
13579
12582
11874
11459
11133
11485
11526
11642
11710
11729
11792
11753
11764
11788
11814
11776
11829
11809
11915
11941
11983
11979
12072
12138
12069
11955
12140
12628
13015
13246
13229
13234
13181
13022
12825
12679
12561
12600
12520
12128
12385
15485
20312
25421
18674
7812
9287
10342
11625
12496
13053
13255
13459
13634
13799
13917
14111
14223
14454
14686
14964
15211
15532
15901
16349
16830
17280
17608
17763
17769
17613
17364
16732
15818
14705
13657
12602
11884
11442
11411
11474
11602
11670
11731
11744
11751
11800
11820
11838
11845
11888
11855
11871
11814
11885
11899
12025
12070
12054
11881
12095
12579
12924
13062
13045
13077
12971
12758
12648
12560
12482
12516
12395
11979
12759
16426
21465
25343
15806
7467
9572
10476
11624
12505
13025
13249
13491
13637
13824
13982
14152
14219
14416
14672
14990
15254
15652
16045
16471
16905
17391
17733
17819
17766
17533
17165
16438
15517
14371
13310
12307
11692
11300
11420
11468
11547
11616
11681
11712
11739
11779
11800
11818
11857
11886
11848
11900
11899
11990
11919
11855
11881
12267
12685
12993
13008
12980
12933
12799
12643
12470
12421
12447
12459
12063
12116
14849
19407
24341
20355
8280
8848
10297
11183
12117
12894
13219
13372
13571
13720
13884
14005
14179
14319
14575
14825
15169
15447
15855
16275
16807
17276
17600
17779
17768
17601
17285
16675
15721
14636
13440
12459
11703
11283
11017
10953
11577
11691
11711
11751
11729
11843
11851
11891
11871
11890
11920
11937
11971
12058
12041
11893
11954
12365
12855
13079
13152
13075
13046
12874
12737
12549
12442
12449
12478
12057
11907
14526
19139
24674
21271
8703
8879
10228
11305
12295
12904
13180
13367
13559
13700
13873
13997
14197
14405
14596
14838
15106
15427
15801
16283
16750
17250
17552
17750
17690
17549
17244
16703
15731
14652
13480
12488
11776
11351
11165
11015
11026
11069
11649
11692
11743
11807
11865
11836
11871
11842
11915
11884
11910
11942
11952
11840
11868
12342
12777
13056
13078
13035
12975
12850
12680
12477
12314
12406
12431
12070
11941
14690
19361
24990
21354
8633
8896
10108
11290
12259
12915
13121
13350
13507
13703
13831
13976
14117
14326
14559
14831
15090
15436
15821
16260
16780
17253
17617
17781
17808
17619
17337
16697
15752
14572
13481
12472
11770
11345
11123
11037
11003
11053
11108
11246
11332
11816
11738
11765
11784
11835
11800
11877
11886
11981
12028
11987
11841
12014
12469
12893
13146
13131
13094
13046
12852
12659
12543
12409
12432
12344
11927
12025
15162
20094
25562
19811
8059
9121
10262
11533
12445
12983
13219
13385
13499
13702
13848
14027
14202
14442
14612
14877
15147
15535
15933
16435
16880
17331
17690
17863
17865
17608
17276
16638
15706
14507
13407
12422
11816
11390
11225
11099
11111
11119
11171
11266
11379
11481
11877
11870
11875
11907
11897
11909
11909
11954
11991
12062
11998
11897
12166
12696
12988
13136
13081
13046
12967
12818
12662
12487
12480
12457
12298
11843
13202
17244
22516
25030
13587
7775
9858
10621
11830
12641
13112
13283
13453
13661
13813
13964
14144
14359
14522
14741
14968
15350
15723
16179
16656
17176
17560
17837
17877
17790
17567
17119
16341
15249
14092
12968
12148
11543
11224
11029
10997
10981
11103
11184
11306
11424
11528
11799
11849
11862
11829
11844
11868
11912
11957
12004
11946
11874
11961
12454
12824
13104
13113
13105
12985
12826
12687
12553
12474
12473
12493
12011
12271
15411
20295
25202
18865
7922
9444
10485
11506
12376
13028
13238
13435
13609
13785
13936
14098
14282
14473
14719
14940
15233
15551
16006
16428
16931
17344
17741
17843
17840
17662
17282
16557
15583
14449
13302
12346
11703
11368
11123
11066
11030
11080
11162
11330
11430
11573
11639
11767
11883
11928
11941
11941
11943
11994
12060
12107
12060
12022
11911
12165
12639
12943
13124
13093
13177
13047
12930
12731
12585
12521
12556
12371
11826
12698
16546
21980
25621
14922
8114
9924
10831
11956
12732
13157
13349
13548
13668
13848
13997
14133
14313
14529
14704
14969
15307
15654
16119
16512
16976
17410
17756
17849
17825
17559
17188
16434
15366
14155
13065
12197
11586
11254
11055
11035
11012
11113
11156
11291
11410
11512
11522
11772
11744
11802
11790
11832
11845
11926
11964
12084
12081
11947
12009
12395
12850
13101
13172
13117
13144
12943
12807
12594
12508
12492
12551
12127
11913
14438
19113
24836
22253
9124
8772
10121
11281
12297
12918
13201
13347
13570
13691
13858
13962
14156
14298
14527
14801
15073
15388
15793
16281
16771
17207
17545
17776
17737
17672
17394
16866
15921
14715
13529
12510
11723
11340
11143
11005
10974
11044
11109
11155
11303
11404
11535
11559
11836
11799
11819
11861
11949
11919
11943
11993
12042
11998
11992
12192
12651
12972
13083
13079
13076
13032
12831
12693
12504
12500
12473
12390
11911
12831
16596
21775
25500
15783
7574
9660
10460
11602
12469
12995
13240
13369
13589
13711
13915
14056
14210
14393
14690
14972
15258
15600
15997
16466
16993
17475
17734
17814
17753
17561
17136
16425
15348
14234
13074
12260
11567
11215
11013
10991
11023
11097
11155
11197
11370
11461
11582
11784
11864
11856
11903
11870
11975
11922
11940
11860
12051
12498
12882
13025
12987
12928
12864
12728
12531
12412
12332
12419
12243
11912
13244
17340
22304
24838
13687
7601
9988
10740
11642
12514
13007
13198
13427
13561
13744
13924
14120
14279
14508
14673
14989
15293
15679
16015
16504
16937
17307
17527
17634
17575
17300
16765
15914
14851
13716
12810
11938
11412
11182
11144
11108
11113
11145
11262
11343
11507
11606
11725
11785
11870
11964
12032
12090
12010
11967
11932
12249
12660
12979
13003
12980
12855
12744
12637
12505
12366
12395
12406
12158
12202
14496
18539
23262
21472
9217
8072
9998
11155
12151
12886
13100
13295
13418
13638
13756
13856
14040
14212
14408
14612
14937
15133
15522
15942
16383
16702
17153
17250
17233
17128
16844
16176
15269
14273
13275
12428
11995
11691
11444
11320
11253
11255
11351
11435
11497
11648
11760
11868
11911
11991
12004
12013
12062
12052
11939
12126
12514
12861
13046
12999
12903
12798
12692
12607
12555
12494
12499
12407
12268
13389
16407
20346
22478
12710
8149
9890
10951
12191
12916
13192
13304
13520
13596
13759
13871
14085
14201
14367
14520
14783
15054
15350
15766
16139
16516
16904
17182
17282
17212
16935
16502
15649
14702
13664
12844
12171
11829
11598
11510
11441
11459
11522
11606
11701
11788
11917
11985
12064
12106
12142
12183
12275
12209
12199
12206
12242
12258
12265
13214
13143
13080
13002
12842
12716
12605
12581
12618
12504
12332
13496
16667
21142
23325
13408
8312
10088
11357
12295
12918
13214
13385
13563
13710
13808
13956
14174
14291
14505
14696
14967
15224
15609
15959
16421
16794
17230
17448
17525
17445
17206
16731
15901
14918
13852
12937
12182
11776
11516
11419
11379
11431
11468
11594
11663
11741
11804
11896
11963
11957
12005
12010
12024
12007
12054
12029
12074
12042
12065
12058
12082
12122
13081
13045
12993
12833
12774
12602
12563
12568
12487
12230
12910
16019
20554
24644
16675
7813
9583
10906
11860
12648
13080
13311
13428
13616
13805
13945
14105
14244
14462
14720
14999
15265
15591
15934
16361
16843
17337
17581
17729
17663
17481
17079
16446
15497
14368
13296
12437
11894
11475
11322
11213
11259
11301
11421
11464
11576
11610
11708
11695
11720
11784
11846
11906
11881
11844
11878
11915
11891
11916
11893
11947
11882
11862
12858
12667
12455
12374
12400
12443
12267
11982
13187
16903
21906
24698
14155
7428
9729
10628
11701
12577
13080
13253
13433
13560
13764
13880
14073
14197
14418
14632
14891
15217
15618
16035
16479
16991
17391
17678
17725
17698
17460
17038
16195
15198
14053
13013
12125
11626
11326
11164
11092
11106
11158
11227
11349
11424
11525
11583
11721
11760
11808
11792
11853
11808
11850
11828
11875
11896
11983
11952
11841
11774
11961
12480
12808
13017
12341
12326
12052
12037
14362
18810
24003
21931
9089
8276
9992
10975
12002
12774
13097
13267
13420
13586
13721
13800
14047
14218
14486
14700
15039
15353
15760
16185
16736
17202
17592
17735
17729
17592
17251
16722
15801
14679
13512
12602
11837
11457
11179
11107
11023
11083
11168
11288
11336
11442
11500
11555
11603
11616
11672
11683
11762
11752
11786
11773
11832
11901
11894
11732
11724
12091
12571
12857
12922
12854
12831
12654
12489
16020
20905
24855
16049
7436
9482
10433
11468
12360
12879
13129
13316
13515
13669
13837
13976
14133
14341
14591
14898
15173
15536
15952
16471
16924
17372
17594
17737
17640
17484
17015
16238
15197
14087
12993
12108
11571
11272
11145
11033
11053
11095
11197
11310
11435
11499
11618
11682
11710
11737
11796
11823
11836
11818
11841
11824
11799
11776
12002
12398
12714
12984
12922
12868
12743
12582
12410
12218
12188
12291
12197
11700
12405
16081
11940
12634
12938
13123
13319
13463
13666
13802
13994
14148
14418
14643
14977
15297
15713
16174
16679
17139
17486
17644
17627
17545
17204
16608
15596
14469
13262
12343
11700
11367
11127
11045
11017
11057
11145
11250
11345
11452
11539
11590
11689
11758
11817
11826
11853
11866
11949
11825
11804
11788
12141
12530
12823
12914
12873
12816
12662
12513
12297
12200
12197
12242
11930
11438
13191
17695
23249
23565
11017
8452
10044
10971
11888
13915
14053
14242
14474
14704
15040
15409
15862
16323
16875
17281
17571
17625
17619
17419
17002
16193
15148
13992
12909
12073
11523
11211
11081
11053
11012
11087
11191
11327
11418
11512
11558
11692
11727
11816
11832
11864
11810
11853
11819
11878
11924
11862
11766
11825
12322
12717
12967
12922
12912
12850
12721
12561
12337
12205
12256
12223
11834
11820
14728
19555
24947
20260
8302
9053
10162
11237
12126
12789
13016
13272
13420
13609
15256
15625
16073
16609
17044
17458
17717
17787
17737
17484
16962
16060
15002
13762
12727
11926
11515
11185
11081
11035
11063
11105
11236
11325
11449
11557
11640
11708
11716
11767
11791
11826
11812
11873
11894
11932
11843
11879
11936
12012
11917
11832
11910
12370
12820
13056
13056
12958
12946
12790
12674
12468
12457
12419
12418
11960
12072
14973
19755
24802
20286
8263
8993
10260
11191
12149
12805
13113
13312
13511
13660
13835
13937
14149
16525
17031
17400
17635
17669
17611
17339
16904
16087
15040
13895
12807
12015
11495
11249
11106
11067
11058
11164
11204
11314
11396
11524
11572
11690
11727
11753
11857
11862
11881
11839
11852
11839
11862
11873
11966
11958
12019
12045
12021
11848
11932
12365
12858
13144
13153
13087
13023
12875
12709
12555
12429
12473
12506
12181
11980
14352
18873
24373
21887
9186
8617
10351
11209
12157
12941
13267
13431
13582
13779
13888
14059
14200
16578
17024
17482
17749
17897
17841
17713
17278
16500
15351
14163
13085
12266
11702
11324
11162
11082
11121
11172
11290
11306
11435
11516
11625
11680
11762
11820
11877
11839
11862
11898
11919
11953
11922
12001
12025
12048
12051
12073
12091
12203
12212
12298
12273
12370
12297
12176
12260
12758
13184
13318
13311
13314
13311
13156
12996
12795
12693
12636
12695
12352
11976
13844
18211
23880
23660
11068
8661
10413
11289
12265
13032
13369
13536
14759
14977
15270
15586
16030
16459
17001
17415
17737
17899
17956
17772
17435
16788
15845
14732
13586
12624
11909
11478
11259
11206
11163
11223
11238
11378
11464
11571
11649
11672
11707
11774
11807
11846
11860
11885
11907
11895
11961
11960
11977
11954
12005
12027
12095
12097
12130
12174
12205
12269
12346
12362
12368
12429
12472
12574
12560
12456
12480
12901
13262
13433
13449
13476
13443
13415
13224
13123
12920
12830
12854
12679
12181
10370
11357
12359
13076
13355
13551
13696
13876
13985
14192
14269
14466
14655
14969
15210
15510
15854
16333
16796
17268
17664
17861
17987
17912
17690
17157
16419
15336
14187
13078
12252
11620
11320
11178
11194
11186
11204
11292
11330
11462
11514
11591
11643
11705
11697
11763
11750
11820
11817
11845
11836
11875
11877
11890
11929
11965
11991
11983
12012
12043
12132
12155
12250
12282
12360
12413
12450
12457
12482
12405
12504
12504
12555
13378
13196
13043
12859
12777
12816
12792
12272
12648
15857
20803
25663
18679
8276
9627
10554
11732
12658
13237
13463
13636
13846
14017
14127
14240
14419
14593
14799
14986
15294
15589
16045
16470
16990
17454
17877
18097
18104
17936
17645
17107
16130
15032
13863
12820
12001
11557
11228
11090
11053
11126
11148
11236
11303
11419
11491
11544
11578
11635
11714
11745
11818
11791
11778
11765
11802
11798
11838
11852
11921
11941
12032
12043
13500
13456
13360
13140
13022
12885
12908
12818
12403
12318
14983
19581
24977
21594
9249
9011
10320
11378
12401
13068
13332
13580
13743
13943
14026
14211
14367
14574
14749
14999
15235
15583
15954
16368
16884
17398
17849
18089
18188
18112
17905
17357
16542
15372
14298
13013
12161
11542
11241
11097
11040
11024
10988
11068
11189
11305
11345
11466
11512
11613
11688
11780
11738
11768
11766
11807
11765
11801
11790
11821
11822
11844
11930
11924
12270
12240
12243
12336
12871
13156
13284
13294
13306
13249
13155
12935
12802
12635
12667
12674
12347
12085
14176
18587
23821
23062
10642
8353
10161
10907
11992
12867
13244
13489
13599
13748
13900
14105
14308
14472
14641
14859
15137
15440
15822
16221
16727
17240
17759
18015
18195
18123
17947
17409
16556
15379
14177
12996
12138
11556
11198
11065
10949
10917
10921
11036
11091
11203
11298
11457
11535
11657
11671
11763
11806
11845
11860
11963
12019
12080
12137
12154
12200
12246
12379
12278
12168
12316
12827
13179
13371
13354
13383
13288
13152
12963
12812
12685
12669
12650
12250
12369
15243
20013
25194
20007
8431
9235
10350
11486
12443
13099
13332
13515
13687
13857
14002
14133
14294
14437
14700
14892
15214
15529
15979
16401
16952
17430
17885
18113
18192
18081
17779
17163
16168
14951
13749
12694
11840
11388
11081
10983
10931
10938
10948
11067
11137
11312
11425
11521
11798
11780
11812
11868
11871
11897
11959
11940
11964
11950
12071
12095
12183
12199
12178
12061
12416
12817
13133
13286
13326
13275
13205
13009
12840
12710
12626
12687
12489
12027
13153
17125
22438
25077
14036
7901
9910
10820
11951
12830
13253
13487
13687
13866
14000
14084
14262
14386
14599
14763
15016
15285
15676
16011
16606
17101
17629
17982
18197
18196
18040
17610
16864
15800
14565
13317
12325
11692
11266
11108
11022
11052
11031
11123
11632
11702
11769
11841
11827
11819
11870
11872
11888
11905
11940
11949
12007
12020
12041
12083
12152
12024
11998
12331
12848
13142
13242
13205
13209
13095
12908
12743
12576
12571
12598
12396
11900
13352
17396
22888
24783
13000
7874
9923
10786
11928
12735
13175
13368
13525
13741
13862
14023
14163
14381
14555
14809
15020
15346
15688
16148
16623
17243
17717
18019
18188
18211
18054
17561
16755
15583
14337
13109
12215
11578
11277
11087
11426
11453
11584
11650
11735
11739
11798
11827
11857
11865
11896
11934
11987
12009
11987
11996
12047
12164
12148
12109
11959
12257
12703
13060
13229
13248
13179
13099
12845
12646
12518
12510
12568
12380
11911
12829
16718
21936
25388
15486
7708
9678
10355
11446
12462
13028
13240
13419
13583
13735
13866
14065
14196
14427
14622
14901
15213
15632
16038
16568
17090
17639
17946
18124
18094
17892
17467
16703
15618
14402
13237
12242
11634
11215
11521
11593
11640
11739
11748
11818
11830
11870
11845
11924
11920
11933
11907
11982
12033
11998
11853
12024
12489
12852
13083
13082
13016
12934
12823
12670
12550
12435
12481
12404
11985
12529
16087
21089
25508
17390
7707
9500
10429
11521
12446
13016
13257
13492
13615
13799
13910
14069
14232
14447
14621
14974
15225
15545
15970
16493
17066
17568
17944
18081
18114
17914
17572
16804
15758
14511
13332
12293
11618
11222
11061
10924
10928
11551
11637
11665
11740
11813
11799
11845
11863
11883
11829
11954
11906
11964
12010
12080
12063
12153
12045
11914
12091
12620
13037
13209
13159
13146
13109
12891
12746
12571
12571
12552
12562
12031
12390
15646
20607
25525
18490
7968
9425
10434
11541
12471
13058
13257
13424
13637
13780
13968
14118
14323
14446
14695
14915
15178
15542
15971
16429
17002
17489
17849
18100
18115
18025
17712
17066
15967
14799
13564
12560
11824
11416
11148
11091
11445
11559
11664
11725
11794
11825
11854
11853
11919
11951
11926
11899
11968
11976
12039
12017
12091
12102
12215
12179
12151
12043
12387
12860
13158
13271
13203
13173
13103
12984
12740
12621
12579
12611
12347
11860
12943
16962
22358
25343
14343
7841
9850
10696
11873
12704
13138
13323
13546
13661
13883
14010
14165
14277
14519
14690
14983
15265
15681
16137
16627
17157
17612
17965
18093
18098
17929
17562
16778
15684
14412
13303
12329
11139
11200
11346
11404
11538
11559
11625
11688
11751
11792
11761
11816
11837
11852
11849
11889
11862
11939
11942
12008
12010
12059
12111
12096
11985
11990
12412
12858
13140
13160
13189
13166
13025
12839
12668
12519
12541
12537
12271
11827
13695
18117
23813
23949
11224
8324
9994
10953
12078
12900
13207
13407
13554
13736
13864
14054
14174
14435
14562
14749
15017
15385
15716
16209
16774
17319
17788
18078
18208
18130
17909
17382
16542
10957
10950
10939
11055
11084
11235
11273
11336
11433
11535
11594
11647
11695
11735
11763
11772
11821
11786
11779
11807
11890
11849
11884
11893
11966
12035
12054
11951
11942
12338
12783
13061
13105
13086
13038
12945
12748
12609
12480
12513
12476
12219
11866
13952
18322
23664
23351
10875
8168
10213
10866
11876
12766
13158
13380
13503
13707
13860
14025
14106
14305
14497
14753
14997
15336
15726
16179
16716
17165
17635
17917
18056
17988
17767
11332
11108
11033
11059
10985
11040
11113
11231
11312
11411
11493
11627
11710
11777
11823
11879
11896
11886
11987
11946
11992
11933
11981
12010
12065
12031
12112
12143
12271
12236
12129
11997
12321
12757
13081
13282
13234
13244
13114
12970
12778
12657
12557
12610
12350
11872
12735
16513
21833
25616
15816
7932
9871
10664
11773
12573
13124
13332
13535
13662
13869
13998
14166
14276
14473
14694
14917
15181
15546
15991
16499
17039
17546
15193
13948
12860
12000
11541
11237
11126
11050
11096
11097
11219
11261
11366
11442
11572
11625
11659
11742
11784
11860
11853
11930
11903
11933
11914
11969
11954
11962
11979
12065
12085
12177
12190
12227
12275
12293
12361
12422
12454
12316
12294
12688
13131
13349
13451
13409
13447
13296
13130
12924
12801
12789
12800
12509
12029
13565
17759
23489
25113
13186
8452
10186
11027
12175
12928
13300
13484
13666
13842
13967
14045
14202
14398
16844
17384
17742
18009
18111
18101
17833
17357
16438
15258
13967
12886
12053
11573
11216
11099
11045
11061
11109
11176
11274
11390
11530
11531
11582
11626
11727
11746
11778
11792
11854
11837
11859
11884
11890
11885
11933
11930
11990
12059
12082
12104
12125
12221
12186
12265
12290
12254
12107
12342
12755
13113
13250
13284
13291
13303
13146
12972
12813
12677
12693
12631
12181
12182
15164
20009
25600
20938
8893
9274
10339
11455
12448
13020
14335
14512
14701
14984
15205
15548
15990
16530
17058
17619
17939
18168
18136
18039
17638
16962
15883
14703
13460
12467
11737
11323
11146
10998
10959
10919
11024
11078
11176
11277
11414
11426
11512
11554
11661
11656
11682
11677
11745
11767
11782
11766
11746
11812
11827
11851
11878
11992
12026
12082
12116
12129
12052
12032
12413
12831
13072
13146
13146
13146
13021
12818
12645
12517
12569
12573
12310
11920
13950
18374
23745
23289
10957
13409
13625
13779
13936
14053
14235
14398
14625
14916
15204
15566
15944
16429
16935
17477
17874
18169
18198
18097
17740
17154
16126
14908
13670
12607
11862
11412
11206
11101
11063
10998
11052
11103
11179
11272
11475
11481
11555
11639
11759
11804
11855
11853
11863
11905
11900
11916
11861
11936
11945
12030
12020
12075
12081
12189
12198
12174
11992
12329
12771
13115
13245
13233
13259
13159
12972
12806
12707
12598
12651
12510
12033
12623
11017
12060
12848
13158
13429
13597
13767
13893
14040
14215
14403
14609
14792
15085
15368
15773
16203
16751
17211
17725
18017
18163
18124
17891
17415
16548
15414
14194
12995
12109
11582
11282
11128
11028
11014
11003
11140
11224
11333
11401
11501
11567
11696
11717
11744
11741
11798
11840
11881
11888
11880
11928
11934
11995
11957
12011
12023
12133
12142
12203
12251
12180
12072
12332
12792
13122
13305
13269
13272
13212
13043
12864
12739
23644
24614
12075
8343
10052
10970
12037
12845
13207
13425
13619
13818
13924
14057
14267
14409
14591
14788
15079
15354
15736
16141
16678
17200
17695
17973
18151
18132
17951
17529
16747
15649
14387
13206
12225
11579
11203
11066
10979
10966
10983
11083
11182
11284
11358
11507
11539
11618
11670
11769
11824
11795
11811
11806
11833
11824
11895
11864
11886
11872
12004
12013
12059
12068
12156
12166
12252
12293
12211
12120
12453
12936
13203
13291
12638
12644
12228
12060
14521
19142
24734
22500
9659
8810
10164
11240
12292
13018
13368
13466
13603
13736
13906
14066
14248
14422
14649
14836
15112
15372
15786
16220
16740
17222
17746
18070
18182
18155
17883
17473
16668
15554
14299
13111
12110
11551
11219
11091
10919
10932
10962
11045
11160
11287
11355
11430
11569
11610
11634
11683
11755
11748
11801
11761
11743
11678
11740
11752
11808
11800
11899
11910
11954
12060
12092
12051
11930
12888
12716
12572
12467
12531
12488
12143
11939
14440
18966
24358
22279
9630
8552
10206
10976
12062
12889
13241
13400
13539
13712
13836
13998
14127
14302
14447
14730
14987
15387
15723
16259
16653
17128
17560
17916
18073
17999
17760
17211
16404
15301
14113
12960
12073
11545
11281
11111
11109
11062
11062
11118
11261
11335
11463
11571
11630
11699
11736
11816
11825
11924
11916
11964
11928
11998
11951
11986
11981
12043
12022
12092
12186
13279
13188
13129
12931
12756
12573
12529
12619
12470
12015
12337
15683
20561
25512
18262
7794
9445
10447
11602
12492
13091
13348
13529
13629
13900
13975
14149
14306
14455
14576
14851
15111
15509
15911
16430
16953
17427
17837
18136
18223
18039
17713
17122
16139
14933
13734
12737
11950
11425
11135
11013
11019
11004
11037
11120
11176
11214
11340
11479
11499
11569
11678
11765
11754
11722
11718
11774
11790
11798
11821
11895
11957
11965
11909
13189
13167
13131
13124
12983
12753
12519
12503
12491
12458
12056
12049
14655
19308
24846
21384
8555
8603
10080
11284
12208
12879
13189
13350
13545
13715
13928
14030
14173
14315
14567
14791
15059
15349
15788
16277
16846
17348
17821
18103
18142
18029
17838
17333
16435
15331
14101
12979
12114
11542
11195
11106
11070
10999
11073
11202
11283
11359
11434
11529
11621
11588
11661
11739
11800
11804
11855
11811
11771
11764
11907
11908
11928
12668
12962
13068
13093
13116
13022
12779
12635
12492
12502
12559
12397
11921
12801
16525
21577
25389
15962
7398
9334
10309
11601
12516
12965
13285
13506
13626
13734
13811
13955
14121
14362
14559
14856
15153
15564
15988
16448
16922
17383
17796
18022
18013
17825
17504
16889
15858
14608
13448
12437
11732
11294
11064
10998
11004
10962
11074
11157
11248
11346
11451
11490
11576
11618
11670
11673
11623
11624
11703
11845
11848
11911
11920
11863
12966
13078
12968
12892
12719
12503
12508
12474
12482
12490
12228
11753
13190
17263
22565
24482
12829
7598
9801
10479
11728
12597
13058
13279
13508
13666
13817
13930
14115
14305
14461
14705
14997
15331
15664
16104
16566
17120
17547
17896
18014
18006
17778
17363
16593
15481
14265
13100
12230
11617
11286
11129
11056
11014
11120
11147
11291
11339
11508
11565
11646
11730
11813
11874
11876
11851
11865
11907
11872
11902
11892
11962
11981
13080
13084
13116
13117
13017
12805
12651
12477
12488
12541
12289
11780
13426
17657
23126
24596
12188
7929
9813
10760
11959
12767
13094
13314
13452
13652
13795
13992
14141
14302
14448
14675
15040
15336
15689
16159
16673
17151
17657
17981
18164
18107
17950
17463
16703
15614
14432
13215
12284
11616
11266
11112
11016
11008
11024
11128
11185
11314
11363
11487
11547
11646
11657
11800
11816
11837
11820
11857
11892
11886
11909
11914
11951
12004
13103
12992
13000
12850
12735
12517
12436
12402
12436
12169
11827
13547
17890
23332
24329
11703
7736
9769
10717
11931
12695
13124
13267
13524
13666
13802
13948
14140
14241
14453
14714
15007
15291
15639
16097
16604
17115
17574
17962
18035
17977
17761
17423
16601
15537
14271
13104
12134
11550
11192
11062
11018
10963
10967
11067
11191
11245
11327
11431
11529
11545
11666
11688
11780
11771
11860
11851
11839
11790
11863
11916
11918
11980
13027
12994
12959
12975
12787
12715
12464
12411
12389
12454
12119
11973
14277
18845
24144
22701
9879
8178
9944
10802
11980
12716
13153
13318
13521
13652
13818
13923
14128
14270
14491
14701
14986
15262
15716
16171
16655
17177
17654
17902
17940
17901
17676
17245
16360
15259
14000
12933
12036
11521
11189
11031
10949
10971
11038
11143
11273
11361
11461
11493
11605
11677
11741
11773
11845
11829
11878
11862
11876
11875
11919
11897
11891
11959
13048
12992
12907
12827
12719
12542
12397
12432
12417
12148
11754
13779
18122
23533
23321
10790
8104
10037
10819
11941
12730
13109
13367
13554
13694
13841
13998
14164
14368
14552
14801
15021
15344
15668
16146
16645
17157
17592
17950
18054
17940
17730
17225
16396
15261
14090
12926
12093
11502
11319
11141
11115
11096
11167
11211
11337
11457
11554
11592
11580
11656
11691
11766
11736
11876
11881
11917
11879
11875
11897
11995
11967
12020
13043
13023
12965
12843
12674
12488
12451
12461
12506
12165
11783
13854
18389
24044
23406
10338
8349
9907
10985
12076
12827
13145
13308
13464
13650
13862
13999
14171
14302
14499
14712
15026
15317
15713
16109
16674
17153
17602
17854
18000
17948
17695
17211
16337
15216
14028
13003
12094
11564
11222
11092
11013
11032
10999
11083
11139
11277
11382
11522
11574
11641
11702
11718
11758
11787
11811
11812
11907
11870
11925
11893
11923
11958
13131
13052
13099
12971
12837
12639
12475
12413
12454
12328
11794
12850
16738
22141
25446
14636
7636
9591
10511
11828
12665
13126
13301
13497
13662
13827
14036
14129
14268
14472
14618
14892
15271
15677
16105
16578
17124
17556
17981
18113
18136
17977
17582
16869
15798
14565
13361
12373
11654
11277
11117
11047
10958
11041
11068
11201
11302
11435
11475
11562
11586
11660
11691
11677
11735
11713
11785
11757
11821
11860
11854
11826
11910
11935
13048
12959
12942
12769
12693
12513
12417
12442
12470
12147
11984
14459
18917
24163
21634
9147
8569
10229
10991
12102
12884
13273
13399
13579
13744
13920
14058
14225
14348
14546
14822
15067
15412
15782
16259
16735
17251
17643
17931
17998
17938
17593
17114
16189
15073
13867
12798
11998
11495
11233
11049
11026
10980
11074
11123
11300
11417
11517
11559
11683
11688
11791
11835
11867
11888
11922
