13655
13966
14014
13862
13948
13694
13908
13579
13958
13571
13940
13595
13984
13717
14069
13906
14308
14272
14628
14697
14742
14717
14488
14502
14151
14184
13483
13438
12760
12880
12299
12468
12057
12338
12026
12259
12092
12231
12249
12250
12432
12361
12661
12514
12871
12554
12962
12644
12963
12545
12861
12448
12741
12445
12630
12528
12821
12908
12979
13199
13088
13297
12993
13210
12829
13179
12839
13250
12883
13266
13144
13732
14729
16653
16635
15087
10513
11485
12096
12951
13051
13311
13356
13463
13587
13526
13758
13556
13878
13628
14014
13709
14184
13940
14364
14081
14616
14568
15051
15085
15347
15395
15393
15374
15065
15091
14531
14473
13716
13708
13017
13124
12608
12861
12450
12707
12422
12646
12578
12675
12668
12748
12852
12737
12947
12723
13094
12820
13146
12740
13227
12827
13102
12736
13026
12806
12955
12872
13129
13195
13217
13399
13289
13484
13142
13350
12976
13181
13127
13386
13235
13589
13358
14386
15087
16930
17195
15228
11168
11999
12411
13114
13121
13391
13477
13513
13592
13524
13791
13583
13849
13507
13841
13553
13953
13672
14121
14034
14522
14473
14938
14939
15236
15239
15242
15207
15086
14913
14511
14260
13579
13377
12913
12889
12461
12637
12293
12545
12327
12514
12344
12553
12519
12552
12581
12591
12712
12562
12732
12597
12852
12563
12816
12568
12901
12690
12939
12684
12865
12718
12959
12886
13251
13047
13361
13148
13214
13053
13065
12993
12890
12990
12925
13120
12937
13342
13305
14275
15454
17275
17161
13572
11394
12137
12575
13007
13003
13109
13196
13249
13250
13153
13353
13252
13523
13361
13701
13500
13821
13659
14012
13978
14284
14363
14702
14847
14955
14917
14813
14893
14587
14544
13919
13722
13160
13169
12622
12671
12376
12538
12331
12481
12382
12508
12530
12606
12694
12629
12732
12633
12859
12660
12933
12823
13042
12960
13141
12783
13138
12832
13257
12964
13248
13028
13291
13077
13172
13060
13101
13211
13182
13421
13194
13398
13153
13405
13031
13291
12901
13289
12969
13298
13074
13355
13250
14058
14822
16254
16787
14468
11528
11705
12650
12834
13322
13067
13477
13129
13535
13286
13624
13399
13739
13655
13891
13965
14034
14225
14177
14482
14385
14827
14758
15349
15118
15506
15142
15445
15020
15104
14513
14320
13792
13525
13236
13034
12777
13021
12795
12874
12864
12856
12953
12831
13010
12745
13037
12722
13081
12699
13052
12661
13052
12782
13114
12882
13020
12906
13007
12945
12965
13044
12874
13032
12740
13022
12664
13031
12653
12968
12674
13063
12903
13250
13093
13356
13195
13283
13227
13148
13118
12813
13069
12837
13132
12816
13292
13175
14192
14653
16432
16504
14831
11441
11998
12523
13003
13155
13141
13322
13139
13428
13201
13594
13296
13689
13395
13841
13549
14019
13879
14362
14153
14642
14505
15036
14923
15308
15128
15354
15175
15115
14886
14493
14160
13629
13553
12973
13075
12616
12852
12409
12689
12349
12708
12465
12754
12532
12745
12696
12757
12724
12697
12803
12620
12843
12538
12870
12550
12927
12592
12980
12670
13032
12797
13115
12895
13101
13073
13108
13110
13022
13175
12997
13237
12987
13332
13079
13429
12996
13397
13145
13619
13465
13764
13513
13600
13541
13571
13504
13296
13385
13174
13317
13493
13610
13730
14495
14886
16499
16745
15497
11785
12393
12662
13452
13200
13595
13313
13607
13429
13565
13474
13538
13564
13473
13717
13640
13995
13885
14258
13969
14446
14238
14800
14647
15051
14940
15193
14941
15048
14772
14525
14168
13601
13385
12874
12888
12527
12783
12333
12552
12245
12665
12367
12672
12423
12674
12524
12662
12672
12645
12699
12556
12764
12601
12893
12619
12968
12595
12976
12653
13056
12713
12988
12751
13079
12829
13254
12820
13080
12807
13053
12924
13037
12972
13055
13149
13127
13337
13188
13566
13305
13562
13182
13535
13081
13405
13048
13336
13046
13315
13241
13464
13616
14097
15286
16268
15907
14681
10937
10726
12166
12646
13429
13213
13671
13511
13923
13721
13970
13849
14052
14086
14187
14409
14368
14614
14545
14892
14689
15167
14972
15551
15405
15901
15602
15829
15440
15531
15189
14944
14547
14082
13737
13271
13252
12829
13021
12733
12808
12596
12709
12564
12897
12551
12921
12611
12981
12621
12971
12632
12949
12718
12974
12803
12973
12813
12920
13073
12926
13076
12866
13111
12940
13263
12962
13388
13074
13446
13103
13378
13116
13435
13432
13672
13694
13661
13775
13747
13884
13603
13859
13498
13800
13451
13787
13440
13894
13807
14768
15463
16503
16137
14462
10899
11594
12482
12973
13413
13298
13679
13405
13770
13369
13731
13459
13760
13501
13832
13626
13910
13704
14157
13951
14411
14462
14912
14927
15135
15060
15055
15052
14763
14730
14146
14024
13332
13346
12742
12874
12326
12539
12127
12395
12068
12279
12127
12226
12180
12159
12319
12234
12528
12329
12673
12381
12792
12414
12750
12399
12776
12481
12733
12546
12674
12529
12630
12679
12687
12825
12638
12899
12602
12977
12691
13126
12804
13109
12820
13162
12905
13173
12974
13058
12873
12915
13010
13000
13212
13077
13437
13207
13446
13277
13520
13589
13528
13378
13626
13549
13725
13507
13953
14272
15000
16097
17194
15750
12468
12172
12899
13181
13361
13352
13423
13461
13331
13419
13203
13393
13142
13341
13091
13371
13227
13594
13449
13756
13720
14048
14139
14328
14508
14652
14796
14702
14859
14522
14532
14066
13924
13244
13150
12637
12743
12420
12641
12491
12600
12555
12617
12663
12653
12704
12619
12829
12727
12977
12731
13009
12691
12966
12704
12949
12834
13038
12944
13209
13001
13224
12985
13222
13163
13342
13303
13345
13366
13427
13634
13495
13693
13517
13732
13429
13634
13386
13615
13332
13589
13408
13660
13630
13726
13651
13654
13649
13507
13544
13400
13513
13247
13463
13287
13565
13367
13848
14278
15085
16158
16621
14362
11714
12097
12823
13346
13375
13524
13372
13585
13378
13630
13455
13779
13584
13918
13742
13960
13787
14016
14041
14187
14264
14375
14625
14740
15041
15004
15178
14870
15101
14711
14520
13966
13705
12992
12906
12504
12528
12115
12324
12044
12207
12042
12272
12208
12335
12291
12374
12482
12425
12536
12484
12753
12546
12821
12629
12895
12718
13003
12765
13045
12863
13025
12922
13009
13044
13066
13159
13152
13320
13206
13385
13246
13339
13129
13273
13075
13231
13057
13117
12919
13112
13208
13453
13528
13557
13559
13535
13627
13453
13693
13490
13510
13252
13413
13287
13614
13643
14467
14846
16212
16293
14378
11378
12314
13051
13599
13534
13593
13585
13624
13600
13525
13710
13594
13791
13783
13973
13840
13950
13968
14283
14204
14516
14567
15001
15107
15233
15317
15463
15385
15146
15033
14575
14150
13391
13489
13117
12995
12711
12797
12601
12732
12640
12726
12762
12901
13069
13221
13168
13164
13191
13214
13314
12958
12997
12807
13094
13121
13275
13230
13282
13164
13199
12995
13086
13031
13078
13003
12996
12999
12975
12993
12939
13090
13086
13160
13169
13261
13297
13490
13556
13731
13751
13739
13589
13694
13652
13699
13636
13674
13593
13723
13838
13817
13954
14350
15603
16558
16525
15867
12216
10838
12032
12780
13435
13489
13673
13684
13762
13787
13873
13840
13892
13960
13965
14229
14230
14302
14284
14500
14472
14761
14841
15059
15069
15258
15164
15101
14921
14789
14613
14348
14029
13568
13179
12798
12579
12340
12243
12131
12224
12122
12235
12200
12295
12375
12503
12542
12623
12566
12821
12933
13031
12909
12930
12981
12936
12929
12887
12913
12919
12959
12880
12971
12882
12973
12885
13022
12894
12990
13007
13181
13223
13282
13233
13246
13274
13195
13137
12946
12901
12832
12982
13037
13187
13198
13530
14421
16244
16713
15971
12096
11260
11950
12529
12891
12989
13149
13103
13246
13213
13337
13320
13471
13443
13581
13560
13704
13700
13811
13941
14029
14238
14375
14664
14830
15049
14989
14953
14721
14656
14345
13959
13531
13257
12790
12602
12334
12295
12166
12190
12152
12244
12326
12444
12518
12545
12646
12639
12745
12732
12764
12675
12754
12780
12877
12815
12877
12745
12864
12835
12867
12816
12811
12835
12872
12915
12859
12876
12834
12856
12657
12697
12631
12732
12691
12799
12675
12748
12753
12998
13086
13213
13265
13339
13452
13460
13489
13497
13557
13416
13484
13455
13638
13635
13947
14528
15558
17126
17247
14660
12314
12593
13062
13388
13562
13586
13636
13651
13647
13770
13713
13773
13730
13871
13834
14007
13944
14097
14073
14287
14343
14632
14791
14997
15097
15140
15169
15046
14950
14750
14498
14024
13737
13329
13148
12876
12820
12605
12624
12508
12610
12563
12688
12726
12805
12837
12793
12901
12895
12985
12921
12971
12865
13009
12937
13063
12933
13066
13028
13071
13054
13068
13012
12994
13029
13028
13129
13072
13173
13154
13325
13271
13321
13206
13289
13270
13451
13511
13675
13581
13741
13617
13625
13506
13518
13500
13480
13479
13456
13488
13558
13880
14574
15983
17135
16532
12642
11613
12184
12858
13025
13185
13249
13296
13224
13253
13330
13350
13408
13430
13536
13492
13700
13610
13775
13704
13890
13883
14107
14189
14509
14535
14736
14730
14676
14606
14442
14252
13867
13599
13188
13026
12755
12766
12522
12658
12509
12549
12426
12549
12509
12551
12495
12656
12741
12762
12808
12706
12770
12696
12773
12794
12816
12721
12826
12785
12896
12814
13010
12997
13182
13103
13237
13163
13330
13342
13420
13416
13401
13403
13336
13348
13250
13257
13076
13159
13192
13477
13553
13755
13666
13803
13740
13805
13730
13737
13630
13570
13503
13466
13499
13555
13868
14578
15674
16940
16921
13986
11987
12389
13112
13340
13508
13536
13533
13534
13565
13584
13543
13624
13535
13637
13584
13725
13616
13748
13741
14009
14093
14306
14439
14796
14973
15093
15048
15095
14925
14791
14413
14072
13734
13347
13124
12856
12728
12541
12614
12558
12735
12635
12758
12625
12700
12607
12737
12628
12702
12649
12704
12728
12741
12815
12748
12800
12629
12670
12641
12779
12632
12706
12516
12653
12583
12670
12628
12711
12707
12786
12793
12860
12906
12953
13029
12986
13097
13130
13212
13073
13216
13161
13327
13334
13495
13394
13459
13338
13283
13179
13060
12958
12947
12946
12927
13073
13252
14192
15112
16405
15627
11986
11385
12342
12982
13338
13358
13599
13549
13699
13655
13784
13778
13858
13900
13987
14104
14172
14308
14392
14574
14606
14816
14975
15354
15486
15682
15623
15634
15399
15286
14967
14653
14178
13751
13397
13105
12850
12564
12506
12403
12472
12411
12550
12488
12598
12490
12643
12636
12716
12639
12661
12619
12615
12559
12515
12518
12479
12527
12454
12515
12446
12555
12500
12676
12587
12742
12743
12867
12798
12819
12690
12806
12850
13103
13165
13319
13260
13279
13297
13253
13247
13193
13147
13177
13233
13201
13311
13383
13852
14693
16265
16817
15621
11417
11321
12169
12906
13185
13330
13466
13520
13528
13508
13666
13644
13740
13702
13915
13863
14016
14063
14258
14314
14498
14648
14916
15147
15377
15526
15549
15591
15468
15446
15134
14881
14444
14174
13715
13494
13134
13006
12781
12795
12612
12506
12510
12517
12535
12517
12659
12611
12754
12655
12772
12755
12869
12773
12859
12789
12910
12797
12910
12861
12960
12846
12802
12782
12817
13025
13128
13295
13211
13450
13245
13400
13112
13356
13151
13341
13179
13388
13278
13534
14269
15774
16785
16109
12940
9738
11082
11899
12768
12889
13258
13160
13448
13238
13421
13284
13538
13520
13697
13706
13784
13857
13922
14084
14060
14406
14412
14873
14933
15329
15141
15370
14983
15039
14653
14533
14014
13695
13196
12889
12726
12507
12493
12282
12357
12433
12551
12530
12659
12620
12813
12692
12975
12786
13033
12895
13163
12895
13025
12800
12936
12755
12825
12764
12855
13041
13051
13231
13178
13356
13164
13300
12945
13157
12981
13307
13125
13357
13419
13842
14919
16604
16904
16146
11833
10874
12063
12641
13186
13149
13462
13332
13659
13449
13686
13558
13871
13715
13921
13897
14078
14145
14230
14328
14310
14579
14572
14963
14986
15302
15084
15261
14904
14985
14574
14402
13834
13459
12951
12902
12457
12559
12326
12403
12179
12292
12297
12356
12412
12370
12543
12394
12640
12489
12746
12618
12893
12712
12928
12701
12907
12719
12919
12897
13100
13212
13385
13470
13363
13429
13115
13251
13092
13338
13145
13409
13325
13654
14318
15723
16713
16958
13467
11056
11866
12477
12925
12886
13154
13060
13312
13136
13439
13227
13411
13287
13566
13422
13700
13626
13846
13890
14124
14283
14425
14688
14766
15051
14962
15181
14853
14863
14548
14387
13880
13711
13178
13182
12804
12926
12578
12691
12455
12625
12510
12639
12563
12597
12603
12671
12869
12797
12932
12773
12868
12595
12851
12585
12774
12513
12719
12548
12772
12749
12902
12948
13028
13076
13026
13079
12888
13017
12818
13024
12835
13066
13001
13433
14062
15702
16895
16820
12555
11485
12125
12751
13038
13006
13239
13212
13409
13202
13360
13149
13381
13266
13493
13331
13631
13525
13754
13787
14026
14237
14669
14760
15086
15033
15075
14965
14926
14838
14490
14198
13685
13525
13103
13135
12755
12838
12476
12675
12452
12716
12577
12778
12636
12796
12773
12793
12862
12804
12944
12841
12998
12754
13052
12879
13130
12910
13132
12918
13134
12921
13016
12937
13010
13107
13203
13288
13254
13346
13181
13383
13168
13368
13109
13323
13131
13283
13169
13507
13470
14305
15368
17019
17258
14535
11725
12070
12790
12973
13263
13047
13294
13086
13395
13269
13549
13386
13615
13389
13661
13475
13826
13728
14044
13937
14151
14265
14564
14710
14821
14930
14771
14864
14559
14576
14089
13923
13268
13220
12775
12857
12555
12692
12492
12576
12477
12514
12504
12419
12558
12450
12663
12551
12803
12615
12854
12633
12940
12741
13032
12842
12990
12824
12886
12840
12907
12989
12911
13012
12894
13114
12917
13128
12896
13095
12849
13159
13052
13349
13291
13510
13436
13646
13615
13483
13405
13316
13377
13540
13496
13550
13748
14343
15318
16675
17146
15090
12135
12152
13016
13164
13420
13168
13366
13190
13403
13306
13409
13414
13516
13587
13568
13790
13718
13989
13808
14145
14048
14449
14395
14772
14714
14999
14859
14989
14809
14708
14392
13948
13607
13169
12969
12656
12694
12434
12601
12384
12564
12355
12632
12565
12768
12647
12777
12706
12717
12698
12658
12749
12668
12841
12683
12908
12747
13046
12874
13128
13019
13247
13009
13195
13016
13280
13081
13309
13097
13266
13100
13257
13172
13255
13259
13247
13297
13092
13311
13193
13508
13399
13647
13503
13743
13510
13654
13340
13440
13219
13262
13214
13299
13360
13400
13680
14255
15365
16470
16769
13981
12028
12285
13164
13262
13535
13373
13594
13476
13662
13671
13769
13760
13729
13866
13800
14031
13897
14200
14048
14416
14345
14767
14684
15067
15050
15291
15174
15201
15052
14911
14720
14255
13976
13413
13298
12985
12938
12717
12751
12609
12766
12563
12778
12483
12698
12420
12670
12490
12714
12522
12691
12543
12599
12564
12558
12584
12515
12666
12542
12747
12545
12816
12681
12969
12749
12990
12833
13081
12960
13119
13086
13178
13199
13245
13380
13297
13404
13260
13491
13234
13373
13143
13362
13267
13552
13379
13530
13307
13441
13335
13363
13316
13243
13368
13256
13424
13399
13801
14279
15203
16343
16941
14862
11981
12111
13041
13309
13481
13424
13711
13519
13740
13628
13759
13606
13448
13335
13353
13545
13659
14021
14031
14366
14299
14727
14681
15136
15083
15362
15150
15210
14882
14782
14392
14035
13678
13307
13099
12773
12775
12484
12637
12416
12623
12396
12675
12473
12689
12479
12744
12646
12748
12700
12728
12787
12788
12921
12723
12862
12693
12866
12676
12916
12628
12872
12663
12878
12713
12880
12806
12888
12802
12849
12922
12801
12944
12813
12983
12819
13064
12857
13149
12956
13093
12959
13232
13111
13504
13318
13592
13415
13720
13584
13727
13569
13524
13433
13464
13492
13385
13604
13759
14587
15224
16472
16070
13034
11333
12322
12806
13343
13308
13560
13583
13696
13679
13690
13760
13734
13941
13805
14047
13877
14158
14010
14294
14198
14588
14597
14992
15044
15347
15423
15540
15523
15434
15326
14943
14658
14082
13901
13369
13326
12915
13001
12683
12821
12556
12776
12665
12790
12762
12824
12847
12830
12855
13054
12951
12996
13000
12946
12984
12875
13042
12923
13186
12949
13159
12923
13161
12964
13232
13025
13142
12999
13140
13044
13074
13078
13027
13122
12993
13221
13025
13389
13212
13417
13213
13405
13217
13427
13222
13339
13178
13234
13184
13255
13354
13494
14407
15395
16611
16069
14633
10712
11654
12383
13272
13311
13632
13568
13808
13750
13885
13864
13886
13948
13878
14027
13923
14161
14035
14338
14164
14514
14462
14873
14868
15373
15303
15553
15251
15401
14990
14854
14284
13987
13447
13193
12885
12683
12604
12450
12476
12218
12321
12121
12335
12121
12444
12247
12493
12341
12597
12478
12656
12560
12638
12584
12562
12589
12520
12704
12616
12841
12621
12883
12661
12860
12644
12860
12661
12751
12511
12691
12663
12870
12989
13030
13207
13124
13269
13020
13168
12881
13131
12865
13126
12870
13124
13121
13670
14442
15988
16572
15814
11959
11445
12293
12801
13247
13324
13446
13401
13497
13400
13587
13442
13707
13589
13911
13841
14093
13801
14095
14074
14411
14369
14625
14902
15241
15320
15255
15364
15257
15279
14804
14468
13718
13519
12972
12911
12474
12490
12262
12298
12212
12286
12247
12287
12336
12233
12355
12274
12447
12248
12460
12264
12516
12242
12431
12413
12530
12406
12485
12399
12582
12539
12606
12509
12527
12480
12525
12514
12536
12564
12615
12827
12891
13071
13032
13185
13079
13142
13025
13169
13129
13287
13230
13492
13522
13837
14425
15465
16829
16994
14734
11796
12148
12821
13220
13269
13457
13475
13614
13647
13703
13592
13748
13719
13864
13896
13989
14021
14182
14259
14418
14522
14672
14879
15011
15276
15311
15439
15343
15330
15060
14897
14413
14104
13619
13293
12961
12858
12756
12667
12601
12480
12472
12427
12417
12367
12551
12532
12729
12680
12815
12709
12860
12838
12947
12969
13110
13082
13000
12994
12848
12873
12971
13003
12993
13112
13018
13155
13097
13161
13015
13223
13101
13421
13469
13670
13670
13742
13748
13657
13675
13489
13569
13439
13647
13490
13791
13784
14305
14837
15903
16962
17100
14863
12132
12489
13145
13610
13593
13707
13574
13698
13504
13729
13515
13735
13492
13746
13635
13889
13774
14020
13991
14174
14276
14510
14746
14891
15202
15175
15328
15073
15163
14814
14776
14197
13995
13413
13236
12797
12753
12538
12500
12498
12601
12493
12663
12591
12703
12655
12705
12768
12656
12823
12718
12870
12706
12922
12657
12862
12677
12914
12671
12848
12697
12835
12698
12798
12753
12758
12754
12634
12690
12456
12613
12501
12798
12766
13091
13013
13225
13117
13315
13170
13160
12930
12939
12959
13035
13136
13083
13399
13843
14792
15895
16571
15287
11792
11523
12499
12927
13305
13251
13513
13497
13520
13600
13591
13709
13689
13785
13669
13934
13746
13984
13864
14165
14217
14539
14751
15064
15172
15381
15277
15321
15112
15163
14871
14607
14151
13879
13529
13279
13065
12961
12838
12725
12774
12666
12756
12674
12716
12669
12768
12716
12890
12806
12886
12864
12977
12966
12960
12885
12840
12845
12763
12829
12769
12889
12850
12964
12805
12817
12671
12737
12686
12850
12921
13102
13228
13285
13256
13145
13150
13034
13061
13010
13117
13045
13186
13283
13587
14319
15699
16775
16686
13977
10883
11569
12335
12858
13065
13119
13320
13275
13399
13479
13464
13672
13692
13901
13860
13978
13954
14181
14175
14393
14405
14703
14769
14980
14979
15066
14978
14924
14870
14719
14479
14087
13797
13406
13282
13022
12988
12748
12862
12632
12654
12510
12639
12707
12780
12883
12865
13026
12874
13009
12891
13070
12896
13138
12936
13164
13051
13260
13142
13193
13018
13084
13086
13034
13224
13339
13603
13580
13774
13545
13757
13529
13652
13421
13613
13414
13571
13395
13757
13791
15088
16503
17114
16348
12298
11136
12223
12899
13189
13376
13383
13539
13411
13617
13429
13719
13518
13800
13628
13853
13697
13914
13900
14110
14159
14381
14622
14781
15007
14959
15137
14923
15018
14655
14618
14158
14000
13369
13166
12727
12647
12333
12326
12248
12311
12407
12401
12542
12483
12668
12541
12748
12550
12805
12629
12856
12736
12924
12781
12926
12822
12893
12815
12794
12861
12802
12904
12747
12816
12636
12823
12989
13211
13181
13412
13246
13376
13103
13260
12969
13097
12908
13141
12950
13168
13198
13416
14035
15360
17027
17236
15225
11679
11991
12448
13095
13038
13347
13217
13409
13263
13465
13283
13476
13445
13563
13564
13690
13819
13878
14090
14107
14407
14361
14738
14715
15030
14902
15158
14927
14969
14643
14458
14012
13718
13287
12929
12750
12478
12482
12269
12446
12215
12484
12293
12464
12255
12515
12391
12608
12528
12676
12656
12856
12708
12880
12740
12884
12776
12781
12817
12817
12830
12683
12814
12618
12718
12550
12800
12674
12988
12893
13157
13020
13182
13096
13224
13066
13051
13055
13035
13087
13005
13200
13223
13782
14436
16071
16709
16020
11937
11593
12061
12779
12836
13003
13037
13096
13146
13122
13193
13079
13315
13239
13502
13405
13736
13670
13969
13867
14171
14197
14568
14660
14861
14966
14979
14972
14811
14728
14371
14172
13649
13429
12849
12822
12448
12614
12445
12590
12400
12657
12458
12671
12521
12776
12744
12959
12902
12997
12978
12985
13024
12982
13064
12948
13122
12940
13116
12989
13213
13017
13177
12928
13124
13032
13235
13260
13348
13337
13276
13297
13207
13243
13038
13206
12990
13205
13023
13290
13231
13611
14189
15514
16850
17061
14037
11555
12155
12848
13278
13210
13403
13328
13552
13360
13601
13464
13737
13605
13912
13761
14044
14013
14175
14243
14412
14496
14623
14865
15137
15107
15199
15164
15094
14899
14617
14440
13902
13679
13196
13148
12800
12949
12741
12880
12642
12765
12645
12816
12781
12824
12779
12774
12922
12798
12949
12932
13087
12825
13028
12823
12994
12815
13002
12772
12847
12683
12861
12893
12996
13211
13283
13442
13354
13471
13296
13436
13181
13349
13177
13299
13144
13319
13167
13442
14409
15896
16621
16323
12796
10501
11728
12423
13120
13141
13392
13276
13549
13371
13566
13468
13693
13690
14009
13853
14156
14108
14452
14434
14680
14719
14979
15160
15320
15420
15319
15379
15104
15107
14636
14481
13844
13652
13113
13027
12623
12683
12462
12542
12404
12431
12417
12448
12613
12623
12689
12626
12813
12655
12918
12773
12995
12798
12994
12850
13053
12905
12925
12781
12831
12793
12778
12938
12947
13120
13008
13073
12978
12985
12787
12838
12731
12850
12757
12940
12880
13110
13237
14174
15563
16782
16595
12825
10931
11747
12660
13057
13152
13315
13349
13375
13437
13403
13467
13443
13621
13632
13785
13762
13938
13852
14045
14113
14473
14699
14967
15102
15244
15266
15203
15147
15007
14853
14464
14110
13671
13407
13001
12924
12759
12815
12633
12628
12509
12569
12483
12488
12522
12533
12642
12731
12918
12925
12954
12913
13022
12936
13003
12881
12880
12734
12676
12579
12662
12590
12699
12794
12899
13010
13043
13122
13076
13133
13005
13056
13034
13138
13048
13225
13298
13572
14228
15576
17033
17135
13732
11579
12028
12615
12932
13078
13141
13223
13278
13250
13379
13340
13533
13579
13663
13681
13835
13839
14025
14043
14166
14274
14519
14721
14916
14999
15023
15030
14929
14826
14606
14322
13879
13539
13044
12824
12546
12483
12344
12377
12363
12494
12533
12615
12590
12637
12720
12622
12705
12686
12815
12804
12897
12848
12990
12882
13009
12914
12884
12909
13010
13138
13236
13330
13297
13398
13435
13438
13346
13201
13125
13147
13106
13199
13224
13360
13490
14033
14709
16374
17470
16585
12342
12060
12723
13250
13389
13595
13677
13691
13724
13743
13821
13766
13810
13785
13903
13909
14033
13972
14078
14133
14206
14292
14503
14635
14711
14785
14749
14750
14510
14481
14145
13864
13437
13193
12908
12727
12462
12447
12354
12389
12334
12368
12457
12434
12510
12478
12580
12506
12662
12618
12693
12599
12723
12681
12781
12689
12723
12580
12676
12670
12727
12718
12914
12874
12916
13052
13040
13342
13337
13214
13086
13174
13177
13273
13213
13367
13384
13504
14206
15511
16711
16952
13770
11395
12163
12849
13289
13330
13457
13442
13485
13483
13555
13478
13512
13497
13637
13713
13793
13784
13889
13990
14123
14274
14450
14684
14804
14932
14921
15005
14905
14876
14549
14305
13911
13556
13160
12937
12744
12684
12580
12545
12626
12696
12836
12890
13074
13094
13188
13156
13212
13062
13086
12986
13134
13044
13076
12925
12941
12853
12979
13040
13174
13265
13343
13403
13376
13325
13207
13269
13203
13272
13195
13292
13253
13405
13497
14387
15688
16899
16818
14125
10788
11652
12435
12880
13106
13113
13258
13250
13379
13316
13404
13366
13498
13521
13642
13622
13705
13721
13799
13962
14115
14279
14439
14719
14771
14890
14782
14799
14592
14494
14103
13867
13444
13196
12936
12847
12784
12769
12673
12638
12607
12699
12778
12799
12837
12887
12920
12902
13002
13012
13102
13007
13134
13007
13051
12930
12938
12792
12907
12969
13082
13127
13137
13116
13006
13010
12865
12850
12736
12840
12761
12850
12835
13112
13626
14787
16384
17176
15318
11577
11825
12506
12970
13097
13197
13174
13315
13320
13435
13363
13450
13392
13510
13497
13594
13589
13701
13706
13858
14013
14134
14359
14506
14663
14648
14678
14478
14440
14210
14056
13581
13308
12976
12745
12555
12609
12628
12720
12716
12817
12838
12896
12972
13026
12988
12996
13089
13008
12913
12818
12857
12793
12843
12742
12772
12668
12643
12726
12967
12934
12988
13024
13019
12959
12934
12890
12865
12951
12967
13057
13111
13331
13512
13778
14468
15884
17670
18061
14750
12206
12555
13125
13346
13374
13401
13354
13349
13180
13164
13074
13289
13349
13578
13673
13922
14015
14256
14339
14463
14660
14897
14958
15007
15054
14973
14940
14769
14697
14301
13941
13476
13221
12877
12750
12606
12689
12597
12736
12639
12709
12546
12557
12466
12541
12426
12417
12382
12386
12382
12336
12325
12236
12287
12195
12229
12117
12145
12141
12337
12351
12631
12629
12744
12746
12791
12736
12671
12641
12578
12591
12558
12763
12774
12992
13091
13437
14059
15319
16842
17120
13971
11611
12123
12797
13139
13300
13441
13463
13554
13589
13696
13674
13852
13777
13966
13955
14118
14071
14289
14356
14531
14735
15066
15210
15446
15420
15413
15313
15183
15003
14741
14438
14009
13630
13203
13014
12763
12795
12670
12789
12701
12849
12789
12912
12834
12882
12847
12890
12827
12809
12783
12724
12836
12793
12856
12729
12874
12855
13081
12927
13119
13066
13250
13342
13486
13489
13481
13457
13402
13451
13331
13264
13167
13378
13336
13520
13525
13761
13734
14645
15670
16956
17192
14605
11433
12138
12853
13234
13354
13294
13468
13477
13588
13565
13790
13838
13990
13982
14050
13976
14117
13990
14118
14070
14356
14492
14783
14869
14960
14985
14825
14863
14548
14468
13960
13795
13321
13203
12849
12910
12656
12769
12575
12650
12576
12530
12524
12548
12739
12666
12800
12631
12872
12756
12960
12854
13074
12919
12991
12840
13019
12905
13042
13069
13184
13218
13228
13330
13139
13204
12971
13088
12879
13079
12904
13064
12990
13262
13317
14282
15583
16839
16856
13952
10807
11666
12633
13285
13486
13595
13691
13586
13665
13541
13682
13470
13716
13535
13793
13655
13902
13829
14104
14095
14413
14514
14735
14896
14998
15049
14859
14796
14506
14407
13826
13592
13001
12909
12535
12658
12400
12491
12298
12396
12331
12401
12393
12369
12532
12478
12741
12671
12851
12664
12826
12641
12828
12566
12710
12542
12671
12431
12508
12492
12564
12667
12721
12888
12801
12959
12776
12911
12687
12839
12594
12821
12664
12927
12865
13088
13192
14246
15273
16918
16972
14332
11440
12170
12827
13250
13388
13449
13600
13574
13787
13669
13961
13770
13962
13723
13937
13782
13964
13824
13995
13937
14132
14269
14429
14698
14755
14920
14793
14878
14630
14635
14107
14010
13491
13073
12757
12747
12565
12665
12550
12646
12675
12926
12903
12907
12885
12916
12877
12824
12865
12728
12783
12725
12806
12654
12740
12583
12624
12583
12649
12650
12560
12581
12558
12716
12774
13067
12960
13230
13288
13410
13299
13481
13262
13422
13273
13499
13401
13688
13709
14421
15111
16844
17432
15909
12040
11988
12704
13137
13424
13428
13595
13378
13579
13377
13639
13439
13650
13506
13660
13585
13722
13740
13900
13974
14110
14316
14424
14714
14735
14996
14768
14876
14586
14643
14241
14135
13583
13396
12981
12891
12602
12507
12402
12345
12430
12369
12535
12427
12627
12496
12737
12477
12705
12536
12778
12687
12955
12808
12890
12737
12737
12687
12902
12761
12781
12691
12774
12776
12862
13092
13001
13216
13022
13245
13063
13293
13003
13166
13012
13265
13159
13386
13352
13680
13996
14654
16004
16878
16046
11951
11713
12331
13134
13052
13359
13172
13423
13298
13517
13383
13601
13526
13640
13616
13665
13803
13873
14054
13911
14204
14202
14552
14459
14831
14684
14929
14702
14858
14612
14498
14047
13757
13361
13080
12883
12616
12595
12378
12540
12364
12650
12482
12740
12618
12901
12780
13078
12875
13103
12925
13223
13071
13345
13281
13479
13373
13465
13480
13504
13554
13445
13599
13486
13567
13292
13540
13376
13773
13640
13881
13754
13956
13881
14008
13776
13661
13601
13516
13585
13415
13538
13410
13777
14407
15635
16546
16644
13285
11488
12003
12888
13083
13233
13241
13374
13480
13563
13742
13718
13872
13674
13860
13684
13915
13716
14009
13890
14219
14136
14484
14578
14912
15000
15041
15078
14886
14766
14190
14023
13606
13333
13118
12782
12725
12500
12611
12371
12594
12420
12641
12436
12749
12608
12861
12729
12946
12883
13036
13055
13019
13065
12978
13047
12843
12997
12803
13016
12966
13351
13209
13537
13371
13533
13271
13287
13152
13212
13246
13223
13306
13223
13478
13442
14392
15462
16899
16699
14215
10575
11718
12410
13184
13150
13222
13201
13311
13443
13435
13583
13584
13818
13752
14004
13788
14069
13901
14166
14092
14427
14446
14944
14940
15154
14926
15020
14753
14754
14353
14035
13549
13150
12855
12633
12608
12303
12270
12016
12215
12027
12296
12162
12521
12334
12625
12571
12787
12746
12909
12874
12900
12920
12882
13030
12969
13128
12861
13055
12818
13055
12898
13235
13209
13503
13392
13531
13430
13522
13452
13275
13257
13141
13285
13138
13359
13190
13516
13550
14647
15958
17225
16505
12725
11362
12196
12785
13092
13144
13210
13258
13169
13320
13116
13351
13368
13520
13475
13609
13463
13656
13580
13944
13850
14242
14238
14615
14606
14851
14664
14718
14537
14420
14158
13831
13556
13180
13117
12812
12912
12640
12807
12571
12783
12589
12833
12600
12754
12666
12847
12867
12931
12964
12929
13053
12996
13245
13028
13256
13045
13203
12920
13168
12918
13123
13064
13404
13443
13673
13673
13713
13694
13581
13638
13496
13580
13313
13471
13243
13577
13565
14495
15376
16939
16904
13983
11515
12176
12902
13253
13158
13316
13160
13267
13222
13239
13317
13284
13352
13280
13574
13483
13773
13645
13967
13916
14300
14281
14637
14613
14828
14702
14714
14616
14430
14213
13827
13637
13158
13000
12625
12732
12461
12665
12423
12632
12456
12724
12593
12737
12696
12828
12929
12925
12988
12965
13169
13006
13213
13044
13227
12982
13154
12880
13012
12760
12885
12766
12960
13006
13075
13128
13038
13074
12886
12970
12684
12889
12675
12875
12624
12890
12953
13515
14099
15750
16621
16211
12005
11388
12146
13190
13265
13377
13436
13574
13647
13674
13842
13875
13929
13934
13951
13992
14099
14025
14140
14142
14416
14456
14703
14728
15034
15035
15058
14789
14717
14523
14424
14083
13718
13369
13069
12937
12695
12648
12419
12398
12236
12329
12234
12328
12247
12404
12429
12544
12500
12539
12597
12534
12674
12650
12546
12364
12343
12256
12479
12443
12623
12664
12893
12935
13126
13064
13050
12927
13058
13009
13123
13132
13229
13254
13472
13644
14421
15762
17046
17316
14207
11237
11872
12686
13099
13415
13436
13676
13654
13754
13681
13699
13703
13782
13839
13799
13942
13939
14061
14032
14225
14234
14486
14569
14874
14862
14958
14814
14817
14667
14493
14144
13821
13521
13213
13057
12838
12837
12708
12762
12657
12757
12694
12803
12699
12878
12848
12854
12829
12856
12871
12845
12835
12702
12761
12730
12794
12728
12922
13006
13286
13319
13437
13281
13339
13103
13116
13009
13197
13204
13314
13265
13489
13737
14797
16344
16575
15941
11580
11003
11962
12824
13117
13336
13315
13486
13428
13614
13639
13799
13779
13846
13875
13932
13996
14116
14260
14328
14502
14557
14785
14817
15084
15012
15054
14862
14813
14585
14420
14039
13747
13449
13201
13031
12898
12825
12614
12638
12549
12640
12539
12628
12531
12718
12704
12892
12864
12938
12920
12921
12908
12851
12796
12794
12761
12802
12882
13049
13167
13118
13159
13144
13160
13001
12958
12851
12888
12754
12931
12904
13068
13127
13275
14058
15431
16740
16892
13534
11135
11890
12540
13017
13068
13303
13288
13414
13330
13476
13420
13545
13495
13594
13598
13663
13713
13778
13901
14018
14243
14286
14527
14565
14741
14701
14741
14489
14398
14174
14017
13597
13326
13008
12794
12644
12559
12567
12502
12549
12560
12692
12602
12694
12597
12733
12654
12704
12674
12814
12709
12785
12779
12844
12708
12776
12722
12780
12931
13142
13175
13244
13328
13276
13297
13164
13088
12952
13049
13004
13186
13174
13282
13401
13854
14708
16351
17546
16537
12400
11815
12471
12879
13075
13082
13219
13185
13291
13259
13422
13386
13473
13508
13567
13591
13708
13843
13929
14047
14111
14337
14418
14633
14617
14729
14574
14558
14379
14262
13970
13804
13499
13260
12984
12754
12655
12584
12735
12670
12790
12840
13025
13069
13179
13161
13285
13152
13219
13143
13238
13128
13158
13038
13132
13140
13209
13064
13053
13111
13078
13214
13342
13517
13593
13642
13560
13683
13519
13484
13375
13438
13385
13405
13365
13476
13641
13796
14514
15744
17378
17279
13889
11876
12532
13062
13410
13464
13652
13663
13788
13786
13821
13790
13788
13817
13886
13977
13988
14121
14118
14246
14333
14583
14658
14903
14937
15027
14972
14951
14794
14632
14425
14186
13814
13362
13100
13009
12832
12800
12757
12726
12786
12758
12796
12739
12813
12812
12921
12860
13009
13019
13138
13076
13120
13112
13132
13091
13068
13048
12949
12952
12833
12796
12730
12778
12835
13009
12969
13036
12999
13062
12995
12972
12878
12931
12975
12944
12963
12965
13083
13144
13590
14326
15951
16721
15683
11404
11456
12187
12839
12967
13083
13141
13219
13270
13311
13411
13391
13516
13506
13667
13659
13777
13811
14010
14081
14364
14537
14797
14850
15011
14919
14989
14774
14711
14497
14257
13939
13694
13335
13051
12869
12724
12707
12489
12516
12431
12542
12480
12638
12598
12696
12661
12724
12682
12753
12758
12762
12807
12800
12810
12725
12836
12774
12857
12810
12908
12897
13053
13117
13290
13302
13336
13223
13219
13190
13090
13065
13025
13092
13030
13143
13117
13314
13992
15481
16610
16490
13546
10229
11124
11999
12550
12812
12925
13015
13106
13125
13207
13187
13330
13353
13483
13548
13683
13735
13865
13870
14116
14163
14392
14569
14829
14818
14868
14693
14651
14449
14253
13922
13605
13327
13016
12920
12701
12657
12514
12622
12593
12729
12699
12854
12801
13017
13001
13114
13034
13033
13016
13010
13100
13035
13113
13055
13148
13091
13253
13191
13244
13100
13202
13135
13274
13317
13398
13455
13438
13383
13317
13314
13178
13236
13160
13231
13199
13357
13327
13591
14106
15223
16849
17523
15660
11982
12308
13069
13327
13496
13463
13491
13488
13449
13470
13480
13555
13567
13680
13649
13753
13681
13808
13789
14028
14110
14357
14461
14669
14728
14726
14644
14499
14364
14117
13913
13522
13277
12888
12742
12552
12565
12468
12583
12486
12606
12583
12655
12627
12718
12732
12675
12739
12739
12846
12787
12874
12795
12858
12825
13005
12930
13007
12942
12902
12733
12741
12706
12766
12905
12991
13183
13221
13256
13107
13165
12993
13067
12990
13148
13143
13232
13202
13463
13881
14814
16298
17011
15137
11590
11774
12546
12959
13097
13212
13274
13392
13400
13533
13529
13645
13575
13716
13641
13784
13735
13924
13913
14154
14298
14593
14770
14913
14950
14914
14917
14739
14657
14411
14198
13795
13541
13185
13085
12787
12758
12583
12607
12537
12546
12545
12584
12637
12615
12735
12730
12825
12763
12874
12824
12926
12870
12998
12942
13068
12999
13063
13057
13153
13108
12965
12926
13025
13106
13258
13330
13427
13563
13501
13622
13562
13581
13380
13405
13274
13384
13318
13449
13347
13577
13923
14918
16375
17155
16030
11796
11809
12601
13242
13357
13473
13434
13541
13474
13647
13632
13797
13748
13891
13848
13988
13988
14011
14112
14243
14386
14474
14667
14767
14948
14867
14956
14801
14789
14567
14452
14053
13853
13567
13362
13143
13044
12983
12837
12832
12749
12861
12855
12980
12954
13100
13038
13168
13047
13118
13102
13239
13150
13214
13039
13058
12922
12954
12885
12955
12962
13072
13209
13229
13326
13234
13273
13109
13109
13028
13127
13028
13124
13108
13221
13204
13408
14269
15604
16596
16443
12818
10360
11456
12205
12800
12896
13089
13100
13222
13190
13322
13256
13291
13224
13316
13262
13375
13429
13572
13742
13851
14122
14312
14585
14632
14825
14755
14774
14544
14493
14234
14026
13627
13431
13138
12896
12674
12610
12583
12456
12448
12366
12400
12467
12515
12559
12657
12668
12713
12639
12706
12645
12807
12756
12827
12753
12848
12698
12774
12760
12875
12864
12797
12691
12636
12735
12769
12914
12956
13124
13046
13138
13011
13028
12902
12916
12840
12911
12909
12946
13006
13166
13592
14377
15932
16939
16215
12214
11706
12344
13089
13192
13381
13314
13449
13457
13511
13490
13555
13587
13682
13771
13785
13945
13978
14131
14192
14402
14469
14775
14865
15099
15109
15184
15077
15019
14787
14611
14201
13928
13533
13345
13138
12969
12872
12810
12793
12805
12926
12884
13000
12961
13132
13078
13200
13089
13197
13145
13251
13181
13218
13202
13214
13220
13214
13168
13063
13107
13021
13148
13205
13406
13426
13600
13505
13558
13429
13435
13386
13370
13296
13256
13223
13176
13365
13582
14356
15553
17158
16822
13061
11556
12337
12876
13215
13262
13466
13394
13441
13427
13483
13502
13495
13537
13544
13690
13629
13821
13825
14095
14256
14512
14640
14883
14937
15032
14894
14916
14710
14587
14255
14056
13658
13337
13048
12938
12882
12790
12784
12694
12814
12789
12844
12774
12972
12941
13029
12913
13023
12941
13006
12971
13064
13015
12984
12937
12919
12972
12942
12951
12757
12804
12764
12855
12846
13073
13069
13145
13114
13125
13084
13089
13042
12916
12966
13001
13038
12999
13169
13266
13880
14830
16347
16671
15078
10920
11421
12216
12867
13011
13124
13214
13386
13428
13569
13578
13608
13612
13657
13734
13775
13910
13965
14136
14184
14453
14545
14848
14896
15083
15029
15088
14836
14760
14476
14190
13794
13454
13197
12940
12886
12665
12725
12615
12683
12662
12797
12749
12842
12819
12973
12965
13006
12930
12917
12853
12767
12786
12715
12702
12614
12616
12538
12619
12578
12778
12789
12932
12963
12987
12883
12896
12876
12866
12837
12795
12849
12830
12995
13023
13266
13950
15345
16462
16467
11458
10447
11464
12363
12692
12927
12941
13115
13064
13189
13207
13331
13387
13478
13550
13556
13662
13709
13858
13926
14208
14354
14658
14820
15011
15019
15096
14935
14886
14668
14461
14138
13782
13476
13234
13075
12884
12839
12686
12681
12579
12693
12615
12738
12706
12887
12895
12997
12992
13094
13105
13086
13119
13139
13150
13076
13138
13035
13093
12935
13024
12960
13051
13024
13157
13138
13260
13222
13220
13123
13023
12972
12992
13031
13144
13164
13285
13527
13760
14579
15897
17485
17083
13380
11833
12562
13056
13363
13278
13425
13368
13482
13463
13473
13466
13485
13560
13628
13742
13708
13709
13645
13785
13843
14077
14208
14508
14569
14685
14597
14603
14398
14289
14055
13757
13465
13101
12891
12564
12498
12380
12450
12324
12460
12428
12534
12481
12639
12602
12696
12676
12746
12851
12841
12909
12925
13043
13036
13107
13060
13149
13012
13095
12996
13107
13118
13367
13367
13525
13480
13554
13454
13461
13346
13366
13296
13292
13290
13267
13363
13454
14056
14821
16532
16991
14992
11520
11904
12556
13074
13114
13222
13172
13276
13279
13307
13344
13381
13343
13309
13642
13571
13734
13753
13889
13929
14156
14271
14587
14683
14821
14832
14897
14853
14784
14541
14353
13981
13625
13333
13065
12933
12804
12778
12692
12757
12742
12791
12759
12828
12810
12859
12905
12914
12885
12901
12946
12994
13066
13101
13128
13117
13127
13117
13114
13013
13065
13000
13075
13165
13324
13355
13443
13377
13390
13250
13264
13094
13098
13145
13207
13270
13338
13569
13646
14464
15508
17066
17411
15260
11631
12241
12985
13582
13642
13783
13824
13847
13755
13749
13865
13816
13881
13826
13853
13820
13884
13926
14113
14132
14302
14412
14663
14779
14924
14894
14879
14789
14674
14562
14245
14010
13615
13372
13033
12920
12668
12678
12560
12586
12474
12570
12608
12765
12766
12849
12759
12797
12695
12716
12698
12710
12670
12611
12615
12595
12646
12627
12796
12834
12977
12934
13031
12934
12980
12825
12861
12781
12856
12907
12980
13082
13225
13384
14192
15816
17025
16965
14014
10594
11420
12304
12756
13051
13074
13224
13161
13231
13183
13216
13289
13307
13403
13458
13558
13586
13713
13668
13885
13978
14312
14459
14702
14723
14812
14678
14574
14448
14227
13947
13646
13366
13053
12874
12657
12687
12598
12610
12563
12683
12698
12870
12847
12955
12898
13098
13046
13170
13066
13176
13103
13066
12988
12907
12821
12822
12829
12894
13101
13143
13311
13300
13368
13206
13218
12964
12989
12930
12997
12961
13014
13031
13218
13375
14425
15952
16747
16599
12563
10830
11740
12525
12856
13121
13113
13256
13225
13351
13311
13417
13476
13597
13622
13684
13809
13820
13962
13962
14188
14313
14559
14692
14878
14808
14874
14713
14661
14381
14141
13768
13592
13270
13129
12955
12899
12773
12721
12740
12731
12821
12763
12876
12920
12994
12901
13089
12979
13085
13060
13158
13037
13082
13022
13036
12976
13060
13075
13066
13176
13254
13389
13373
13470
13383
13448
13302
13288
13162
13252
13178
13231
13228
13399
13444
14022
15198
16702
17267
14993
11353
11802
12610
13052
13245
13186
13304
13212
13335
13308
13444
13425
13532
13624
13635
13706
13718
13844
13842
14066
14153
14411
14560
14872
14910
14944
14803
14769
14533
14411
13989
13730
13260
13105
12926
12868
12767
12802
12813
12820
12854
12794
12847
12777
12796
12692
12855
12798
12960
12881
12956
12912
13048
12966
13037
12946
12970
13022
13003
13005
12978
13044
13001
13109
13035
13160
13146
13303
13157
13167
13012
12982
12874
12972
12904
12854
12857
12920
13025
13526
14538
16050
16889
15355
11555
11561
12335
12780
13075
13068
13227
13159
13215
13185
13245
13234
13330
13372
13479
13467
13585
13595
13701
13882
14066
14324
14455
14676
14647
14737
14633
14721
14547
14418
14059
13842
13432
13247
12986
12917
12823
12807
12762
12734
12802
12744
12846
12706
12810
12734
12889
12790
12874
12842
12937
12894
12896
12785
12872
12834
12664
12735
12987
12862
12777
12705
12616
12621
12494
12478
12430
12692
12763
12993
13051
13247
13249
13379
13289
13401
13319
13439
13374
13481
13543
13602
13919
14336
15089
16874
17147
14820
12089
12526
13194
13441
13512
13449
13458
13250
13333
13206
13273
13201
13387
13371
13564
13640
13801
13951
14097
14311
14513
14789
14798
14962
14949
15095
14964
15017
14725
14655
14177
13946
13507
13293
12994
12762
12741
12536
12727
12494
12751
12538
12784
12614
12823
12705
12916
12816
12895
12744
12836
12841
12836
12995
12777
12885
12670
12927
12706
12868
12583
12716
12464
12672
12544
12779
12802
13004
13033
13078
12977
13090
12867
13042
12935
13007
13036
13017
13222
13359
13803
14738
16458
16498
16137
11893
11759
12386
13270
13493
13679
13642
13801
13712
13736
13754
13802
13930
13826
14027
13968
14196
14045
14434
14370
14733
14641
15058
15046
15303
15266
15295
15159
15053
14949
14627
14400
13949
13894
13396
13397
13070
13164
12830
13009
12808
13008
12809
12982
12838
12855
12805
12898
12894
12795
12935
12842
13041
12832
12916
12688
12869
12640
12876
12788
13020
12813
13050
12834
13036
12781
12961
12770
12929
12839
12945
12986
13101
13279
13395
13511
13422
13588
13471
13643
13362
13519
13249
13442
13233
13428
13237
13463
13456
14132
14984
15936
15962
14529
11267
11623
12535
12891
13251
13158
13495
13381
13631
13448
13679
13590
13776
13704
13857
13851
13991
14053
14069
14254
14196
14554
14631
15042
15034
15342
15139
15295
15007
15014
14563
14395
13892
13670
13315
13113
12953
12812
12708
12878
12808
12811
12846
12781
12863
12778
12986
12827
13022
12876
13139
12845
13089
12902
13068
12827
12959
12846
12974
12844
12811
12782
12721
12807
12698
12911
12781
12982
12794
13050
12892
13151
13002
13192
12948
13119
13063
13388
13394
13471
13479
13486
13664
13627
13805
13525
13560
13300
13534
13373
13598
13467
13852
14438
15525
16237
16258
13439
11822
12451
12994
13419
13383
13639
13607
13803
13663
13944
13667
13874
13693
13879
13730
13966
13729
14059
13908
14171
14148
14394
14395
14666
14674
14656
14613
14495
14422
14106
13958
13427
13359
12888
12913
12601
12687
12374
12532
12358
12495
12368
12473
12407
12457
12505
12450
12587
12499
12737
12596
12822
12632
12787
12572
12829
12686
12903
12754
12847
12685
12776
12766
12744
12788
12799
12884
12696
12861
12665
12867
12688
12933
12824
13104
12937
13184
12956
13026
12893
13032
13040
13113
13231
13216
13540
14141
14812
16123
16641
15562
12095
11808
12690
13045
13402
13312
13632
13394
13606
13419
13615
13404
13569
13401
13549
13523
13606
13687
13705
13886
13894
14234
14234
14642
14655
14993
14763
14912
14618
14677
14305
14171
13725
13509
13191
13028
12976
12831
12911
12743
12907
12750
12953
12783
13036
12905
13135
12922
13073
12913
13020
12910
12952
12832
12795
12797
12818
13027
12930
13148
12979
13212
13017
13333
13157
13404
13192
13357
13140
13418
13313
13725
13611
13817
13603
13698
13568
13566
13410
13308
13138
12978
13002
12880
13034
12881
13291
13648
14486
15674
16462
14911
11642
11422
12257
12670
12879
12872
12978
13127
13084
13277
13223
13457
13335
13565
13436
13651
13451
13755
13627
13878
13943
14260
14337
14621
14752
14859
14868
14743
14841
14588
14490
13966
13765
13183
13161
12789
12864
12581
12715
12613
12826
12777
12860
12861
12932
13051
13003
13118
12982
13025
13052
13046
12958
13024
12871
12975
12845
13017
12828
13075
12903
13188
13017
13194
13066
13220
13116
13212
13120
13118
13193
13231
13473
13458
13708
13598
13762
13618
13869
13603
13726
13404
13484
13319
13493
13396
13468
13587
13898
14551
15517
16726
16098
12800
11332
12295
12843
13372
13286
13515
13348
13577
13474
13640
13614
13733
13729
13765
13801
13727
13900
13860
14157
14106
14395
14360
14762
14685
15018
14921
15100
14880
14925
14552
14477
13889
13729
13251
13135
12891
12851
12690
12589
12616
12571
12737
12718
12880
12789
13077
12899
13082
12906
13112
13013
13213
13038
13114
13002
13087
13095
13133
13148
12952
13043
12935
13105
12895
13061
12891
13099
12868
13038
12861
13033
12964
13288
13374
13497
13437
13435
13502
13406
13397
13184
13326
13105
13299
13137
13437
13475
14362
15060
16405
16323
14810
10956
11553
12438
13119
13466
13536
13772
13650
13802
13682
13730
13720
13815
13684
13955
13843
14002
13846
14174
14087
14407
14451
14747
14716
14922
14839
14847
14710
14513
14434
14163
13967
13561
13404
12918
12932
12604
12769
12506
12665
12544
12761
12731
12849
12796
12937
