15578
14910
14111
14063
13246
13231
12594
12707
12251
12384
12173
12251
12217
12195
12289
12110
12342
12111
12498
12178
12617
12256
12609
12196
12545
12199
12492
12266
12434
12230
12230
12274
12250
12534
12541
12923
12657
13058
12697
13077
12677
13038
12669
13057
12802
13129
12970
13198
13267
13429
14529
15983
17301
16802
13574
10568
12094
12581
13586
13332
13799
13553
13966
13693
13972
13785
13904
13829
13867
14039
13977
14257
14138
14611
14786
15008
15180
15655
15612
16058
15795
16189
15737
15939
15262
15226
14334
14166
13415
13277
12741
12661
12503
12379
12358
12228
12430
12117
12477
12142
12553
12159
12502
12143
12539
12210
12527
12307
12568
12411
12469
12465
12422
12481
12278
12544
12258
12637
12338
12879
12605
13080
12767
13163
12800
13084
12802
12998
12900
13022
13095
13021
13211
13170
13825
14612
16709
17013
16412
11216
11361
11833
12935
12965
13339
13180
13407
13263
13726
13433
13735
13481
13716
13651
13782
13914
13856
14123
14019
14594
14562
15186
15103
15727
15446
15850
15461
15728
15218
15135
14540
14237
13714
13397
13169
12820
12895
12525
12757
12321
12629
12219
12628
12256
12620
12238
12653
12428
12711
12564
12691
12673
12657
12796
12627
12901
12630
12948
12639
13085
12710
13123
12695
13082
12724
13062
12894
13218
13153
13273
13252
13129
13178
12848
13052
12686
13088
12752
13230
12863
13343
13274
14608
15733
17395
16863
13204
11208
12383
12746
13388
13220
13446
13360
13465
13524
13479
13679
13467
13775
13466
13852
13559
14047
13729
14223
14021
14669
14667
15181
15176
15498
15451
15453
15462
15225
15203
14558
14435
13707
13727
12975
13122
12546
12828
12403
12738
12488
12691
12491
12595
12570
12558
12713
12584
12838
12567
12895
12550
12957
12553
12903
12481
12857
12566
12886
12623
12899
12760
12840
12840
12763
12934
12981
12805
12903
12890
12917
13212
13117
13481
13206
13555
13178
13573
13165
13498
13080
13468
13150
13491
13273
13594
13592
14460
15441
16977
17465
14696
11961
12148
13191
13231
13695
13308
13725
13317
13690
13333
13604
13443
13648
13534
13642
13762
13699
13983
13895
14385
14231
14818
14658
15241
14958
15466
15126
15453
15074
15098
14527
14278
13792
13346
13057
12667
12734
12303
12547
12136
12496
12124
12537
12156
12530
12158
12504
12257
12750
12320
12727
12444
12765
12468
12694
12532
12644
12675
12685
12831
12700
12970
12689
13061
12755
13169
12782
13184
12693
12999
12733
13147
12978
13263
13254
13397
13446
13375
13409
13057
13121
12624
12927
12549
13066
12715
13247
13081
14033
14781
17271
18253
17183
12772
12275
12732
12966
13092
12767
13092
12726
13262
12980
13525
13217
13698
13310
13678
13408
13545
13071
12899
12572
12346
12519
12662
13336
13493
14162
14016
14409
14425
14623
14235
14301
13709
13927
13435
13683
13333
13653
13333
13632
13436
13704
13613
13684
13723
13734
13922
13789
13962
13646
13872
13483
13779
13420
13737
13383
13647
13369
13597
13305
13387
13308
13438
13519
13374
13486
13269
13504
13251
13570
13148
13563
13189
13555
13314
13757
13714
14006
13895
14065
14024
14057
14019
13856
13878
13519
13689
13248
13564
13176
13584
13606
14490
15600
17153
16390
13000
12087
12820
13340
13505
13502
13856
13681
13761
13655
13605
13585
13411
13532
13252
13429
13088
13513
13251
13742
13523
14071
14045
14618
14592
14916
14797
14872
14865
14697
14486
13928
13744
13068
13031
12459
12596
12155
12454
12035
12347
12108
12405
12248
12405
12299
12340
12390
12291
12418
12230
12504
12271
12657
12414
12830
12574
12938
12634
12961
12692
12927
12749
12840
12736
12731
12755
12622
12795
12592
12861
12551
12831
12429
12757
12420
12726
12481
12927
12673
13091
12780
13213
12963
13308
12963
13161
12996
13153
13112
13152
13245
13167
13326
13036
13371
13116
13672
13461
13912
13589
13945
13652
13915
13635
13738
13528
13576
13577
13564
13685
13624
14398
14665
16377
16587
15417
11473
11989
12344
13253
13109
13485
13321
13552
13451
13570
13654
13625
13775
13534
13784
13600
13911
13619
14088
13833
14383
14279
14918
14932
15427
15367
15579
15480
15462
15338
15002
14799
14157
13978
13295
12991
12650
12625
12305
12532
12255
12578
12208
12588
12256
12620
12308
12607
12342
12537
12386
12566
12524
12491
12623
12506
12659
12474
12887
12610
12823
12485
12986
12702
13722
13905
13925
13413
12980
12483
12297
12594
12814
12974
13281
12849
12272
13107
12425
12147
12008
12884
12317
12903
12987
13039
12911
13068
13090
13535
13162
13114
13621
13507
13760
13424
14148
13590
13805
13285
13573
13187
13644
13400
13782
13595
14430
15723
16966
16066
13361
10804
12033
12865
13481
13611
13694
13930
13796
14139
13777
14128
13670
14031
13657
14069
13719
14080
13814
14149
14086
14413
14537
14752
15015
15113
15408
15198
15476
15057
15289
14607
14636
13835
13794
13037
12971
12421
12477
12205
12239
12167
12161
12308
12234
12507
12239
12682
12425
12855
12490
12921
12558
12856
12500
12757
12513
12601
12459
12472
12477
12443
12663
12522
12874
12648
13004
12673
13113
12771
13102
12848
13278
13004
13514
13272
13643
13320
13613
13363
13536
13236
13326
13153
13162
13230
13103
13301
13188
13649
14343
16093
16611
15949
12791
10495
11359
12731
13262
13739
13693
13919
13909
13909
14034
13968
14226
14056
14384
14057
14403
14171
14628
14404
14840
14645
15168
15216
15700
15798
15990
16023
15960
15935
15600
15539
14828
14625
13814
13784
13129
13232
12709
12879
12525
12737
12524
12685
12568
12593
12630
12601
12763
12758
12711
12789
12832
12737
12785
12543
12749
12459
12771
12400
12730
12368
12779
12434
12808
12564
12863
12684
12828
12695
12724
12805
12858
13160
12995
13333
13009
13364
12983
13307
12817
13076
12737
13059
12770
13026
12982
13292
14115
15132
16524
16239
13739
10713
11751
12393
13252
13092
13591
13367
13763
13491
13829
13730
13996
13908
14042
14053
14057
14222
14077
14336
14112
14496
14341
14848
14664
15168
14934
15272
14967
15127
14189
13944
13294
13234
12655
12822
12167
12533
12024
12411
12023
12315
12074
12244
12182
12232
12318
12170
12424
12100
12540
12116
12555
12065
12538
12053
12516
12108
12500
12190
12445
12276
12399
12375
12306
12543
12481
12879
12649
13151
12745
13243
12776
13235
12742
13181
12796
13211
12986
13257
13284
13863
14886
16403
17062
15413
11477
11163
12541
12777
13593
13201
13792
13349
13803
13416
13821
13642
13856
13803
13894
14020
13982
14310
14399
14487
14732
14950
15067
15503
15391
15854
15460
15863
15288
15642
14869
15004
14114
14150
13387
13367
12858
12890
12682
12598
12619
12419
12693
12355
12721
12367
12908
12407
12943
12408
12901
12505
12935
12623
12903
12724
12830
12810
12777
12829
12537
12879
12559
13038
12691
13297
12810
13347
12785
13172
12698
13023
12702
12947
12821
12889
12946
12953
13325
13201
14669
15827
16970
15743
12432
10019
11794
12272
13341
13115
13570
13257
13788
13333
13885
13540
13828
13604
13883
13863
13973
14114
14136
14458
14391
15006
14892
15560
15355
15839
15565
15954
15555
15762
15160
15001
14281
13985
13441
13239
13006
12823
12825
12564
12702
12401
12723
12403
12738
12418
12827
12471
12800
12545
12844
12653
12779
12733
12620
12740
12474
12777
12410
12822
12373
12827
12305
12811
12353
12752
12310
12690
12483
12893
12952
13091
13228
13170
13330
13015
13336
12900
13321
12889
13311
13170
13519
13267
14340
14682
16665
16651
15437
11123
11886
12341
13324
13282
13625
13567
13626
13713
13619
13833
13555
13985
13615
14168
13726
14287
13822
14387
14012
14582
14383
14915
14858
15192
15199
15199
15239
14996
15123
14671
14459
13677
13487
12743
12760
12219
12407
11995
12284
11967
12219
12047
12303
12202
12291
12380
12379
12615
12457
12717
12435
12802
12527
12962
12582
12958
12623
12963
12676
12926
12760
12911
12860
13034
12722
12891
12648
12908
12960
13202
13280
13210
13406
13177
13421
13052
13301
12859
13230
12911
13257
12942
13269
13102
13529
14077
15149
16767
16669
13798
11287
12060
12613
13339
13126
13616
13311
13674
13321
13693
13379
13709
13488
13742
13645
13852
13924
13968
14174
14149
14605
14563
15107
15010
15540
15292
15699
15346
15645
15126
15076
14452
14137
13584
13233
12973
12693
12700
12416
12647
12360
12711
12352
12711
12345
12735
12455
12786
12456
12784
12366
12764
12447
12779
12479
12762
12578
12777
12705
12702
12738
12665
12820
12563
12821
12521
12821
12494
12942
12750
13308
13050
13342
13052
13301
13084
13123
13004
12928
12958
12830
13082
12863
13201
13039
13718
14009
15546
16482
16279
12290
11207
11836
12852
13040
13269
13401
13407
13617
13498
13767
13529
13824
13479
13886
13604
14042
13801
14281
14055
14459
14433
14833
14957
15283
15489
15493
15682
15474
15402
15223
14844
14370
14013
13486
13444
12922
13150
12736
13043
12669
13002
12548
12843
12520
12770
12533
12693
12632
12679
12687
12579
12802
12563
12863
12535
12835
12484
12900
12540
12900
12545
12934
12689
12926
12795
12960
12909
12830
12850
12793
13178
13117
13431
13115
13386
13070
13447
13006
13284
12918
13197
12937
13155
13088
13290
13377
13549
14643
15778
17139
16405
12880
10914
12136
12571
13351
13079
13462
13178
13420
13189
13627
13364
13820
13566
13938
13749
14016
14045
14273
14428
14518
14842
14892
15405
15344
15779
15481
15783
15378
15598
15019
15018
14305
14111
13555
13400
13075
12892
12778
12595
12708
12467
12670
12354
12680
12337
12745
12424
12786
12502
12871
12695
12918
12772
12890
12809
12805
12899
12730
12927
12682
12920
12601
12930
12555
12988
12784
13259
13047
13398
13142
13264
13050
13075
13018
12930
13050
12936
13211
13043
13412
13201
14546
15738
17087
15883
11686
10599
12197
12715
13551
13319
13767
13556
13860
13710
13901
13751
13851
13824
13802
13975
13829
14066
13836
14274
14131
14675
14512
15104
14962
15462
15269
15538
15266
15250
14919
14556
14126
13581
13284
12696
12706
12250
12490
12105
12440
12064
12430
12159
12504
12295
12580
12476
12620
12538
12580
12677
12566
12744
12535
12824
12479
12867
12574
12970
12668
13023
12757
13089
12854
13021
12834
12873
12909
12958
13239
13395
13275
13404
13354
13301
13331
13081
13187
12891
13188
12870
13216
12928
13457
13359
14584
15811
17115
16081
12114
11191
12212
13010
13299
13485
13407
13683
13399
13703
13343
13708
13366
13759
13466
13887
13689
13994
13857
14145
14201
14463
14711
14831
15203
15146
15449
15135
15425
14922
15049
14351
14258
13485
13412
12803
12858
12533
12564
12489
12482
12559
12403
12580
12362
12644
12300
12729
12379
12719
12335
12692
12406
12727
12464
12853
12517
12835
12527
12864
12598
12880
12767
12902
12867
12853
12911
12738
13046
12915
13427
13218
13608
13235
13565
13185
13438
13036
13288
12989
13165
12946
13087
13098
13153
13481
14017
15048
16515
17407
15048
11846
11699
12831
12993
13431
13183
13546
13319
13415
13318
13424
13538
13558
13806
13644
13943
13700
14070
13818
14380
14201
14813
14806
15418
15285
15617
15490
15597
15451
15257
14985
14460
14163
13458
13382
12769
12760
12622
12717
12442
12673
12377
12717
12320
12685
12395
12789
12467
12832
12607
12868
12743
12852
12866
12908
12952
12793
13006
12777
13056
12721
13132
12785
13143
12753
13082
12858
13198
13058
13393
13252
13363
13343
13302
13384
13144
13276
12989
13263
12878
13209
12855
13262
13132
13762
14539
16426
16880
16327
11799
10958
12008
12808
13390
13300
13643
13417
13813
13462
13823
13493
13881
13589
13984
13747
14042
13916
14122
14167
14526
14464
14974
15045
15418
15406
15457
15482
15336
15295
14737
14530
13772
13693
12895
12945
12394
12603
12196
12471
12186
12476
12295
12425
12341
12370
12522
12503
12746
12547
12892
12636
13046
12694
13079
12679
12999
12641
12937
12661
12831
12729
12834
12812
12784
12835
12592
12797
12453
12755
12477
12964
12770
13193
12900
13282
13052
13381
13078
13174
12997
13005
12996
12869
13065
12902
13337
13303
14401
15126
16977
16248
13211
11492
12699
12979
13577
13322
13750
13456
13804
13543
13838
13671
13908
13872
13975
14070
13989
14203
14107
14565
14483
15065
14895
15522
15277
15736
15427
15673
15298
15390
14912
14592
14049
13629
13314
12906
12854
12471
12638
12280
12573
12211
12621
12241
12566
12254
12610
12384
12594
12419
12560
12584
12643
12782
12647
12831
12544
12826
12483
12844
12493
12897
12522
12929
12623
12903
12625
12844
12710
12720
12660
12630
12845
12874
13103
13293
13264
13241
13277
13049
13246
12866
13157
12831
13191
12874
13288
13110
13858
14213
15795
16743
16018
11943
11185
12034
12734
13164
13086
13393
13151
13553
13261
13738
13420
13807
13535
13961
13765
14103
13942
14170
14217
14386
14612
14730
15152
15107
15504
15285
15634
15185
15376
14747
14689
13914
13810
13170
13108
12768
12734
12563
12495
12495
12363
12576
12356
12649
12369
12767
12409
12769
12451
12839
12536
12794
12552
12731
12470
12866
12519
12847
12562
12792
12698
12899
12958
12990
13111
12987
13186
12952
13276
12877
13162
12926
13384
13148
13640
13386
13745
13495
13616
13470
13522
13432
13330
13446
13270
13571
13356
13767
13595
14789
15543
17228
16540
14446
10587
11683
12438
13380
13521
13647
13813
13768
13933
13740
14045
13766
14176
13838
14232
13953
14422
14157
14564
14406
14799
14761
15101
15234
15467
15591
15511
15668
15343
15419
14834
14848
14059
13839
13323
13286
12707
12884
12360
12621
12254
12601
12230
12590
12289
12595
12442
12562
12532
12595
12692
12579
12762
12535
12790
12458
12798
12411
12834
12417
12754
12425
12824
12616
12924
12858
13074
13103
13154
13321
13107
13246
12879
13184
12825
13191
12867
13306
13033
13525
13366
14852
16283
16956
15914
12004
10171
11389
12424
12863
13340
13102
13581
13289
13718
13412
13887
13529
13908
13712
14077
13886
14141
14219
14399
14621
15062
15123
15608
15636
15849
15862
15746
15751
15391
15342
14554
14388
13464
13453
12758
12933
12406
12634
12213
12397
12145
12293
12143
12212
12264
12260
12510
12349
12718
12447
12770
12412
12826
12429
12826
12480
12757
12345
12639
12480
12639
12688
12864
12948
12881
13126
12868
13131
12749
13043
12692
13131
12764
13166
12783
13231
13139
13948
14996
16716
16525
15292
10988
11007
12256
12701
13347
13079
13498
13165
13652
13272
13687
13440
13914
13535
13998
13645
14051
13793
14157
13992
14401
14438
14754
14963
15120
15335
15212
15439
15057
15125
14369
14276
13407
13366
12605
12807
12329
12538
12246
12447
12269
12298
12365
12345
12449
12300
12622
12364
12712
12347
12776
12444
12921
12572
13001
12632
12896
12688
12834
12717
12698
12739
12745
13024
12865
13233
12993
13407
12992
13306
12846
13203
12828
13215
12959
13212
13059
13357
13696
14774
16455
16861
16128
11402
11688
12500
13078
13130
13397
13275
13666
13382
13823
13426
13842
13526
13914
13608
14038
13767
14115
13994
14261
14381
14588
14935
14993
15441
15315
15631
15249
15569
14907
14883
13988
13938
13201
13167
12718
12764
12514
12524
12508
12438
12526
12338
12616
12295
12632
12362
12774
12416
12836
12498
12911
12639
12966
12753
12926
12818
12888
12938
12848
13027
12874
13182
12847
13118
12699
13101
12747
13279
13029
13435
13142
13403
13208
13476
13103
13427
13003
13291
13086
13261
13185
13409
13634
14293
15690
16811
17099
13379
11716
11994
13023
12983
13430
13130
13477
13179
13487
13350
13528
13510
13544
13606
13511
13784
13647
14054
13818
14347
14170
14804
14668
15333
15159
15541
15314
15568
15290
15189
14708
14214
13863
13294
13237
12817
12960
12475
12791
12400
12774
12409
12751
12419
12742
12507
12759
12623
12734
12734
12758
12960
12761
13009
12731
13079
12688
13092
12840
13099
12836
13159
12811
13203
12809
13173
12792
13181
12876
13119
12861
13105
13113
13335
13411
13370
13450
13261
13498
13118
13372
12943
13282
12863
13244
12920
13316
13156
13707
14147
15283
16622
16685
13578
11419
12242
12660
13250
12990
13432
13114
13502
13165
13572
13240
13608
13354
13597
13428
13567
13551
13657
13859
13854
14250
14233
14775
14693
15311
15120
15588
15215
15511
14970
14968
14263
14089
13554
13330
13029
12761
12757
12676
12462
12556
12459
12417
12510
12367
12571
12352
12751
12414
12809
12407
12771
12421
12857
12506
12863
12606
12825
12710
12871
12897
12891
13037
12876
13166
12927
13264
12921
13316
12952
13297
12891
13230
12923
13217
13016
13146
12964
12940
13004
12965
13288
13188
13432
13144
13521
13112
13463
12997
13312
12873
13116
12821
13082
12938
13150
13236
13772
14174
15335
16580
15763
12377
11633
12681
12843
13377
13057
13494
13162
13531
13262
13768
13456
13859
13533
13912
13693
14025
13934
14194
14245
14420
14690
14746
15166
15112
15646
15397
15776
15345
15610
14941
14889
14105
13995
13358
13226
12874
12793
12654
12578
12679
12513
12756
12447
12748
12418
12772
12399
12829
12477
12836
12497
12799
12589
12762
12650
12736
12790
12686
12877
12673
12910
12605
12877
12473
12891
12523
12913
12619
13001
12756
13034
12829
13044
13023
13065
13154
13065
13229
12967
13319
13051
13327
13314
13403
13172
13404
13225
13720
13432
13882
13515
13937
13559
13862
13523
13658
13402
13501
13392
13381
13502
13583
14324
14264
16296
16701
15652
12162
12591
12770
13482
13239
13642
13381
13606
13498
13608
13699
13709
13853
13716
14007
13742
14182
13851
14300
14020
14553
14407
15019
14928
15387
15335
15558
15438
15482
15346
14993
14738
14016
13801
13066
13035
12386
12604
12113
12442
12083
12412
12156
12435
12230
12369
12342
12637
12408
12751
12550
12760
12656
12724
12748
12672
12830
12618
12833
12520
12886
12552
12955
12599
13024
12706
13104
12820
13070
12925
13056
12964
12976
13092
12951
13176
12944
13265
12979
13355
12971
13390
13042
13407
13021
13291
12939
13206
13134
13423
13488
13519
13648
13508
13754
13459
13730
13258
13558
13177
13560
13186
13581
13438
14206
14407
15770
16748
16349
12656
11756
12667
13091
13479
13223
13613
13278
13694
13344
13748
13546
13910
13586
13981
13632
14023
13685
14109
13872
14237
14138
14495
14590
14827
15033
15051
15238
15038
15221
14663
14687
13935
13913
13140
13190
12601
12736
12369
12533
12264
12463
12395
12385
12467
12411
12616
12371
12712
12428
12785
12414
12814
12487
12899
12572
12859
12631
12884
12725
12850
12810
12822
12958
12791
12996
12730
13094
12740
13130
12797
13227
12903
13315
13049
13406
13141
13313
13198
13305
13309
13260
13399
13191
13235
13434
13502
13647
13842
13668
13999
13744
14049
13648
13935
13409
13741
13337
13719
13413
13741
13703
14770
15542
16738
16460
14331
10982
11460
12682
13081
13639
13323
13753
13416
13777
13415
13790
13517
13811
13618
13793
13786
13915
14089
14130
14419
14342
14817
14704
15335
15171
15715
15363
15783
15385
15634
15150
15009
14422
14079
13558
13213
13090
12754
12840
12406
12661
12246
12644
12244
12605
12256
12706
12401
12680
12449
12785
12432
12873
12531
12871
12531
12717
12544
12662
12621
12547
12647
12500
12759
12489
12845
12488
12913
12570
12938
12451
12853
12571
13081
12944
13151
13066
13084
13140
13086
13210
12969
13134
12780
13149
12796
13212
12850
13463
13972
15578
16445
16102
13597
10233
11031
12096
12974
13138
13426
13263
13646
13362
13759
13406
13829
13476
13930
13611
13958
13729
14014
13924
14178
14300
14479
14854
14976
15454
15367
15749
15395
15746
15217
15194
14557
14414
13571
13506
12830
12998
12499
12775
12340
12600
12336
12561
12427
12564
12600
12594
12766
12685
12978
12716
13053
12760
13157
12742
13083
12711
13035
12696
12951
12663
12903
12762
12838
12856
12765
12958
12759
12983
12598
12967
12619
13131
12909
13311
12989
13294
13052
13259
13025
13128
12963
12975
13034
12950
13191
13059
13529
13895
15071
16217
16911
14563
11392
11397
12574
12931
13391
13327
13478
13483
13491
13625
13800
13725
13919
13902
13949
14057
13968
14185
13975
14391
14178
14687
14505
15129
14919
15435
15136
15477
15105
15115
14655
14345
13875
13400
13107
12604
12667
12265
12522
12141
12536
12196
12636
12247
12609
12318
12666
12414
12540
12406
12461
12493
12463
12673
12525
12865
12525
12861
12493
12932
12509
12916
12543
12932
12662
12961
12799
12958
12860
12882
12878
12750
13016
12962
13472
13169
13594
13197
13627
13229
13561
13131
13399
13027
13447
13121
13601
13318
13820
14209
15182
16471
16927
15099
11538
11851
12574
13380
13247
13627
13344
13755
13365
13770
13485
13962
13662
13981
13769
14036
13940
14135
14180
14254
14566
14603
15079
15057
15576
15340
15769
15344
15660
15115
15227
14528
14432
13733
13458
12970
12804
12697
12491
12598
12377
12646
12352
12751
12372
12750
12398
12835
12507
12856
12561
12869
12699
12896
12851
12877
12957
12762
12893
12600
12881
12431
12648
12601
12813
12656
12933
12650
12961
12593
13030
12580
12904
12584
12988
12855
13218
13097
13276
13269
13331
13374
13160
13273
12966
13234
12904
13294
12923
13447
13304
14487
15098
16690
16095
13311
10963
11792
12654
13092
13320
13254
13529
13247
13607
13268
13684
13364
13836
13535
13954
13721
14076
13902
14200
14204
14394
14619
14754
15169
15159
15583
15324
15628
15139
15304
14633
14637
13858
13811
13175
13130
12686
12645
12534
12664
12332
12586
12354
12501
12381
12447
12531
12486
12683
12463
12770
12496
12877
12528
12882
12470
12831
12504
12862
12600
12919
12844
13045
13020
13060
13173
13008
13201
12899
13144
12839
13262
12977
13538
13226
13634
13266
13594
13394
13592
13362
13306
13224
13147
13280
13096
13382
13216
13843
14361
15947
16559
16244
11955
11224
11819
12951
13070
13303
13310
13435
13508
13528
13781
13593
13869
13586
13942
13612
14024
13739
14217
14047
14585
14511
15085
14957
15540
15318
15730
15400
15641
15310
15253
14789
14393
13977
13468
13338
12860
13013
12619
12929
12531
12886
12536
12916
12530
12853
12571
12857
12668
12780
12754
12679
12767
12621
12858
12600
12913
12575
13005
12610
12985
12616
12993
12686
12959
12625
12792
12723
12894
12979
13047
13253
13154
13454
13178
13495
13145
13473
12995
13337
12978
13342
13014
13319
13220
13599
14721
16392
16883
15836
11780
10230
11978
13008
13445
13436
13623
13462
13724
13437
13810
13459
13842
13483
13891
13615
14080
13922
14354
14347
14682
14787
15079
15382
15484
15776
15554
15828
15381
15608
14978
14961
14066
13979
13228
13249
12675
12677
12374
12379
12247
12206
12307
12150
12446
12197
12596
12345
12734
12348
12726
12351
12758
12444
12753
12483
12678
12529
12587
12559
12509
12575
12313
12605
12397
12870
12650
13082
12719
13156
12752
13028
12686
12912
12695
12852
17162
12635
12372
13272
13465
13877
13473
13830
13370
13619
13154
13379
13003
13203
12992
13133
13092
13195
13330
13339
13665
13591
14046
14007
14593
14390
14879
14591
14933
14518
14727
14232
14104
13495
13174
12674
12357
12245
11976
12173
11954
12218
11829
12194
11815
12269
12008
12447
12204
12586
12387
12605
12508
12651
12767
12786
12995
12871
13119
12840
13156
12785
13189
12820
13141
12724
13030
12729
12994
12822
13096
13131
13232
13095
13404
13114
13267
13066
13060
13058
12999
13159
12992
13325
13187
13924
14310
16224
17003
16490
11998
11731
12199
13093
13160
13402
13416
13420
13528
13429
13686
13455
13805
13537
13926
13631
14094
13809
14304
14124
14582
14569
15011
15111
15462
15559
15555
15623
15397
15543
15055
14940
14112
13984
13200
13275
12667
12874
12542
12793
12553
12734
12622
12681
12685
12603
12734
12497
12724
12427
12719
12357
12747
12426
12825
12473
12866
12563
12919
12524
12895
12500
12811
12490
12855
12667
13007
13005
13101
13151
13046
13196
12939
13146
12817
13140
12806
13180
12791
13210
12935
13418
13505
14548
15951
17267
16076
11805
11458
12220
13092
13118
13518
13260
13654
13297
13729
13383
13807
13514
13858
13602
13903
13806
14033
14107
14211
14457
14531
15012
14963
15481
15234
15599
15172
15478
14934
15008
14246
14102
13372
13186
12793
12725
12603
12482
12592
12380
12632
12553
12617
12635
12733
12533
12773
12532
12894
12560
12972
12553
12930
12486
12839
12553
12845
12620
12807
12698
12749
12763
12619
12724
12571
12916
12809
13322
13010
13462
13120
13515
13105
13355
12906
13114
12916
13109
13066
13168
13290
13346
13968
14643
16557
17071
16187
11319
11624
12140
13284
13155
13618
13435
13754
13639
13837
13851
13819
13944
13823
14092
13842
14224
13988
14465
14205
14697
14469
15075
14923
15436
15244
15513
15131
15450
14927
14991
14388
14247
13674
13461
13125
12898
12868
12618
12779
12464
12823
12471
12863
12508
12977
12568
12967
12614
12907
12729
12973
12849
12891
12856
12811
12959
12734
12943
12611
12934
12560
12942
12675
13218
12946
13341
13121
13395
13099
13208
13015
12952
12967
12865
13053
12816
13144
12852
13424
13613
15386
16694
16724
14459
10373
10668
12067
12737
13234
13266
13364
13530
13412
13605
13339
13678
13368
13756
13388
13809
13714
14098
13902
14383
14182
14735
14603
15176
14979
15374
15148
15316
15057
14968
14598
14133
13782
13152
12980
12441
12639
12189
12520
12068
12367
11960
12323
11996
12315
12135
12446
12413
12484
12510
12500
12711
12551
12815
12547
12909
12583
12974
12628
12973
12599
12939
12681
12940
12649
12690
12566
12644
12818
12871
13138
12952
13230
12925
13230
12790
13071
12593
12962
12673
13054
12816
13104
13101
13502
14303
15792
17109
15299
11207
11673
12415
13041
13300
13316
13552
13377
13686
13381
13762
13382
13760
13384
13844
13543
13960
13804
14155
14088
14344
14526
14774
15110
15155
15475
15269
15581
15182
15403
14773
14776
13954
13888
13210
13248
12834
12913
12727
12722
12686
12586
12693
12515
12811
12537
12929
12615
13027
12690
13071
12721
13102
12794
13074
12929
13067
12976
13019
13085
12970
13142
12871
13163
12813
13094
12659
13068
12705
13270
13061
13420
13125
13422
13078
13434
12989
13266
12941
13230
13054
13208
13161
13238
13427
13918
14859
16427
17358
14978
11658
11479
12687
12827
13320
13111
13489
13192
13448
13276
13401
13385
13327
13446
13311
13585
13436
13845
13631
14148
13994
14617
14480
15120
15002
15443
15262
15463
15297
15218
14943
14525
14189
13569
13441
12840
12989
12515
12784
12404
12831
12481
12887
12653
12940
12714
12930
12852
12885
12888
12760
12884
12725
13053
12701
13008
12785
13031
12847
13095
12790
13105
12727
13061
12658
13010
12695
13063
12798
13031
12762
12935
12944
13144
13289
13191
13395
13200
13510
13151
13455
13036
13347
12959
13347
13074
13386
13157
13574
14059
14818
16415
16953
15207
11425
11831
12441
13261
13077
13533
13277
13645
13279
13672
13408
13764
13518
13718
13604
13748
13817
13889
14090
14007
14389
14308
14844
14718
15295
15034
15493
15152
15408
14913
14995
14361
14115
13546
13247
12775
12927
12626
12758
12572
12661
12666
12621
12750
12571
12814
12524
12864
12477
12875
12503
12884
12544
12913
12674
12978
12801
12975
12875
12871
12923
12792
12950
12727
12994
12668
13076
12716
13078
12721
13177
12992
13399
13154
13462
13293
13463
13364
13271
13305
13154
13349
13118
13439
13153
13668
13428
14708
15658
17201
16117
13448
10065
11365
12249
13102
13361
13447
13612
13485
13760
13486
13875
13549
13963
13651
14080
13745
14211
14018
14577
14395
14940
14839
15456
15339
15758
15581
15796
15593
15549
15333
14965
14681
13996
13825
13197
13236
12662
12949
12459
12732
12345
12685
12362
12655
12476
12650
12565
12644
12644
12596
12826
12660
12916
12585
12910
12500
12887
12474
12848
12452
12752
12475
12717
12562
12869
12960
13094
13196
13062
13245
12952
13205
12766
13047
12680
13050
12626
13041
12800
13285
13793
15218
16540
16706
14041
10231
11155
11925
12835
13048
13139
13303
13387
13283
13553
13383
13793
13532
13948
13615
14100
13838
14311
14043
14472
14414
14849
14933
15248
15365
15393
15512
15292
15364
14875
14824
14035
13924
13117
13136
12503
12699
12247
12459
12235
12462
12353
12433
12455
12416
12592
12455
12725
12468
12818
12475
12881
12529
12973
12696
13060
12743
13031
12854
12986
12921
12943
12982
12844
12960
12734
13002
12747
13234
12935
13361
13009
13411
13077
13327
12983
13116
12776
13167
12802
13189
12934
13282
13730
14756
16477
17230
15467
11468
11790
12340
13227
13088
13535
13242
13653
13325
13727
13429
13792
13637
13966
13882
13984
14026
14063
14291
14232
14595
14507
14960
14820
15389
15137
15509
15107
15382
14900
14895
14287
14059
13525
13202
12902
12654
12679
12379
12587
12270
12586
12244
12635
12274
12733
12435
12785
12500
12749
12538
12677
12602
12663
12674
12566
12766
12472
12714
12382
12705
12372
12723
12541
12801
12525
12853
12473
12822
12374
12794
12455
12950
12728
13102
12953
13101
13053
13084
13083
12954
13067
12820
13113
12821
13235
12954
13577
13842
14855
16222
17199
15334
11921
11787
12733
13192
13306
13510
13403
13614
13327
13627
13375
13793
13464
13886
13615
14046
13792
14148
13980
14344
14391
14700
14892
15102
15420
15398
15660
15365
15624
15163
15268
14435
14351
13523
13470
12767
12781
12378
12493
12304
12343
12382
12391
12381
12636
12516
12625
12624
12563
12641
12493
12744
12489
12835
12505
12923
12576
12967
12572
12925
12636
12934
12697
12943
12862
12956
12920
12826
13020
12883
13147
12868
13154
12724
13128
12765
13367
13141
13516
13219
13477
13348
13549
13389
13376
13355
13261
13428
13208
13525
13238
13806
14011
15071
16169
16999
15083
11848
11696
12799
13200
13461
13417
13469
13615
13507
13743
13585
13951
13661
14044
13689
14092
13756
14197
13988
14475
15148
14977
15590
15418
15865
15578
15781
15474
15452
15019
14600
14199
13646
13464
12938
12981
12497
12791
12384
12726
12354
12763
12392
12702
12425
12705
12528
12687
12526
12460
12553
12427
12653
12402
12712
12390
12775
12383
12760
12387
12760
12423
12761
12476
12722
12600
12790
12808
12801
12906
12746
13033
12811
13111
12711
13166
12857
13422
13143
13502
13194
13481
13248
13412
13226
13228
13204
13126
13240
13073
13368
13184
14074
14777
16268
16542
15441
11289
11567
12115
13225
13099
13658
13352
13751
13437
13773
13580
13852
13787
13859
13842
13777
14065
13974
14342
14178
14715
14490
15085
14933
15543
15337
15751
15436
15645
15351
15335
14933
14536
14166
13659
13460
12957
13050
12535
12827
12371
12747
12349
12706
12371
12710
12481
12753
12634
12806
12773
12790
12905
12806
13021
12711
12984
12620
12975
12627
13013
12594
12997
12673
12981
12760
12999
12766
12926
12535
12855
12587
12927
12902
13117
13146
13196
13331
13215
13501
13203
13421
12992
13313
12930
13446
13147
13652
13541
15127
16344
17039
15975
12121
10341
11488
12634
13107
13532
13240
13635
13308
13745
13377
13789
13456
13897
13673
14038
13895
14163
14153
14283
14459
14568
14958
14987
15503
15351
15792
15455
15847
15372
15616
15002
14947
14245
14070
13474
13288
12972
12805
12706
12471
12612
12279
12548
12197
12633
12266
12700
12431
12758
12439
12753
12396
12861
12485
12860
12549
12822
12478
12744
12550
12671
12608
12610
12672
12541
12688
12356
12745
12545
13113
12860
13338
13013
13364
12945
13188
12831
12945
12713
12845
12811
12755
12888
12836
13189
13740
15162
16262
16570
13114
10754
11183
12448
12641
13095
12941
13213
13096
13234
13308
13254
13457
13327
13660
13376
13779
13521
14012
13745
14247
14069
14652
14592
15093
15052
15313
15265
15268
15272
14965
14583
14390
13881
13506
13170
12844
12869
12469
12656
12312
12685
12277
12675
12237
12584
12283
12639
12420
12728
12594
12788
12812
12855
12940
12819
13005
12712
13061
12732
13075
12711
13098
12701
13037
12677
12965
12629
12905
12766
13013
13145
13115
13287
13156
13429
13165
13452
13081
13361
12959
13337
12923
13273
12949
13441
13790
14723
16123
17085
15734
11567
11603
12275
13169
13064
13496
13244
13622
13231
13694
13348
13763
13457
13862
13607
14073
13808
14268
14050
14481
14438
14891
15008
15235
15426
15466
15668
15478
15634
15116
15184
14385
14300
13504
13488
12839
12968
12520
12681
12426
12527
12393
12416
12445
12349
12569
12350
12704
12359
12703
12318
12757
12453
12900
12564
12905
12591
12829
12713
12872
12835
12851
12951
12703
12897
12661
13081
12959
13521
13173
13578
13233
13645
13230
13460
13099
13260
13101
13161
13194
13158
13371
13246
14184
14880
16813
16874
13077
10840
11950
12513
13230
12991
13407
13068
13530
13187
13563
13244
13644
13502
13728
13577
13761
13835
13858
14118
14071
14510
14377
14984
14871
15413
15093
15475
15057
15346
14910
14943
14332
14133
13697
13459
13181
12866
12896
12536
12795
12437
12831
12463
12889
12471
12798
12450
12859
12563
12855
12654
12804
12811
12869
12971
12834
13041
12721
13003
12699
13066
12723
13235
12953
13386
13080
13459
13196
13376
13149
13191
13136
13261
13050
13305
13065
13222
13286
13983
15467
16900
16855
14250
10315
10705
12084
12437
13183
12904
13381
13144
13531
13293
13566
13448
13586
13617
13644
13844
13739
14070
13884
14351
14174
14713
14496
15102
14963
15459
15173
15436
15102
15176
14771
14397
13965
13440
13229
12733
12781
12284
12560
12173
12545
12162
12567
12196
12594
12321
12608
12425
12617
12641
12726
12838
12730
12884
12637
12937
12585
12920
12521
12924
12544
12924
12528
12786
12385
12846
12537
13104
12839
13239
12926
13213
13085
13191
13074
13012
13029
12889
13109
12925
13278
13065
13545
13914
15469
16849
17336
13871
11425
11746
12743
13028
13277
13341
13326
13479
13348
13602
13339
13730
13428
13825
13580
14124
13845
14314
14101
14531
14477
14881
14993
15262
15418
15439
15651
15411
15575
15105
15084
14303
14231
13484
13557
12942
13112
12695
12890
12663
12818
12756
12775
12816
12732
12916
12652
12817
12908
12964
12909
13093
12845
13058
12744
13091
12682
13085
12706
13080
12698
13019
12704
12902
12748
12927
12992
13131
13223
13132
13291
13056
13366
12962
13216
12811
13259
12929
13314
13022
13383
13269
13672
14237
15569
17390
17412
14120
11562
12395
12775
13417
13171
13644
13298
13733
13395
13804
13508
13806
13604
13847
13616
13611
13547
13542
13808
13740
14156
14102
14729
14622
15205
14952
15353
15004
15236
14738
14705
14049
13812
13140
13237
12666
12775
12410
12545
12370
12403
12381
12335
12452
12240
12495
12281
12670
12357
12804
12442
12829
12482
12885
12615
12913
12644
12749
12636
12683
12727
12612
12829
12654
12904
12527
12893
12611
13215
13008
13463
13171
13484
13243
13480
13208
13197
13050
13004
13049
12980
13258
13065
13490
13407
14504
15495
17296
16258
12489
10961
12156
12707
13278
13227
13431
13455
13443
13559
13434
13718
13468
13801
13506
13915
13782
14123
13918
14370
14223
14810
14718
15328
15167
15624
15346
15661
15322
15386
15063
14740
14259
13744
13508
13002
12983
12514
12812
12364
12729
12350
12700
12364
12726
12424
12707
12589
12722
12603
12559
12563
12481
12736
12559
12880
12541
12884
12522
12967
12584
12922
12525
12875
12612
12892
12732
12877
12907
13040
13285
13261
13488
13257
13573
13241
13575
13107
13381
12905
13299
13004
13367
13141
13406
13451
13989
14893
16389
17041
14961
11196
11897
12794
13443
13693
13618
13888
13582
13882
13560
14003
13610
14038
13722
14153
13823
14208
14013
14339
14311
14532
14745
14893
15197
15231
15630
15428
15776
15271
15538
14896
14965
14151
14088
13372
13292
12862
12922
12640
12580
12477
12297
12491
12306
12617
12291
12709
12340
12749
12344
12793
12422
12800
12537
12843
12631
12815
12709
12708
12828
12676
12860
12611
12923
12551
12964
12691
13187
12842
13254
12881
13188
12827
13221
12828
13209
12822
13153
12874
13178
13145
13522
14787
16511
16838
15674
11397
9976
11634
12274
13263
13020
13511
13221
13680
13332
13730
13524
13856
13761
13907
13952
13985
14155
14103
14500
14316
14895
14795
15447
15224
15810
15494
15876
15452
15606
15122
14923
14319
13896
13412
12949
12834
12442
12572
12131
12414
11967
12400
11999
12441
12084
12501
12233
12579
12434
12609
12543
12591
12708
12567
12774
12492
12848
12498
12706
12601
12717
12466
12803
12510
12958
12693
13148
12799
13169
12769
13090
12710
12889
12638
12792
12718
12772
12912
12883
13237
13741
15075
16430
17237
14245
11169
11347
12548
12692
13184
13004
13325
13189
13347
13344
13376
13524
13424
13713
13522
13871
13533
14018
13723
14210
13970
14518
14422
15044
15019
15342
15239
15348
15273
15048
14857
14292
14097
13359
13326
12637
12853
12388
12703
12285
12656
12349
12640
12462
12717
12653
12871
12579
12917
12678
12911
12806
12868
12867
12854
13011
12813
13058
12738
13079
12649
13050
12639
12980
12637
13036
12847
13344
13212
13460
13308
13347
13338
13131
13200
12875
13132
12802
13154
12769
13178
12963
13696
14092
15969
17129
16726
12293
11509
12205
12942
13240
13150
13437
13216
13547
13205
13615
13240
13678
13341
13781
13513
13895
13672
13972
13903
14214
14341
14476
14821
14944
15374
15197
15543
15149
15453
14795
14830
13958
13908
13215
13340
12771
13038
12547
12890
12475
12793
12517
12724
12548
12647
12645
12578
12643
12457
12741
12490
12876
12574
13044
12669
13093
12671
13046
12728
13043
12793
12985
12805
12822
12915
12918
13262
13191
13510
13144
13473
13119
13541
13093
13376
12945
13289
12988
13224
12954
13169
13227
13666
14406
15911
17162
15704
11746
11217
12530
12849
13509
13264
13717
13378
13773
13504
13784
13621
13782
13763
13857
13953
13901
14076
14410
14470
14646
14907
15049
15460
15413
15847
15574
15923
15456
15702
15034
15027
14217
14097
13456
13423
13042
13006
12853
12845
12911
12743
12980
12735
13036
12645
13059
12674
13087
12696
13124
12775
13092
12814
13060
12876
12927
12861
12718
12795
12586
12795
12443
12809
12548
13065
12842
13398
13046
13400
13055
13327
12995
13147
12928
12986
13016
12946
13176
13012
13337
13222
14195
15066
17164
16880
15647
10893
11673
12309
13545
13328
13793
13476
13884
13570
13844
13640
13863
13774
13869
13955
13965
14230
14115
14465
14249
14795
14617
15256
15050
15632
15324
15655
15351
15560
15186
15008
14433
13982
13491
12907
12707
12212
12289
11821
12099
11693
12142
11769
12187
11856
12192
11931
12242
12184
12289
12294
12314
12337
12148
12380
12080
12401
11981
12458
12275
12774
12484
12932
12679
12930
12657
12814
12629
12803
12843
12830
12919
12824
13173
13014
13713
14778
14195
14586
14068
14245
13602
13833
13340
13478
13153
13319
13134
13220
13360
13323
13630
13530
13943
13892
14507
14374
14874
14649
15052
14600
14804
14225
14119
13502
13321
12875
12569
12440
12146
12362
12030
12314
11967
12436
12096
12496
12017
12394
11997
12405
12099
12331
12125
12228
12159
12147
12221
11978
12190
11939
12387
12202
12618
12250
12626
12126
12619
12197
12501
12225
12523
12484
12663
12751
12969
14432
15929
16799
15851
11239
10728
11981
12653
13422
13264
13797
13582
14129
13724
14196
13918
14498
14189
14643
14374
14846
14718
14914
15167
15281
15592
15531
16058
15941
16482
16094
16476
15812
16205
15223
15081
14261
14147
13468
13384
12852
12927
12992
12639
12747
12548
12794
12276
12770
12395
12826
12369
12918
12455
12827
12495
12809
12683
12997
12916
12923
13195
13227
13484
13226
13682
13169
13560
12994
13595
13114
13552
13171
13563
13265
13899
14120
16383
16493
15873
13028
11168
11972
12834
13385
13763
13868
13727
14081
13755
14246
13688
14142
13764
14365
13875
14463
14053
14580
14271
14701
14541
14869
15028
15167
15368
15208
15455
15036
15192
14409
14454
13554
13644
12825
13031
12501
12750
12307
12538
12358
12416
12390
12306
12493
12225
12573
12238
12616
12172
12677
12249
12806
12342
12799
12337
12721
12389
12574
12425
12593
12629
12553
12786
12497
12849
12534
12971
12519
13009
12759
13123
12751
13152
12713
13203
12818
13302
12849
13341
12990
13387
13095
13367
13312
13358
13296
13180
13277
13002
13300
12878
13236
12736
13177
12663
13113
12706
13170
12859
13267
13008
13210
13146
13186
13248
13119
13360
13103
13480
13071
13511
13128
13621
13247
13748
13363
13774
13482
13777
13592
13738
13720
13713
13827
13677
13891
13549
13957
13559
13956
13522
13970
13433
13848
13466
13892
13688
13989
14007
14722
14939
15932
16117
15007
12065
12435
13065
13424
13498
13345
13600
13313
13666
13228
13667
13292
13792
13353
13816
13452
13878
13662
14027
13971
14261
14346
14500
14742
14709
15002
14728
15077
14585
14839
14202
14384
13682
13822
13148
13214
12727
12792
12526
12551
12500
12432
12562
12324
12610
12331
12776
12364
12786
12372
12824
12429
12867
12539
12877
12590
12736
12591
12584
12602
12494
12723
12502
12796
12479
12921
12501
12941
12510
12947
12528
13034
12694
13210
12798
13230
12857
13246
12890
13166
12950
13113
13001
13062
13106
13051
13242
13015
13330
13000
13359
12972
13384
12934
13296
12897
13276
13007
13344
13128
13307
13204
13184
13226
13140
13422
13298
13712
13443
13818
13355
13739
13316
13646
13264
13570
13287
13559
13410
13739
14076
14312
16441
17471
16593
12710
12539
12614
13299
12960
13444
13050
13460
13087
13500
13290
13532
13393
13494
13524
13528
13737
13574
13896
14005
14131
14283
14572
14602
15025
14872
15303
14926
15319
14872
15185
14465
14462
13641
13555
12900
12876
12551
12533
12465
12420
12579
12421
12704
12385
12750
12367
12771
12374
12826
12395
12747
12368
12726
12545
12813
12734
12837
12867
12828
12965
12749
13102
12753
13146
12821
13301
12969
13400
13018
13409
13086
13430
13200
13362
13285
13310
13341
13268
13483
13168
13414
13132
13565
13363
13858
13515
13975
13582
13952
13602
13832
13520
13691
13303
13671
13393
13789
13836
14325
14951
17205
17643
14749
12347
12385
13202
13082
13562
13200
13630
13232
13664
13305
13657
13368
13679
13542
13725
13668
13702
13862
13789
14114
14030
14534
14437
15087
14955
15599
15385
15890
15524
15755
15256
15062
14313
13895
13384
12993
12865
12501
12629
12269
12642
12276
12678
12218
12672
12305
12695
12433
12752
12501
12711
12560
12647
12665
12656
12851
12624
12838
12537
12889
12484
12904
12696
12978
12684
12982
12554
12917
12483
12903
12523
12854
12537
12904
12623
12826
12649
12720
12745
12825
13165
13004
13333
13018
13425
13043
13417
12955
13275
12764
13140
12850
13192
13072
13558
14037
14786
16667
16854
14547
11431
12086
12480
13243
12998
13457
13065
13520
13164
13567
13349
13683
13515
13705
13696
13766
13884
13833
14180
14087
14529
14340
14991
14824
15466
15254
15759
15373
15696
15317
15326
14743
14356
13816
13411
12837
12891
12500
12567
12423
12436
12529
12427
12675
12516
12856
12527
12935
12557
12982
12609
12995
12617
12983
12737
13043
12908
13072
13006
12969
13020
12878
13124
12852
13199
12871
13309
12917
13343
12945
13314
12948
13216
12895
13250
13121
13363
13454
13422
13602
13478
13719
13384
13662
13180
13467
12964
13401
12988
13414
13223
13963
14380
15923
16857
16147
12136
11116
12105
12675
13262
13059
13544
13177
13612
13264
13736
13375
13816
13513
13988
13610
14079
13751
14246
14020
14471
14356
14793
14889
15158
15311
15388
15601
15384
15574
15064
15113
14278
14127
13228
13301
12655
12822
12306
12567
12261
12382
12256
12294
12348
12273
12461
12255
12585
12237
12593
12167
12608
12209
12656
12289
12667
12405
12720
12530
12729
12650
12644
12713
12513
12739
12503
12865
12677
13193
12819
13303
12896
13312
12915
13236
12849
13132
12887
13026
13015
13052
13313
13649
15233
17163
16751
13623
10237
11041
12181
12624
13201
12963
13506
13151
13624
13174
13578
13228
13598
13368
13696
13599
13867
13928
14056
14327
14336
14793
14791
15414
15295
15871
15503
15937
15482
15726
15086
15061
14373
14137
13511
13299
13015
12730
12755
12449
12643
12330
12690
12305
12733
12340
12844
12471
12843
12503
12811
12594
12879
12754
12836
12834
12756
12884
12580
12810
12492
12864
12548
13081
12757
13215
12894
13270
12908
13254
12831
13294
12910
13322
12996
13385
13225
13575
14147
15392
17001
17534
15474
10862
11600
12146
13141
12982
13525
13206
13656
13264
13644
13326
13632
13410
13613
13536
13674
13809
13849
14202
14123
14605
14551
15193
15021
15640
15356
15795
15378
15650
15182
15156
14501
14177
13639
13158
12818
12482
12540
12167
12438
12088
12503
12141
12584
12209
12717
12392
12835
12569
12859
12752
12950
12955
12997
13104
12966
13150
12815
13133
12684
12933
12890
13061
12839
13234
12881
13338
12926
13279
12827
13111
12613
13001
12744
13021
12885
13056
13088
13197
13917
14796
16877
17524
15698
11357
12098
12474
13462
13260
13822
13673
14185
14011
14291
14317
14587
14612
14580
14720
14554
14815
14528
14977
14596
15185
14875
15447
15202
15662
15287
15574
15191
15239
14815
14512
14039
13398
12982
12345
12271
11724
11985
11491
11831
11387
11830
11417
11817
11412
11802
11663
11931
11859
11974
11874
12253
11967
12170
11976
12059
12033
11982
12119
11822
12071
11794
12218
11945
12537
12274
12843
12579
13022
12683
13045
12795
13075
12976
13083
13133
13073
13238
13195
13946
14489
16781
17665
16710
11924
12095
12336
13220
12991
13371
13142
13341
13219
13266
13278
13198
13459
13238
13699
13389
13797
13462
14015
13727
14276
14103
14741
14627
15089
15081
15317
15221
15148
15073
14665
14451
13684
13592
12827
12993
12402
12720
12249
12653
12396
12778
12334
12768
12346
12851
12477
12872
12572
12861
12670
12863
12758
12863
12973
12871
13083
12895
13252
12849
13253
12838
13328
13054
13609
13303
13712
13405
13605
13329
13391
13273
13218
13284
13169
13392
13171
13587
13309
14326
15015
17463
17819
15712
11628
12235
12621
13274
13200
13395
13461
13479
13597
13475
13780
13465
13853
13544
14057
13760
14221
13909
14403
14155
14632
14501
14880
14945
15154
15209
15114
15174
15084
14797
14568
14180
13723
13424
12904
12944
12486
12708
12243
12614
12170
12585
12213
12616
12285
12631
12430
12645
12467
12513
12518
12422
12643
12453
12756
12439
12827
12482
12841
12385
12798
12411
12804
12503
12746
12453
12711
12686
12902
13072
12936
13158
12914
13261
13006
13280
12716
13035
12655
13086
12742
13119
12962
13363
13842
14978
16605
17102
14737
11136
11775
12340
13182
12970
13498
13226
13711
13345
13816
13458
13827
13545
14051
13656
14022
13742
14190
13995
14374
14354
14757
14872
15050
15277
15225
15487
15191
15464
14971
15084
14276
14252
13475
13540
12930
13023
12590
12785
12563
12696
12710
12672
12775
12611
12915
12589
12909
12529
12947
12525
12957
12600
12981
12601
12910
12662
12923
12764
12912
12906
12790
12900
12665
12952
12627
13091
12846
13349
12981
13405
12978
13329
12896
13134
12918
13127
13075
13177
13279
13267
13577
13957
15582
16662
16481
12476
10657
11561
12719
12962
13496
13134
13633
13211
13681
13411
13807
13492
13826
13639
13917
13829
14064
14207
14229
14580
14508
14950
14867
15390
15057
15510
15097
15431
14887
15000
14293
14181
13551
13317
12881
12659
12586
12371
12505
12208
12547
12195
12645
12289
12708
12344
12845
12521
12867
12536
12769
12616
12746
12667
12626
12730
12523
12661
12346
12678
12314
12817
12561
13061
12720
13171
12874
13185
12819
12993
12779
13042
12756
13179
12887
13224
13184
14287
15636
16867
16971
13325
10535
11242
12463
12599
13222
12940
13489
13156
13614
13291
13736
13549
13764
13620
13774
13802
13837
14120
14028
14385
14241
14842
14634
15262
15046
15510
15082
15407
14997
15171
14623
14366
13828
13547
13247
12906
12909
12594
12805
12427
12772
12390
12862
12457
12888
12521
12860
12560
12923
12690
12837
12800
12862
12909
12752
13001
12773
13066
12595
12968
12594
13007
12827
13225
12983
13458
13082
13426
12977
13318
12867
13172
12809
13074
12912
13133
13131
13227
