13753
14339
14313
14463
14320
14464
14280
14538
14405
14720
14738
15121
15177
15525
15651
15830
15834
15826
15752
15394
15034
14327
13908
13236
13042
12607
12634
12276
12414
12160
12330
12157
12271
12199
12285
12281
12300
12376
12343
12365
12234
12350
12241
12453
12274
12539
12433
12644
12512
12691
12519
12629
12568
12624
12577
12545
12633
12641
12769
12631
12749
12502
12755
12685
12991
12900
13143
13038
13246
13157
13212
13070
13070
12945
13071
13024
13189
13095
13250
13348
13730
14356
16362
17681
15804
11998
11780
12663
12931
13253
13162
13423
13238
13424
13311
13437
13330
13370
13329
13345
13387
13339
13552
13599
13947
13992
14518
14594
15103
15176
15566
15525
15727
15529
15458
14995
14557
14069
13632
13346
12917
12794
12568
12637
12422
12592
12357
12556
12367
12553
12360
12551
12414
12506
12425
12481
12478
12486
12577
12529
12660
12567
12737
12548
12721
12595
12779
12657
12826
12628
12787
12597
12812
12621
12840
12629
12737
12563
12642
12548
12626
12702
12932
12984
13007
13136
13093
13255
13034
13146
12908
13142
13004
13259
13133
13347
13270
13906
14900
16725
17291
15539
11126
11357
12326
12859
13235
13179
13492
13349
13615
13468
13685
13557
13739
13729
13919
13883
13985
14085
14158
14386
14573
15027
15200
15655
15719
16099
16035
16138
15849
15861
15378
15007
14326
13881
13372
13035
12765
12473
12239
12316
12245
12283
12230
12164
12256
12239
12393
12254
12422
12274
12474
12351
12558
12374
12624
12465
12620
12463
12565
12477
12558
12526
12493
12578
12521
12609
12463
12692
12589
12897
12861
13125
12980
13193
13065
13140
12937
12929
12785
12793
12817
12789
12840
12792
13072
13035
14300
16058
16918
16441
12169
10392
11580
12366
13087
13104
13349
13441
13540
13481
13512
13645
13650
13760
13670
13826
13738
14021
13875
14184
14189
17595
17735
17688
17388
17027
16606
15893
15312
14485
14034
13407
13154
12668
12538
12111
12097
11832
11874
11660
11737
11653
11653
11630
11644
11702
11713
11918
11852
12033
11893
12034
11887
12059
11831
11999
11843
12019
11918
11995
11882
11814
11816
11911
12062
12173
12429
12347
12560
12441
12594
12374
12480
12274
12494
12405
12601
12535
12731
12774
12873
13353
14606
16534
17013
15306
10716
11222
11893
12735
12828
13139
13101
13281
13220
13442
13272
13457
13270
13488
13454
13674
13638
13872
13946
14182
14465
14748
15161
15394
15774
15780
16011
15829
15918
15397
15041
14307
13921
13339
13152
12830
12743
12578
12518
12457
12347
12374
12267
12422
12297
12495
12350
12554
12410
12585
12444
12627
12483
12637
12524
12573
12545
12577
12576
12524
12600
12519
12615
12479
12671
12535
12703
12506
12613
12461
12625
12651
12895
12870
12976
12965
12993
13016
12976
13023
12825
12906
13013
13056
13048
13242
13305
13860
14573
17153
18303
16544
12546
12650
13023
13542
13532
13723
13693
13743
13719
13797
13813
13774
13844
13639
13709
13556
13814
13699
13965
13908
14304
14353
14737
14875
15256
15320
15437
15427
15359
15120
14657
14203
13522
13178
12677
12600
12276
12305
12030
12203
12061
12257
12160
12331
12272
12355
12382
12425
12497
12431
12534
12430
12612
12483
12649
12524
12765
12606
12789
12650
12793
12653
12788
12730
12978
12847
12947
12663
12745
12706
12891
12982
13035
13119
13080
13234
13149
13246
13042
13104
12904
13113
12895
13073
12950
13240
13352
13945
15082
17410
17617
13934
11702
12114
12858
12948
13183
13046
13200
12979
13214
13082
13272
13082
13253
13155
13327
13348
13495
13621
13766
14011
14174
14592
14746
15194
15295
15617
15494
15660
15389
15322
14725
14418
13825
13485
13116
12921
12739
12605
12587
12447
12523
12358
12496
12379
12564
12561
12665
12566
12722
12557
12687
12429
12632
12431
12611
12470
12631
12545
12679
12626
12674
12687
12708
12793
12767
12918
12749
12867
12732
12995
12990
13301
13185
13368
13242
13398
13306
13346
13202
13178
13170
13146
13174
13051
13218
13177
13813
14398
16580
17374
15542
11462
11759
12463
13147
13224
13366
13339
13422
13420
13425
13536
13454
13555
13407
13560
13430
13687
13574
13923
13914
14336
14539
15017
15231
15547
15667
15857
15721
15759
15301
14923
14311
13867
13397
12964
12747
12482
12488
12281
12392
12200
12434
12269
12486
12268
12503
12385
12515
12410
12504
12467
12519
12566
12518
12580
12479
12657
12503
12660
12504
12697
12537
12766
12579
12757
12605
12683
12600
12696
12784
12943
13017
13034
13145
13052
13166
12985
13060
12841
13062
12943
13171
13057
13344
13344
13817
14894
16978
17648
16249
11394
11415
12478
13173
13554
13444
13646
13515
13711
13584
13807
13638
13767
13606
13762
13609
13853
13763
14076
14072
14454
14665
15063
15307
15607
15748
15726
15747
15541
15427
14899
14503
13842
13534
13027
12928
12571
12587
12255
12307
12112
12187
12077
12067
12115
12165
12295
12276
12441
12465
12709
12571
12824
12657
12817
12604
12810
12695
12807
12665
12676
12543
12582
12608
12747
12919
12846
12960
12764
12930
12777
12835
12566
12794
12675
12856
12644
12747
12705
12949
12941
14114
16780
16836
15081
10377
10630
11738
12521
12899
13023
13108
13351
13200
13370
13261
13478
13327
13543
13358
13624
13592
13903
13985
14307
14477
14797
15126
15512
15849
15970
16144
15990
16066
15740
15547
14868
14544
13856
13576
13025
12874
12559
12518
12424
12450
12409
12291
12294
12235
12361
12250
12448
12290
12547
12446
12628
12473
12634
12448
12515
12345
12331
12256
12275
12288
12283
12483
12592
12806
12781
12962
12787
12923
12673
12757
12700
12909
12728
12930
12790
13078
12963
14026
15678
17163
17032
13341
10354
11393
12296
12904
13169
13228
13454
13328
13460
13299
13507
13332
13565
13353
13515
13466
13718
13811
14023
14168
14417
14730
15018
15405
15565
15820
15711
15855
15545
15450
14818
14464
13796
13511
13020
12899
12618
12571
12426
12317
12303
12165
12190
12056
12140
12068
12256
12095
12338
12176
12380
12210
12445
12381
12530
12450
12510
12451
12420
12406
12409
12335
12329
12241
12264
12418
12522
12717
12727
12926
12824
12968
12753
12884
12612
12769
12573
12736
12612
12773
12814
12968
13563
15172
17470
17679
13600
11398
12072
12599
13094
12984
13210
13072
13364
13215
13430
13266
13375
13242
13321
13316
13396
13504
13570
13826
13931
14341
14505
14980
15096
15486
15346
15595
15380
15372
14881
14547
13895
13464
13007
12818
12694
12557
12565
12412
12555
12413
12622
12476
12725
12522
12741
12534
12777
12616
12813
12599
12855
12725
12964
12811
12988
12928
12981
12925
12935
12931
12866
12900
12652
12760
12634
12906
12916
13168
13047
13218
13048
13254
13052
13107
12894
12953
12958
12917
12947
12938
13149
13190
13712
14152
16873
17968
16192
12100
12201
12670
13206
13127
13325
13267
13348
13365
13395
13429
13371
13468
13356
13564
13418
13669
13554
13868
13840
14272
14339
14796
14917
15280
15305
15400
15433
15382
15212
14728
14315
13659
13339
13119
12911
12724
12691
12453
12563
12389
12544
12425
12626
12400
12610
12516
12695
12563
12659
12587
12689
12751
12705
12782
12733
12833
12660
12830
12630
12827
12662
12857
12682
12861
12694
12888
12749
12855
12864
12952
13089
13113
13172
13063
13257
13113
13198
12935
13047
12804
12992
12824
12954
12813
12992
13024
13588
14476
16472
17622
15513
11462
11545
12561
13009
13347
13266
13509
13336
13520
13331
13547
13452
13563
13451
13713
13618
13896
13856
14136
14235
14561
14863
15144
15422
15624
15789
15669
15718
15455
15375
14869
14643
13940
13688
13175
13076
12702
12677
12460
12464
12362
12354
12345
12276
12350
12281
12435
12322
12487
12330
12529
12414
12707
12605
12779
12627
12730
12630
12674
12622
12584
12530
12477
12603
12602
12943
12901
13140
12994
13182
12953
13092
12805
12919
12659
12694
12560
12589
12621
12718
12818
13413
15007
16595
17100
14271
10430
11361
12226
12581
12789
12727
12957
12814
13099
12926
13139
13024
13228
13099
13271
13310
13513
13627
13841
14077
14302
14712
14917
15304
15413
15743
15626
15791
15453
15210
14513
14132
13469
13107
12677
12458
12335
12218
12205
12132
12197
12059
12134
11989
12236
12110
12320
12217
12463
12337
12516
12426
12555
12549
12597
12563
12596
12622
12548
12711
12662
12848
12728
12974
12823
12977
12718
12984
12874
13194
13159
13330
13311
13456
13354
13497
13326
13344
13193
13224
13198
13131
13169
13185
13455
13835
14940
17102
18075
15108
12096
12154
12877
13012
13201
13104
13223
13128
13219
13276
13288
13386
13360
13531
13461
13629
13481
13729
13651
14037
14120
14622
14742
15212
15378
15658
15629
15614
15491
15219
14875
14291
13858
13290
13121
12683
12674
12416
12557
12343
12509
12377
12568
12424
12479
12390
12455
12471
12496
12586
12491
12629
12530
12712
12579
12768
12598
12818
12698
12898
12808
13055
12923
13126
12937
13063
12821
12981
12893
13162
13177
13275
13295
13226
13270
13184
13240
13070
13177
13016
13179
12978
13165
13003
13350
13538
14069
15812
17686
16924
12617
11857
12532
13121
13223
13442
13380
13523
13381
13613
13442
13648
13465
13624
13541
13691
13634
13857
13946
14160
14402
14619
14966
15181
15521
15555
15757
15614
15738
15349
15200
14525
14183
13545
13334
12946
12851
12683
12664
12545
12720
12589
12663
12530
12564
12543
12500
12548
12462
12562
12390
12485
12323
12529
12378
12593
12443
12631
12500
12656
12543
12697
12674
12713
12706
12626
12623
12562
12775
12766
13063
12975
13187
12955
13167
12957
13087
12868
12918
12789
12924
12879
12975
12997
13112
13486
13977
15844
17251
16438
11680
11333
11980
12857
12851
13115
12988
13115
13040
13127
13107
13172
13210
13206
13266
13234
13426
13343
13581
13563
13963
14081
14535
14729
15125
15132
15389
15181
15249
14820
14636
14046
13734
13178
12941
12648
12540
12451
12327
12324
12210
12395
12289
12441
12284
12456
12296
12511
12355
12597
12460
12632
12547
12688
12678
12663
12644
12559
12585
12554
12714
12632
12790
12692
12952
12750
12922
12815
13007
13025
13211
13073
13150
13094
13140
13055
12972
12933
12870
12983
12874
13054
12916
13100
12993
13885
15017
17002
17100
13399
10794
11673
12535
13078
13213
13328
13348
13533
13447
13543
13514
13576
13650
13676
13789
13782
14053
14059
14417
14467
14815
14893
15382
15485
15836
15706
15835
15659
15551
15209
14772
14309
13847
13529
13156
13065
12759
12773
12543
12678
12515
12639
12427
12571
12487
12628
12519
12485
12428
12417
12482
12361
12560
12474
12707
12512
12703
12511
12630
12477
12771
12787
12959
12917
12935
12833
12783
12744
12657
12761
12683
12869
12662
12907
12810
13147
13280
15060
17028
17204
13184
10198
11020
12192
12653
13088
13009
13191
13114
13209
13233
13284
13379
13406
13608
13578
13731
13618
13956
13964
14363
14420
14922
14975
15452
15550
15804
15641
15652
15444
15176
14825
14299
13820
13289
13105
12624
12585
12192
12306
12114
12361
12199
12422
12217
12335
12348
12507
12387
12502
12586
12664
12736
12577
12668
12611
12769
12714
12960
12933
13170
13032
13238
12967
13079
12828
12849
12727
12846
12840
12856
12924
13189
13274
14490
16570
17731
17301
12464
10387
11469
12431
12747
13115
13023
13363
13242
13509
13398
13605
13486
13644
13673
13873
13857
13961
14121
14281
14583
14735
15147
15298
15747
15700
15909
15623
15729
15316
15065
14498
14123
13621
13248
12955
12696
12612
12432
12370
12231
12279
12021
12201
12018
12054
11723
11858
11735
11951
11833
11974
11988
12146
12167
12356
12524
12582
12727
12732
12932
12847
13032
12815
12912
12808
13043
13039
13259
13148
13412
13427
14488
16015
17956
18305
15279
11253
12169
12874
13269
13346
13363
13577
13548
13543
13249
13301
13144
13267
12951
12847
12783
12644
12663
12589
13070
12965
13295
13275
13884
13666
14264
13912
14192
13932
14005
13497
13296
12904
12561
12281
12139
12133
11852
12042
11749
12110
11770
12179
11905
12289
12195
12681
12731
13163
13032
13351
13157
13056
13135
13136
13209
12908
13077
12850
13124
12754
13008
12488
12642
12350
12642
12364
12828
12497
12990
12831
13265
13079
14020
15319
17540
18394
15310
12427
12719
13309
13306
13574
13408
13685
13467
13890
13647
14033
13741
14151
13947
14353
14330
14494
14565
14779
14941
15081
15407
15338
15899
15690
15967
15625
15757
15285
15279
14453
14183
13415
12930
12493
12439
12081
11998
12028
12000
11949
11734
11832
11550
11846
11654
12107
11977
12224
11910
12069
11886
12183
12132
12314
12224
12186
12255
12349
12319
12521
12533
12642
12789
12784
12948
12887
13015
12875
13038
12974
13220
13171
13564
13635
14070
14940
17172
19125
18795
14203
13007
13590
14086
14198
14009
13997
13757
13954
13999
14324
14321
14500
14523
14834
15116
15452
15449
15431
15642
15612
15547
15425
15451
15421
15689
15669
15364
15205
14657
14204
13679
13224
12835
12605
12778
12992
13052
12964
12861
12801
12646
12623
12697
12421
12787
12808
13077
12647
12634
12385
12180
11838
12033
11733
11892
11745
11958
12054
12232
12284
12306
12165
12138
12164
12255
12132
12235
12151
12126
11889
11843
11709
11740
11654
11658
11525
11654
11716
11987
12031
12523
13957
16621
17286
13533
10601
10939
11820
12042
12437
12348
12502
12621
12960
12887
12946
12926
13056
13083
13141
13304
13416
13488
13587
13872
14050
14483
14710
15079
15173
15409
15600
15323
14838
14407
13874
13594
13266
12847
12660
12586
12660
12572
12580
12568
12648
12578
12520
12397
12444
12330
12358
12207
12186
12089
12343
12404
12619
12600
12797
12754
12781
12679
12756
12867
12940
12968
12973
13053
12980
13031
12877
12953
12881
13089
13117
13468
13430
13696
13687
13925
13960
14074
14092
13977
14029
14087
14315
14381
14555
14696
15180
15698
17705
19470
19337
14976
14221
15023
16113
16708
17248
17521
17646
17794
17749
17925
17978
18237
18237
18413
18479
18786
18793
19224
19439
19636
19532
19611
19264
18885
18167
17648
16967
16473
15688
14737
13735
12846
11829
10924
10173
9415
9137
8686
8419
8049
8021
7840
8014
7773
7828
7883
8292
8365
8377
8240
8197
8253
8436
8790
9088
9372
9397
9671
9612
9852
9774
10016
9895
10025
9922
10191
10241
10543
10791
10971
11044
11053
11186
11134
11119
10937
11016
10900
11149
11066
11339
11354
11697
11941
13558
15695
16506
14993
10125
10280
11126
11953
12315
12670
12812
13111
13194
13490
13557
13746
13686
13870
13881
14202
14260
14551
14545
14914
15048
15452
15658
16051
16277
16495
16634
16672
16585
16207
15880
15239
14787
14122
13870
13435
13346
13020
13026
12799
12785
12601
12710
12704
12795
12820
12796
12793
12727
12792
12713
12881
12736
12860
12740
12872
12684
12720
12529
12673
12603
12724
12793
12934
12981
13008
13033
12954
12974
12758
12909
12730
12861
12752
12870
12777
13132
13004
14028
15958
17418
17659
12283
11897
12769
13269
13655
13667
13891
13986
14062
14197
14329
14508
14420
14540
14429
14590
14491
14807
14810
15111
15172
15538
15673
16041
16247
16473
16534
16535
16496
16184
15850
15178
14762
14118
13834
13301
13145
12750
12724
12556
12592
12413
12415
12292
12369
12300
12273
12367
12290
12386
12325
12571
12530
12702
12604
12725
12543
12650
12455
12591
12511
12487
12330
12382
12420
12559
12738
12729
12840
12727
12768
12559
12679
12488
12685
12623
12727
12567
12795
12738
12904
13354
14880
16712
17718
15648
11917
11926
12486
13001
13096
13142
13149
13218
13090
13181
13008
13152
12988
13106
12952
13095
12979
13238
13239
13426
13563
13855
14062
14330
14566
14621
14788
14600
14606
14128
13837
13203
12886
12370
12301
11994
11941
11746
11823
11788
11816
11865
11937
12069
12019
12182
12077
12257
12061
12196
12053
12274
12147
12345
12261
12421
12318
12533
12600
12774
12818
13022
12873
12793
12670
12738
12735
12802
12907
12981
13102
13055
13105
12810
12846
12594
12790
12639
12834
12806
13024
13031
13411
14212
16171
17923
17618
13343
11993
12581
12990
13230
13133
13358
13309
13506
13411
13612
13506
13700
13579
13792
13875
13979
14031
14148
14258
14403
14661
14752
15099
15159
15428
15344
15518
15326
15349
14830
14491
13963
13630
13191
12998
12764
12670
12698
12606
12636
12514
12582
12397
12551
12367
12541
12405
12530
12288
12340
12116
12287
12183
12359
12191
12364
12276
12447
12411
12523
12539
12600
12603
12557
12722
12759
13028
13019
13204
13073
13263
13106
13289
13053
13120
12991
13076
12967
13094
13099
13249
13382
14028
15645
17748
18380
14896
12397
12557
13320
13447
13716
13605
13753
13650
13722
13718
13818
13766
13788
13834
13850
13984
13955
14164
14146
14449
14509
14957
15051
15470
15501
15744
15616
15691
15478
15209
14705
14185
13445
13224
12838
12661
12424
12370
12357
12255
12307
12188
12277
12123
12284
12186
12354
12131
12264
12130
12233
12188
12369
12250
12296
12285
12377
12438
12422
12519
12430
12492
12376
12553
12361
12524
12345
12491
12361
12593
12655
12799
12758
12902
13085
13323
13402
13360
13401
13335
13488
13425
13695
13671
13972
14473
15812
17612
18796
16731
13125
13128
13817
14177
14281
14281
14252
14297
14100
14191
14050
14208
14051
14259
14158
14479
14553
14759
14660
14921
14935
15344
15438
15863
15982
16410
16580
16886
16825
16730
16300
15804
15276
14748
14457
13901
13717
13223
13112
12682
12761
12458
12468
12168
12182
12004
11982
11851
11870
11843
11753
11737
11556
11560
11332
11425
11335
11601
11447
11780
11647
11781
11630
11681
11519
11802
11993
12207
12245
12294
12387
12371
12580
12419
12530
12260
12476
12465
12848
12822
13138
13017
13902
14846
16710
17347
15167
11764
12569
13087
13529
13427
13622
13674
13552
13613
13587
13861
13899
14180
13995
14326
14090
14362
14161
14563
14549
14920
14953
15330
15571
15800
15920
15884
15881
15551
15411
14677
14314
13269
12928
12096
11864
11251
11242
10808
10958
10772
10926
10835
10873
10945
11023
11162
11072
11323
11051
11329
11044
11366
11025
11159
10861
11152
11010
11396
11387
11605
11624
11741
11760
11718
11775
11571
11783
11616
11947
11690
11970
11672
12209
13211
15623
16114
16110
11786
10329
11193
12293
12566
13043
12919
13166
13238
13334
13347
13340
13510
13534
13853
13809
14200
14156
14576
14509
15049
15083
15629
15694
16187
16254
16562
16533
16633
16521
16240
15781
15077
14707
14026
13850
13400
13504
13060
13108
12809
12969
12809
13114
13089
13303
13244
13343
13268
13216
13158
12973
12979
12614
12714
12371
12530
12243
12449
12156
12502
12317
12651
12684
12943
12928
13086
12998
13069
14674
14534
14593
14155
14369
14279
15184
16965
19043
18012
13569
12681
13225
13326
13209
13177
12986
13043
12816
12918
12673
12897
12631
12934
12732
12984
12867
13190
13127
13411
13465
13846
14103
14369
14610
14778
14928
14869
14938
14637
14481
13810
13611
12983
12903
12448
12542
12279
12444
12248
12301
12207
12239
12132
12140
12259
12150
12303
12162
12433
12316
12623
12404
12629
12396
12643
12461
12680
12592
12966
13062
13210
13265
13402
13282
13455
13294
13286
13188
13252
13363
13321
13406
13362
13704
14364
16526
18718
18957
13917
13148
13600
14357
14346
14562
14480
14512
14447
14417
14476
14330
14460
14312
14538
14285
14585
14425
14711
14544
14934
14904
15353
15481
15843
15911
16032
16067
16058
16011
15639
15451
14794
14547
13845
13713
13216
13304
12880
12965
12698
12847
12710
12800
12674
12713
12647
12605
12686
12580
12740
12584
12821
12579
12717
12434
12698
12448
12787
12722
13110
12965
13206
12974
13209
12889
12980
12706
12837
12698
12811
12874
12962
13111
13825
15420
17198
18227
14186
11582
11942
12869
12884
13163
12886
13048
12835
12974
12819
12891
12985
12996
13125
13071
13184
13042
13318
13224
13568
13447
13890
13899
14425
14343
14625
14527
14677
14368
14180
13754
13340
12973
12545
12428
12087
12089
11830
12036
11868
12086
11886
12159
12030
12263
12299
12364
12259
12344
12098
12174
11971
12281
12178
12299
12154
12379
12182
12409
12384
12576
12547
12768
12646
12691
12699
12613
12635
12481
12479
12339
12558
12476
12847
13164
14259
16110
17731
15795
11601
11626
12636
13104
13363
13427
13495
13432
13291
13353
13196
13360
13295
13506
13373
13631
13534
13820
13788
13981
14055
14379
14481
14831
15034
15120
15179
15094
15081
14742
14600
14099
13924
13381
13265
12814
12798
12489
12456
12296
12348
12280
12298
12366
12339
12442
12474
12499
12538
12484
12400
12435
12353
12411
12238
12255
12094
12288
12161
12527
12480
12809
12783
13042
12845
12909
12676
12678
12610
12691
12758
12674
12902
12970
13375
14198
16049
17194
16603
11645
11624
12361
13233
13242
13439
13466
13473
13442
13468
13498
13501
13705
13635
13829
13710
14012
13927
14266
14302
14629
14687
15144
15302
15730
15768
15924
15869
15795
15577
15231
14931
14398
14104
13576
13369
12874
12887
12639
12742
12497
12634
12413
12509
12268
12455
12209
12346
12129
12243
12062
12163
12095
12155
12162
12046
12070
11979
12194
12189
12500
12363
12689
12663
12818
12568
12685
12445
12621
12591
12692
12660
12731
12865
12960
13818
14776
16694
17410
14633
11468
12284
12860
13437
13280
13610
13488
13650
13507
13568
13562
13663
13747
13833
14016
14027
14203
14172
14367
14296
14605
14582
15022
15068
15397
15246
15561
15402
15378
15049
14674
14170
13658
13071
12956
12520
12594
12446
12365
12409
12275
12329
12226
12381
12295
12540
12421
12653
12509
12723
12647
12908
12783
12973
12815
12922
12970
12967
13175
13281
13405
13295
13479
13339
13481
13168
13268
12984
13117
12934
13086
12983
13243
13274
14123
15469
17421
17575
13169
11810
12380
13105
13144
13362
13214
13425
13194
13387
13247
13383
13261
13484
13405
13530
13593
13817
13969
13946
14193
14260
14591
14878
15121
15322
15344
15516
15417
15239
14977
14596
14021
13690
13262
13194
12746
12765
12381
12594
12212
12366
12300
12467
12259
12434
12230
12398
12321
12272
12402
12357
12410
12204
12389
12224
12460
12280
12643
12550
12928
12694
12964
12684
12731
12658
12801
12696
12627
12687
12680
12860
12899
14185
15767
17167
17070
13026
10904
12187
12687
13330
13174
13508
13383
13500
13472
13573
13615
13547
13738
13629
13882
13740
14093
13917
14329
14204
14640
14631
15218
15374
15809
15527
15741
15352
15340
14596
14277
13660
13347
12943
12798
12533
12313
12180
12009
12133
11845
12110
11847
12202
11994
12435
12250
12559
12271
12478
12368
12572
12439
12576
12562
12646
12797
12743
12989
12939
13184
12850
13024
12691
12934
12639
12891
12664
12874
12647
13075
13146
14374
16163
17143
17087
12340
11492
12173
13164
13223
13503
13254
13478
13145
13446
13219
13461
13310
13656
13638
13821
13873
14005
14227
14306
14699
15066
15288
15567
15792
15820
15934
15736
15850
15321
15125
14369
14253
13594
13506
12927
12960
12539
12621
12358
12470
12365
12386
12466
12356
12525
12408
12665
12419
12659
12385
12680
12443
12695
12317
12326
12026
12154
12074
12265
12314
12474
12550
12464
12587
12337
12374
12144
12325
12206
12494
12261
12521
12531
13081
13873
15778
17231
16626
11777
11759
12370
13155
13169
13407
13394
13549
13482
13502
13359
13290
13292
13292
13418
13463
13576
13690
13765
13905
14176
14361
14767
14803
15128
15032
15232
14962
15032
14535
14252
13627
13324
12925
12721
12495
12395
12296
12253
12380
12364
12493
12353
12477
12306
12543
12363
12576
12308
12498
12307
12460
12350
12438
12322
12316
12256
12232
12303
12304
12528
12464
12679
12438
12609
12378
12488
12180
12320
12140
12398
12379
12524
12545
12770
13330
14311
16398
17583
15535
11626
12037
12526
13101
12961
13211
13069
13292
13117
13380
13272
13484
13268
13498
13364
13518
13442
13613
13739
14060
14432
14710
15100
15271
15666
15619
15836
15628
15705
15109
14778
14112
13867
13364
13317
13149
13169
13096
13163
13235
13250
13436
13431
13550
13446
13753
13658
13780
13562
13854
13767
13933
13806
13933
13718
13816
13777
13789
13888
14023
14140
14058
14249
14114
14198
13940
13991
13675
13768
13489
13559
13305
13405
13272
14048
15497
16945
17263
13892
11117
12004
13178
13574
13555
13533
13561
13434
13534
13398
13569
13355
13524
13288
13481
13331
13614
13512
13808
13814
14218
14467
14871
15108
15239
15406
15401
15454
15081
14841
14142
13923
13295
13122
12578
12535
12151
12239
12002
12049
12016
12096
12100
12091
12184
12171
12351
12138
12326
12133
12374
12207
12487
12234
12458
12229
12440
12323
12438
12352
12334
12378
12402
12608
12580
12749
12554
12778
12539
12753
12507
12744
12516
12754
12692
13012
12872
13437
13494
14412
16085
17834
16869
12664
11943
12663
13107
13139
13263
13121
13164
12969
13167
12926
13144
13005
13303
13157
13510
13484
13814
13821
14142
14261
14590
14874
15054
15354
15436
15642
15552
15765
15412
15313
14622
14290
13625
13483
13007
12932
12602
12603
12470
12496
12422
12339
12388
12261
12394
12231
12340
12087
12353
12159
12495
12405
12656
12525
12746
12633
12828
12789
12866
12857
12778
12855
12784
13034
13065
13099
13151
13271
13218
13279
13117
13147
12946
13157
12956
13140
13004
13294
13427
14255
15995
17241
15695
11769
11777
12674
13309
13364
13548
13465
13640
13424
13646
13428
13680
13464
13737
13578
13838
13687
13852
13824
14103
14355
14605
14927
15134
15574
15589
15807
15642
15799
15383
15195
14517
14248
13484
13124
12530
12313
11886
11748
11793
11863
11993
12059
12281
12190
12581
12476
12730
12602
12739
12513
12742
12541
12723
12636
13014
12723
12839
12589
12762
12614
12839
12914
13112
13119
13134
13144
12980
13025
12783
12855
12615
12981
12851
13171
13067
13525
14162
15869
17389
17452
14586
11081
12006
12779
13391
13431
13539
13452
13626
13448
13711
13537
13731
13529
13824
13728
13919
13941
14117
14192
14495
14737
14994
15365
15546
15897
15835
16097
15955
16023
15702
15527
14754
14509
13941
13687
13237
13118
12866
12784
12599
12523
12095
13627
12328
12007
11963
12905
11892
12671
11888
12458
12079
12176
12130
11840
12201
11650
12390
11378
12537
11663
12970
11534
13195
11598
13143
11584
13165
11856
13121
12277
13211
12858
13410
14473
16177
17560
16500
12876
10418
12830
12021
14192
12463
14320
12572
14300
12749
14110
13098
13648
13373
13904
13434
13066
13706
11380
14204
13184
15379
12583
15435
13050
15683
14287
16083
14487
15724
13341
13740
12466
11726
12441
11295
12681
10985
12694
9733
12656
11082
12263
10088
12504
8709
12781
10731
13476
9627
13195
11192
13298
11741
13135
12485
12879
12477
12277
12556
10699
12549
11141
13870
11923
14314
10975
14145
11940
14207
11709
13739
11216
13529
12968
13340
13901
16028
17489
18742
18231
13286
13573
13590
15325
14204
15608
14206
15620
13913
15524
14043
15242
13944
14518
14840
14259
14425
14313
14535
14559
14850
14986
15449
15681
15918
16067
16001
16096
15816
15506
14774
14407
13604
12971
12512
12367
12164
12332
12014
12201
11928
12086
11758
11962
11690
11853
11693
11663
11654
11791
11905
11982
12032
11992
12155
12041
12265
12197
12304
12180
12483
12287
12559
12377
12571
12466
12730
12888
13041
13051
13030
13173
13086
13117
12888
12960
12644
12867
12730
12981
12946
13334
13519
14333
15415
16827
16409
12563
11663
12081
12960
12937
13311
13295
13492
13200
13432
13429
13589
13554
13578
13728
13763
14002
13846
14198
14343
14650
14806
15134
15217
15658
15559
15924
15579
15707
15158
15097
14298
14112
13479
13369
12938
12876
12626
12516
12470
12302
12428
12212
12466
12216
12527
12240
12555
12227
12545
12307
12681
12483
12682
12454
12533
12522
12511
12581
12672
12933
12745
12994
12757
12941
12584
12859
12494
12783
12507
12883
12732
13032
13041
13585
14110
15661
16933
15899
11890
11479
12607
12960
13374
13091
13435
13150
13523
13325
13665
13453
13737
13643
13950
13746
14166
14010
14394
14405
14743
14869
15143
15337
15502
15789
15750
15974
15651
15709
15025
14891
14096
13996
13367
13391
12938
13050
12740
12719
12562
12592
12508
12346
12406
12228
12444
12155
12422
12139
12479
12140
12485
12199
12500
12286
12530
12356
12506
12420
12503
12496
12410
12521
12443
12759
12636
13069
12782
13160
12907
13237
12874
13081
12746
12912
12778
12979
12909
13005
13111
13217
14022
14637
16402
16298
14029
11352
12478
13208
13637
13477
13804
13517
13902
13621
13963
13644
13962
13711
13975
13753
13982
13928
14015
14126
14214
14488
14580
15015
15015
15439
15222
15572
15187
15381
14775
14629
13874
13659
12979
12786
12458
12414
12278
12165
12231
12107
12279
12003
12277
12035
12380
12041
12371
12067
12461
12299
12576
12347
12524
12403
12438
12487
12451
12564
12496
12678
12428
12679
12316
12729
12481
12950
12780
13162
12907
13176
12954
13088
12884
13197
12925
13152
12897
13114
12998
13260
13542
14679
16475
16975
16306
11537
11398
12081
13214
13248
13638
13390
13750
13406
13710
13518
13792
13659
13815
13827
13928
14087
14089
14366
14347
14826
14764
15406
15348
15881
15721
16074
15758
16000
15638
15498
14965
14580
14080
13655
13369
12995
12998
12615
12681
12257
12453
12104
12417
12146
12495
12228
12520
12376
12636
12537
12627
12577
12517
12597
12448
12584
12398
12608
12350
12538
12604
12901
12786
13076
12858
13196
12889
13139
12732
13022
12705
12986
12720
12957
12847
13145
13222
14262
15976
17021
16830
12793
10782
11599
12810
13126
13598
13382
13794
13486
13811
13536
13749
13674
13847
13777
13840
13942
13890
14155
14077
14468
14420
14970
14898
15445
15327
15751
15440
15640
15205
15092
14450
14044
13421
13083
12818
12466
12427
12107
12279
11917
12222
11983
12349
12072
12407
12142
12483
12360
12618
12400
12552
13011
12722
12962
12633
12724
12576
12648
12524
12469
12560
12446
12707
12572
12875
12628
12957
12604
12859
12515
12889
12639
12950
12786
13092
13001
13277
13802
14999
16807
16873
15646
11118
11727
12326
13375
13309
13687
13506
13857
13554
13862
13665
13926
13810
13890
13945
13979
14161
14139
14422
14364
14816
14759
15328
15295
15897
15716
16126
15862
16058
15607
15403
14732
14263
13753
13318
13076
12636
12585
12203
12363
12013
12241
12246
12416
12239
12466
12162
12483
12149
12496
12193
12514
12223
12540
12283
12458
12338
12477
12418
12430
12472
12333
12501
12291
12612
12450
12903
12712
13131
12831
13128
12772
12980
12715
12968
12804
12950
12921
13024
13221
13788
14988
16600
17423
14768
11707
11789
12906
13089
13491
13249
13575
13351
13580
13393
13510
13525
13566
13666
13643
13806
13647
13954
13800
14211
14086
14664
14615
15206
15087
15530
15396
15671
15397
15300
14629
14478
13808
13630
13135
13014
12782
12662
12538
12395
12452
12228
12504
12209
12499
12173
12497
12163
12508
12173
12483
12249
12470
12287
12401
12341
12437
12487
12399
12590
12418
12644
12404
12710
12431
12823
12500
12871
12555
12882
12702
13095
13128
13354
13333
13354
13383
13327
13401
13091
13175
12847
13153
12833
13204
12898
13454
13728
14453
15888
16736
14663
11743
11966
12769
13245
13293
13497
13335
13589
13311
13636
13346
13628
13582
13852
13607
13913
13635
14087
13879
14374
14236
14782
14778
15351
15405
15772
15746
15813
15743
15401
15066
14347
14073
13351
13263
12685
12843
12434
12710
12343
12636
12288
12491
12274
12390
12313
12373
12345
12323
12498
12340
12631
12375
12688
12363
12724
12451
12804
12500
12821
12584
12813
12615
12765
12714
12758
12815
12753
12850
12650
12907
12691
13118
12920
13350
13041
13348
13046
13320
13038
13187
12960
13128
13067
13288
13226
13817
14221
14903
16370
16710
14429
11712
12290
12920
13510
13341
13680
13419
13671
13364
13663
13349
13574
13285
13541
13384
13621
13616
13782
13906
14044
14332
14444
14939
14965
15450
15323
15712
15475
15784
15325
15286
14565
14299
13615
13366
12891
12685
12473
12302
12314
12131
12296
12051
12357
12029
12368
12043
12356
12082
12361
12110
12408
12249
12447
12331
12412
12427
12337
12516
12289
12572
12249
12629
12236
12660
12374
12711
12281
12642
12329
12863
12650
13120
12857
13147
12946
13176
12880
12988
12780
12850
12902
12869
13089
13070
13687
14179
15411
16465
16760
13245
11749
12182
13433
13502
13811
13627
13855
13742
13730
13780
13707
13946
13763
14179
13901
14347
14014
14608
14295
14865
14605
15239
15200
15711
15709
15983
15964
16028
16054
15742
15577
14863
14676
13817
13842
13085
13280
12593
12894
12336
12656
12242
12483
12247
12422
12315
12323
12133
12447
12132
12312
12240
12298
12246
12118
12302
12070
12366
12095
12524
12064
12549
12132
12571
12149
12554
12166
12550
12372
12713
12797
12979
13099
13032
13288
13093
13372
12915
13240
12813
13304
12872
13384
12995
13568
13845
14892
16117
16559
14493
11231
11784
12717
13508
13422
13808
13495
13918
13558
14020
13617
14086
13676
14090
13780
14196
14045
14359
14349
14573
14855
14962
15402
15526
16063
15838
16339
15946
16371
15788
15809
15076
15060
14164
14173
13355
13476
12793
13029
12504
12720
12352
12515
12348
12375
12373
12285
12369
12143
12438
12078
12491
12106
12538
12081
12541
12134
12500
12130
12511
12279
12513
12377
12368
12367
12317
12497
12366
12841
12551
13049
12695
13126
12614
13032
12606
13017
12699
13048
12815
13033
13075
13561
14846
16586
16857
15061
10802
10786
12302
12726
13488
13115
13565
13124
13545
13199
13581
13318
13514
13406
13530
13652
13921
13851
14205
14281
14587
14805
15050
15476
15509
15956
15691
16055
15511
15813
15075
15042
14186
14212
13474
13483
12976
13013
12692
12654
12598
12494
12547
12319
12553
12196
12599
12221
12716
12274
12696
12267
12630
12246
12584
12291
12461
12306
12415
12440
12346
12405
12157
12421
12156
12661
12384
12976
12618
13139
12738
13133
12710
12983
12597
12825
12749
12921
12959
12943
13291
13875
15231
16370
16851
13648
11082
11441
12869
13150
13646
13315
13758
13319
13745
13274
13684
13343
13661
13393
13665
13531
13703
13784
13833
14033
14244
14664
14766
15228
15244
15707
15452
15709
15352
15404
14693
14458
13705
13533
13025
12921
12640
12534
12444
12325
12463
12310
12496
12191
12416
12068
12375
12061
12364
12111
12449
12270
12508
12373
12529
12456
12513
12553
12442
12523
12329
12504
12232
12496
12209
12582
12425
12853
12655
13002
12743
12920
12740
12839
12773
12867
12936
15861
17289
18456
18791
15574
12984
13176
14103
14111
14273
14006
14014
13790
13674
13599
13530
13634
13426
13607
13326
13590
13349
13750
13592
14039
13918
14436
14431
14849
14804
15013
14948
14951
14847
14541
14339
13781
13536
12868
12815
12378
12353
12101
12229
12085
12300
12104
12350
12145
12316
12205
12317
12277
12380
12379
12391
12473
12367
12478
12316
12509
12311
12514
12267
12502
12297
12469
12284
12460
12384
12572
12685
12853
12926
13227
13158
13252
13128
13111
13019
13037
13066
13040
13215
13202
13491
14124
15254
16636
16911
13835
11594
12154
13277
13593
13746
13635
13654
13602
13623
13705
13646
13845
13738
13971
13868
14197
14101
14417
14301
14679
14713
15166
15306
15669
15883
16088
16169
16032
16053
15632
15441
14609
14422
13615
13521
12887
12916
12444
12526
12245
12405
12238
12283
12301
12197
12337
12268
12534
12270
12529
12237
12579
12253
12541
12226
12634
12392
12703
12360
12684
12341
12620
12287
12537
12358
12561
12581
12822
12874
12875
12957
12793
12958
12660
12853
12571
12962
12733
13147
12881
13314
13557
14819
16234
17004
15447
11410
11657
12577
13336
13286
13591
13428
13764
13454
13785
13567
13983
13671
14073
13884
14251
14225
14462
14484
14663
14795
14980
15352
15458
15859
15766
16191
15927
16241
15721
15789
15160
15076
14314
14172
13742
13699
13307
13121
12970
12747
12713
12457
12361
12372
12311
12206
12370
12183
12430
12274
12602
12338
12656
12443
12378
12199
12385
12068
12359
12231
12450
12299
12567
12413
12580
12457
12442
12395
12537
12656
12757
12855
12746
12966
13194
14593
15976
16156
13742
9797
10216
11476
12148
12559
12399
12577
12558
12694
12769
12812
12970
12963
13108
13050
13430
13383
13849
13882
14240
14273
14939
15048
15544
15658
15948
15800
15919
15952
15655
15318
14839
14567
14273
14017
13502
13446
13254
13252
13009
13067
12832
12946
12737
12891
12690
12807
12551
12716
12625
12765
12684
12711
12778
12782
12797
12726
12737
12574
12772
12654
12846
12807
12990
12886
13171
13063
13215
13085
13218
13107
13201
13151
13139
13243
13304
13619
14221
15268
16518
16951
13868
11516
12193
13304
13584
13860
13771
13892
13771
13721
13631
13584
13611
13590
13837
13941
14204
14131
14494
14390
14733
14680
15048
15033
15233
15128
15201
15022
15276
14914
14786
14239
13932
13431
13155
12881
12674
12584
12427
12501
12398
12548
12459
12701
12503
12761
12619
12758
12565
12671
12565
12705
12685
12670
12638
12557
12536
12397
12465
12462
12706
12608
13001
13035
13312
13228
13506
13303
13386
13169
13182
13012
13003
13012
13050
13137
13186
13813
14396
16166
16730
15458
11420
11843
12598
13465
13456
13668
13637
13797
13728
13745
13812
13838
13987
13926
14008
13904
14067
13983
14221
14321
14685
14816
15181
15255
15562
15473
15693
15494
15537
15119
14845
14205
13856
13348
13027
12733
12524
12433
12285
12332
12128
12301
12142
12289
12121
12280
12008
12251
12113
12298
12170
12289
12159
12214
12198
12269
12300
12267
12447
12263
12466
12316
12626
12588
12899
12722
12958
12785
12853
12705
12721
12640
12671
12681
12687
12773
12720
13154
13550
14370
15794
16674
14734
11267
11243
12471
12922
13135
12912
13073
13066
13100
13104
13367
13285
13317
13163
13200
13205
13251
13424
13487
13852
13898
14346
14480
14938
14990
15329
15234
15313
15125
14974
14485
14102
13686
13330
13096
12915
12790
12650
12609
12342
12409
12314
12443
12232
12563
12552
12816
12655
12793
12793
12948
12914
12961
13027
12948
12908
12815
12908
12761
12922
12825
13055
13063
13410
13215
13295
13127
13229
13128
13204
13243
13327
13446
13494
13843
14310
15701
17262
17002
15252
11322
11570
13273
13937
14221
14101
14306
14075
14130
13770
13830
13669
13708
13514
13626
13564
13650
13712
13849
14014
14123
14436
14446
14936
15005
15272
15031
15209
14803
14628
14030
13617
13038
12814
12516
12356
12218
12302
12282
12067
12235
12139
12366
12160
12385
12159
12487
12217
12361
12282
12525
12489
12536
12540
12550
12597
12494
12609
12393
12466
12354
12568
12399
12902
12829
13234
13138
13281
13038
13109
12973
12867
12819
12841
13025
13305
13298
13626
14329
15258
16578
16346
13629
11073
11921
12744
13400
13166
13529
13290
13444
13301
13510
13416
13638
13535
13721
13700
13697
13797
13926
14230
14244
14583
14679
15119
15031
15506
15446
15717
15415
15461
14951
14698
14065
13750
13250
12919
12651
12387
12462
12205
12250
12037
12389
12149
12495
12336
12586
12303
12420
12401
12701
12592
12707
12746
12644
12675
12548
12745
12648
12851
12618
12859
12693
12931
12796
13074
13068
13337
13101
13408
13123
13326
12964
13095
12895
13080
12894
12914
12919
12928
13246
13965
14931
16023
15952
12825
10731
11391
12657
12796
13138
13074
13233
13046
13355
13198
13346
13361
13376
13484
13441
13709
13728
14012
13976
14318
14361
14837
14876
15537
15543
15698
15592
15738
15584
15327
14929
14537
14186
13773
13568
13239
13131
12828
12998
12802
13011
12702
12933
12620
12590
12452
12452
12382
12516
12549
12645
12714
12736
12800
12856
12720
12599
12419
12443
12599
12679
12968
12923
13173
13031
13149
12731
12752
12421
12599
12507
12759
12749
12909
12888
12966
13183
13984
15403
16670
16153
11829
11079
11941
12974
13102
13496
13429
13494
13495
13686
13342
13396
13446
13696
13847
13991
14113
14158
14440
14444
14659
14548
14824
14813
14984
14919
15282
15184
15433
15342
15323
14956
14588
14124
13673
13402
12968
12784
12389
12341
12019
12151
11879
12075
12005
12483
12447
12609
12387
12588
12488
12754
12624
12827
12667
12617
12558
12705
12629
12650
12838
12933
13153
13201
13335
13159
13234
12934
13086
12969
13035
12809
12971
12965
13332
13333
14268
16071
17623
17789
12885
11377
12076
12865
13050
13443
13366
13530
13440
13595
13452
13732
13877
13841
13918
14146
13939
14001
14268
14504
14805
15170
15770
15903
16473
16479
16551
16609
16904
16924
17187
17205
17575
17866
18480
19040
19897
20890
20748
20203
19898
19386
18771
18048
17344
17002
16284
15719
14893
14321
13459
13068
12296
11835
11130
10834
10198
10130
9701
9612
9492
9457
9319
9356
9357
9248
9214
9072
9150
8920
9017
8925
9146
9138
9412
9333
10503
12706
14930
14910
9994
8105
8616
9236
9555
9822
10010
10302
10293
10523
10595
10933
11047
11375
11491
11750
11887
12026
12189
12353
12639
12856
13311
13528
13877
13801
14129
14000
14114
13849
13665
13196
12843
12574
12367
12077
12227
12133
12286
12327
12469
12541
12592
12684
12674
12847
12808
12988
12861
13027
12884
13174
12989
13227
13164
13384
13341
13384
13325
13411
13481
13578
13694
13643
13874
13882
14153
14070
14209
13984
14094
13880
13990
13829
13923
13968
14160
14226
14826
16186
18352
19503
16542
13108
13024
13706
13821
13987
13831
14030
13862
14004
13769
13882
13850
14005
14021
14031
13988
14012
14143
14151
14372
14380
14707
14742
15113
15132
15442
15409
15526
15164
14978
14369
14088
13515
13366
12936
12796
12540
12422
12330
12280
12345
12189
12229
12143
12254
12132
12342
12195
12437
12360
12565
12456
12642
12475
12532
12480
12632
12536
12345
12447
12398
12510
12458
12697
12617
12922
12740
12909
12597
12724
12605
12803
12714
12837
12781
12868
13010
13078
14167
15986
18169
17970
13114
11672
12463
12930
13282
13167
13456
13241
13445
13348
13478
13420
13517
13524
13519
13481
13662
13689
13927
14059
14292
14702
14867
15161
15243
15514
15318
15470
15118
15017
14419
14174
13587
13365
12906
12790
12494
12474
12382
12298
12360
12257
12356
12270
12440
12186
12452
12359
12543
12339
12536
12514
12552
12218
12372
12345
12392
12438
12370
12404
12308
12467
12398
12649
12692
13047
13093
13296
13206
13368
13276
13521
13489
13606
13505
13594
13620
13517
13560
14518
17046
18552
18673
13042
11808
12340
13144
13202
13412
13370
13425
13149
13397
13283
13556
13516
13809
13743
13954
13961
14057
14304
14414
14564
14551
14822
14824
15101
14884
15008
14664
14704
14184
13939
13260
12953
12450
12255
12029
11837
11743
11705
11768
11647
11834
11763
12028
11825
11967
11715
11888
11656
11824
11558
11599
11406
11421
11322
11198
11103
11072
10964
10908
11120
11182
11523
11608
12029
12170
12489
12383
12647
12610
12706
12741
12881
12927
13083
13208
13290
13399
14139
16563
20043
20089
14758
13342
13634
14120
14220
14375
14349
14415
14109
14196
14119
14322
14275
14446
14391
14419
14328
14569
14651
14677
14889
15111
15392
15509
15798
15705
15942
15816
15873
15509
15379
14914
14775
14272
14127
13883
13884
13747
13786
13903
13917
14041
13999
14063
13928
14036
13780
13833
13669
13737
13505
13496
13290
13300
13233
13349
13246
13119
12875
12572
12339
12109
11986
11761
11878
11772
11796
11707
11868
11636
11693
11593
11810
11666
11775
11768
11925
11797
11825
12520
14726
17181
17785
13120
10596
10796
11384
11753
11833
12005
12051
12234
12157
12283
12237
12534
12450
12583
12623
12869
12871
13126
13257
13398
13575
13881
14157
14279
14599
14583
14700
14482
14386
13875
13599
13114
12870
12420
12307
12114
12079
12155
12163
12188
12227
12328
12307
12403
12293
12546
12400
12554
12384
12437
12315
12472
12356
12484
12444
12435
12480
12381
12451
12430
12611
12700
12840
12969
12934
12871
12878
12708
12871
12726
12957
12923
13082
13065
13346
14760
17614
19102
18240
12774
12481
13027
13427
13591
13585
13746
13700
13783
13623
13861
13814
13999
13925
14045
13952
14053
14020
14240
14394
14574
14871
15143
15449
15519
15742
15636
15670
15364
15216
14654
14246
13751
13535
13044
12864
12662
12563
12406
12273
12290
12203
12354
12244
12387
12324
12608
12454
12494
12397
12550
12480
12541
12474
12537
12435
12512
12336
12427
12367
12526
12589
12645
12736
12813
12862
12818
12884
12703
12809
12627
12815
12693
12842
12886
12918
13484
15384
17798
18973
15341
12153
12356
12899
13266
13196
13359
13252
13401
13303
13536
13442
13613
13527
13746
13694
13809
13822
13988
14103
14227
14514
14767
15068
15145
15371
15332
15504
15262
15197
14725
14507
13860
13633
13125
12930
12644
12573
12526
12468
12496
12468
12596
12538
12773
12695
12816
12662
12740
12637
12739
12668
12737
12581
12807
12734
12893
12734
12840
12732
12802
12766
12900
12988
13113
13195
13164
13133
12967
12945
12798
12946
12827
12972
12800
12987
12862
13300
14713
17346
18965
16780
12305
12224
12795
13102
13271
13334
13417
13173
13278
13145
13304
13217
13419
13285
13422
13356
13446
13481
13651
13851
14006
14293
14517
14920
15019
15195
15082
15216
14889
14829
14287
14030
13483
13233
12838
12661
12464
12462
12430
12649
12653
12737
12709
12783
12766
12795
12731
12550
12634
12557
12697
12660
12741
12623
12678
12501
12630
12427
12554
12511
12695
12687
12863
12927
12954
12980
12912
12894
12753
12958
12816
12930
12847
13098
13079
13351
13425
14752
17083
19097
17693
12547
12127
12766
13187
13212
13439
13385
13428
13275
13452
13287
13498
13387
13519
13418
13615
13636
13786
13906
14168
14403
14664
15047
15300
15659
15692
15787
15574
15541
15144
14912
14258
13975
13485
13286
12912
12992
12736
12755
12624
12736
12571
12592
12515
12543
12531
12491
12518
12466
12529
12448
12601
12453
12591
12424
12566
12410
12563
12433
12624
12536
12666
12648
12788
12903
12949
12999
12950
13077
12935
13057
13065
13288
13290
13513
13592
13826
14727
17107
19568
19896
14681
13363
13917
14426
14604
14666
14828
14741
14919
14818
14983
14878
15056
14905
15037
14885
15022
14994
15160
15236
15300
15469
15719
16080
16351
16348
16197
15971
15784
15379
14823
14393
13799
13387
12813
12682
12337
12204
11746
11477
11173
11387
11465
11732
11716
11750
11607
11501
11402
11247
11172
11013
10994
10828
10887
10680
10624
10376
10424
10135
10108
9919
9906
9784
9759
9723
9597
9611
9501
9606
9481
9522
9280
9252
9085
9138
10037
12376
13793
13797
8109
6776
7482
8009
8016
7696
7621
7323
6979
6632
6652
6392
6555
6332
6150
5672
5629
5683
5925
6127
6500
7146
7844
8226
8622
8741
8981
8938
8841
8553
8198
7819
7380
7173
6966
7080
7003
7233
7202
7566
7676
7995
8194
8431
8571
8663
8676
8570
8550
8479
8711
8788
9093
9156
9466
9560
10036
10263
10752
11079
11553
11962
12328
12486
12627
12802
12813
13063
13094
13390
13403
13847
13917
14664
16241
18463
18753
16946
12259
12873
13705
14322
14531
14677
14868
14918
15108
15160
15441
15377
15590
15440
15572
15410
15509
15350
15455
15472
15644
15785
16040
16011
15942
15570
15182
14623
14050
13344
12452
11778
11154
10825
10336
10245
9953
10061
9802
9951
9842
10096
10088
10346
10487
10686
10815
10969
11171
11231
11389
11277
11372
11145
11289
11195
11481
11413
11627
11463
11590
11391
11433
11410
11497
11546
11576
11663
11632
11766
11797
12069
12962
14882
16096
16907
12607
10714
11391
12253
12528
12858
12842
13057
13098
13142
13298
13386
13683
13707
14083
14159
14667
14671
15145
15435
16047
16312
16952
17129
17653
17647
17966
17810
18016
17675
17429
16891
16546
16207
15933
15858
15585
15559
15265
15412
15101
15329
15056
15304
15081
15231
14899
15072
14914
14988
14922
14871
14730
14519
14476
14263
14351
14214
14499
14314
14598
14548
14716
14426
14540
14351
14450
14287
14339
14328
14388
14456
14504
15495
17204
18764
18819
14229
12757
13452
13769
14096
13969
14266
14169
14334
14306
14378
14393
14436
14411
14318
14421
14633
14649
14759
14999
15151
15446
