12734
12761
13173
12659
12960
12561
12983
12614
12920
12592
12798
12599
12610
12548
12497
12696
12570
12858
12602
13044
12842
13414
14154
16269
17095
17450
13101
10966
11805
12884
13231
13424
13468
13401
13570
13368
13662
13381
13776
13416
13845
13510
13941
13658
14086
13820
14286
14171
14590
14670
14901
15039
15028
15211
14985
15206
14704
14752
13947
13937
13107
13175
12551
12705
12202
12406
12135
12258
12132
12215
12289
12203
12427
12217
12384
12504
12617
12552
12719
12470
12764
12464
12817
12356
12763
12422
12873
12569
13025
12841
13165
12989
13185
13086
13054
13007
12787
12930
12679
13037
12779
13205
12885
13438
13475
14781
16373
18176
16672
12320
11916
12772
13230
13316
13433
13312
13576
13344
13698
13396
13854
13477
13915
13621
14086
13794
14150
13923
14187
14158
14414
14559
14735
15042
15013
15323
14978
15261
14751
14825
14062
14028
13228
13202
12567
12642
12245
12497
12176
12603
12305
12661
12406
12592
12464
12693
12774
12776
12902
12714
12922
12647
12960
12591
13001
12485
12852
12421
12747
12589
13047
12904
13222
13181
13207
13228
13114
13174
12927
13214
12918
13286
12880
13294
13027
13508
13781
15458
17513
18343
14541
12172
12644
13286
13547
13465
13704
13452
13697
13325
13667
13345
13768
13385
13809
13523
13880
13598
13966
13884
14108
14227
14439
14702
14728
15082
14915
15294
14844
15074
14515
14359
13691
13518
12802
12933
12382
12644
12205
12604
12196
12545
12272
12519
12338
12401
12330
12348
12473
12302
12572
12344
12721
12377
12798
12434
12859
12519
12873
12533
12907
12734
13122
13170
13409
13496
13498
13625
13396
13559
13185
13517
13161
13534
13121
13574
13224
13678
13427
14361
15015
17356
18083
15592
12194
12500
13363
13495
13852
13549
13939
13499
13853
13420
13756
13321
13652
13333
13634
13467
13712
13713
13832
13902
14517
14513
14940
14996
15174
15256
15201
15288
14978
15065
14423
14395
13573
13566
12876
13066
12497
12742
12348
12608
12375
12477
12334
12288
12264
12104
12296
12016
12299
11996
12469
12130
12557
12204
12660
12353
12743
12346
12669
12484
12638
12702
12912
13096
13072
13325
13035
13292
12937
13277
12861
13206
12803
13215
12866
13225
13078
13416
14197
15751
17189
17465
13466
11178
12289
12739
13486
13154
13651
13311
13724
13320
13741
13452
13905
13508
13978
13615
14066
13741
14230
14121
14513
14560
14915
15097
15214
15454
15335
15600
15217
15444
14830
14933
14061
14096
13300
13384
12758
12895
12492
12595
12413
12460
12479
12371
12565
12352
12663
12324
12754
12400
12854
12418
12847
12339
12703
12455
12691
12527
12871
12925
13017
13182
13083
13224
12885
13095
12614
13021
12603
13045
12660
13113
12720
13183
13162
14726
16325
17008
16268
11504
10712
11669
12710
13182
13220
13390
13502
13366
13579
13296
13626
13286
13706
13319
13785
13418
13937
13721
14192
14077
14583
14677
15059
15203
15298
15423
15217
15366
14912
14950
14204
14190
13349
13360
12619
12822
12345
12605
12271
12479
12351
12445
12445
12413
12578
12374
12657
12407
12782
12353
12804
12362
12806
12370
12714
12389
12720
12506
12778
12749
12913
12981
12899
13034
12800
13058
12655
12979
12567
13018
12645
13073
12714
13198
13073
14166
15482
18129
16475
12329
11916
12899
13201
13502
13378
13490
13561
13503
13733
13528
13853
13600
14009
13651
14107
13745
14228
13889
14342
14159
14626
14659
15064
15219
15342
15426
15232
15365
14949
14952
14186
14088
13263
13276
12612
12776
12237
12479
12095
12262
12077
12202
12177
12154
12284
12186
12524
12286
12601
12210
12634
12244
12725
12344
12686
12267
12573
12361
12641
12552
12879
12998
13022
13211
13031
13269
12926
13208
12754
13121
12898
13187
12901
13249
13017
13469
13733
15398
17271
18154
14264
12070
12306
13225
13358
13513
13464
13414
13521
13292
13518
13201
13646
13367
13811
13415
13880
13566
14073
13815
14263
14225
14622
14707
14981
15082
15071
15262
15027
15179
14657
14681
13880
13803
12984
13104
12545
12782
12353
12546
12301
12457
12336
12411
12476
12334
12504
12277
12584
12197
12599
12249
12724
12361
12793
12448
12758
12425
12629
12499
12601
12656
12786
12811
13160
12996
13169
13079
13023
13041
12950
13158
12912
13316
12987
13423
13122
13873
14130
16250
17704
17302
12516
12085
12668
13361
13465
13471
13642
13494
13697
13376
13714
13355
13722
13330
13804
13459
13940
13715
14103
13962
14346
14401
14705
14888
14996
15261
15153
15426
15104
15352
14749
14783
13956
13916
13132
13138
12582
12710
12432
12609
12486
12527
12592
12482
12671
12419
12691
12360
12713
12265
12631
12255
12692
12348
12722
12300
12722
12318
12731
12413
12981
12724
13026
12849
13047
12867
12871
12860
12717
12900
12704
13038
12760
13178
12945
13573
14172
16114
17192
17490
12575
11625
12355
13318
13583
13606
13750
13691
13975
13698
13991
13647
14059
13713
14170
13798
14273
14027
14551
14410
14799
14822
15176
15348
15462
15710
15596
15813
15415
15635
15054
15157
14406
14467
13713
13784
13188
13350
12951
13051
12866
12986
12949
12836
12971
12798
13070
13006
13025
12978
13049
12809
12945
12555
12845
12545
13085
12734
13225
12838
13203
12785
13060
12675
12868
12686
12763
12789
12778
12922
12805
13247
13409
15150
16643
17341
15686
11205
10715
12060
12441
13171
13077
13345
13321
13439
13506
13536
13789
13613
13925
13660
14127
13846
14379
14144
14677
14428
14939
14785
15255
15211
15420
15342
15383
15358
15081
14891
14218
14028
13284
13330
12661
12890
12342
12638
12133
12429
12088
12334
12117
12614
12253
12620
12349
12699
12517
12688
12574
12588
12647
12578
12687
12456
12763
12399
12846
12547
13017
12671
13096
12692
13031
12656
12860
12650
12802
12775
12793
12934
12805
13143
13124
14180
15458
17746
16980
12736
11299
12399
12719
13280
13073
13363
13254
13342
13310
13345
13497
13364
13649
13442
13801
13471
13966
13685
14251
14049
14621
14505
15020
14966
15303
15210
15264
15234
15065
14933
14266
14014
13210
13178
12506
12548
12285
12471
12180
12506
12135
12502
12073
12453
12043
12392
12001
12247
11957
12135
12017
12128
12198
12117
12220
12057
12343
12122
12631
12436
12875
12487
12862
12437
12738
12328
12562
12338
12516
12456
12530
12632
12583
12862
13244
14366
16278
17930
15302
11941
11754
12811
12776
13220
12982
13275
13057
13185
13170
13246
13381
13246
13469
13240
13625
13360
13897
13724
14309
14114
14693
14575
15071
14934
15214
15077
15213
15155
15025
14482
14415
13779
13527
13193
12954
12854
12609
12730
12427
12746
12408
12807
12380
12795
12430
12859
12503
12815
12567
12877
12726
12827
12819
12792
12903
12695
13017
12787
13214
12965
13397
13094
13527
13217
13571
13190
13391
13052
13238
13127
13225
13289
13234
13519
13384
14451
15353
17739
18117
14961
11798
12809
13058
13696
13386
13709
13475
13640
13538
13583
13637
13575
13841
13636
13957
13692
14159
13854
14374
14115
14663
14503
15230
15073
15603
15259
15662
15229
15511
14971
14906
14270
14030
13540
13268
13091
12768
12789
12409
12653
12299
12714
12317
12737
12288
12746
12392
12739
12435
12594
12321
12459
12292
12377
12520
12494
12742
12569
12911
12479
12756
12257
12622
12232
12659
12335
12732
12518
12820
12797
13240
14460
16216
16980
16254
11739
10500
11952
12352
13231
12947
13524
13251
13717
13394
13744
13542
13795
13681
13848
13972
13993
14233
14166
14612
14844
15119
15389
15793
15823
16073
15760
16020
15448
15673
14928
14911
14033
14023
13332
13453
13005
13091
12832
12835
12760
12664
12832
12636
12970
12629
13018
12650
13058
12585
12976
12529
12839
12489
12779
12464
12693
12650
12810
12913
12733
12854
12547
12766
12345
12702
12325
12844
12489
13038
12769
13294
13102
14472
15802
17137
16936
12610
10810
11724
12714
12901
13393
13139
13565
13173
13585
13146
13590
13237
13637
13339
13612
13406
13981
13708
14227
14085
14575
14549
14923
14940
14997
15085
14948
15104
14627
14638
13914
13878
13058
13166
12491
12742
12263
12561
12211
12465
12320
12488
12433
12417
12560
12427
12611
12295
12702
12416
12804
12401
12816
12441
12858
12448
12868
12767
13110
13030
13135
13084
13039
13156
12869
12998
12714
13113
12777
13195
12786
13317
13050
13996
14492
16815
17904
15752
11686
12008
12674
12980
13199
13029
13366
13064
13417
13079
13455
13345
13713
13455
13833
13469
13913
13578
14094
13829
14358
14251
14796
14736
15026
14948
14973
14883
14692
14593
13986
13839
13114
13156
12545
12834
12385
12711
12278
12609
12364
12657
12440
12559
12464
12497
12660
12601
12782
12549
12887
12585
12989
12581
12930
12494
12861
12551
13095
12967
13259
13152
13336
13286
13247
13225
12967
13101
12790
13042
12670
13086
12788
13295
13388
14502
16295
18386
16836
12796
12433
13185
13531
13748
13521
13786
13609
13721
13678
13681
13784
13638
13882
13695
14054
13729
14210
13838
14333
14089
14681
14563
15049
14900
15158
15007
15113
15061
14771
14480
13822
13611
12942
12969
12372
12594
12071
12357
11942
12307
11997
12365
12189
12387
12284
12346
12415
12276
12445
12271
12590
12288
12639
12248
12673
12300
12735
12381
12766
12577
12933
12911
13244
13249
13296
13354
13234
13422
13116
13346
12910
13248
12875
13286
12920
13364
13224
14009
14241
16385
17862
17698
13105
12587
12960
13719
13616
13754
13695
13699
13719
13566
13783
13570
13877
13598
14043
13691
14156
13885
14402
14140
14619
14581
15083
15104
15377
15445
15487
15585
15408
15519
14937
14873
14029
13895
13115
13197
12546
12741
12295
12509
12208
12404
12250
12315
12359
12309
12417
12214
12473
12148
12480
12182
12633
12308
12698
12359
12730
12401
12651
12434
12619
12473
12459
12556
12507
12787
12699
13043
12969
13055
13046
13142
12889
13064
12754
13077
12659
13118
12711
13122
12842
13704
14292
16344
17418
16339
11810
11922
12789
13286
13589
13421
13710
13375
13774
13384
13858
13470
13894
13525
13864
13614
13880
13719
13940
13963
14200
14469
14520
14940
14881
15357
15075
15489
15030
15320
14662
14670
13897
13859
13205
13165
12782
12764
12626
12488
12531
12373
12589
12290
12742
12399
12782
12343
12769
12410
12891
12556
12903
12644
12947
12730
13121
12742
13114
12837
13099
13053
13306
13328
13334
13468
13299
13468
13072
13365
12987
13436
13034
13452
13082
13536
13282
14536
15784
17561
17420
14303
10658
11625
12692
13137
13662
13424
13858
13534
14010
13621
14043
13702
14108
13765
14109
13870
14100
14061
14188
14337
14381
14729
14709
15200
14990
15382
14958
15276
14755
14885
14154
14075
13310
13218
12703
12661
12419
12336
12353
12214
12431
12256
12593
12278
12725
12379
12770
12601
12883
12579
13000
12682
13074
12717
13129
12726
13053
12743
13020
12814
12961
12843
12766
12842
12683
13024
12892
13242
12949
13305
12895
13254
12814
13133
12721
13022
12698
12933
12830
13097
13141
13693
14715
16503
17776
15678
11829
11563
12706
12810
13328
13009
13415
13053
13343
13092
13325
13245
13420
13471
13482
13692
13659
14056
13886
14367
14213
14788
14597
15232
15051
15522
15253
15556
15274
15274
14840
14440
14028
13681
13193
13159
12827
12744
12564
12417
12489
12296
12573
12308
12653
12311
12762
12418
12796
12412
12821
12503
12796
12622
12826
12729
12831
12874
12830
12990
12732
12908
12596
12964
12746
13295
12969
13348
12956
13332
12991
13179
12858
12945
12856
12863
12937
12818
13012
12917
13468
13781
15760
17389
17262
12708
11858
12191
13126
13056
13378
13248
13425
13327
13306
13357
13193
13458
13233
13629
13401
13855
13528
14040
13806
14343
14314
14940
14868
15492
15215
15581
15185
15462
15022
14980
14369
14069
13600
13301
13163
12795
12877
12588
12877
12530
12884
12447
12796
12415
12744
12375
12690
12450
12677
12599
12731
12753
12723
12820
12685
12936
12620
12943
12592
12900
12443
12844
12497
13028
12910
13250
13014
13238
13206
13305
13293
13147
13236
13054
13335
13014
13378
13067
13607
13455
14636
15810
17922
17230
13101
11845
12815
13384
13623
13722
13658
13820
13650
13834
14034
14085
14084
14262
14085
14397
14184
14582
14287
14827
14564
15129
14957
15551
15406
15756
15518
15661
15449
15333
15074
14573
14266
13621
13550
12944
12992
12396
12680
12176
12423
11991
12402
12123
12377
12181
12440
12368
12427
12553
12421
12582
12298
12554
12196
12602
12123
12535
12170
12649
12439
13009
12805
13108
12916
13115
12997
12893
12892
12780
12983
12678
13021
12744
13182
12890
13431
14245
16425
16887
16742
11773
11276
11915
13037
12990
13455
13210
13504
13378
13538
13527
13583
13701
13600
13807
13528
13930
13700
14236
13993
14560
14359
14981
14827
15278
15058
15279
15075
15116
14857
14521
14230
13674
13488
12798
12863
12325
12593
12070
12419
11995
12384
12006
12353
12074
12307
12204
12382
12451
12502
12713
12603
12870
12580
12898
12471
12892
12500
12923
12490
12956
12739
13157
12995
13202
13027
13051
12995
12860
13008
12751
13079
12781
13193
12863
13332
14070
15681
16980
17606
14385
10891
11218
12446
12683
13304
13031
13457
13273
13461
13330
13494
13548
13524
13710
13573
13878
13651
14068
13833
14401
14221
14880
14718
15313
15164
15554
15352
15518
15301
15191
14846
14274
13968
13324
13267
12676
12899
12436
12776
12274
12664
12273
12661
12344
12629
12428
12668
12590
12657
12691
12576
12774
12531
12725
12305
12677
12257
12750
12339
12895
12749
13254
13024
13324
13092
13192
13112
13158
12845
13186
12954
13194
13091
13152
13261
13852
15155
16659
17765
15224
11261
11319
12548
12668
13240
12889
13323
13089
13418
13265
13387
13234
13215
13288
13207
13484
13298
13828
13677
14275
14046
14695
14536
15151
14951
15449
15206
15445
15168
15115
14755
14383
14062
13511
13394
12912
13072
12554
12903
12385
12825
12481
12920
12610
13004
12737
12970
12817
12857
12775
12696
12786
12524
12833
12614
12996
12765
13333
12987
13411
13028
13332
12916
13202
12656
13001
12544
12964
12592
12977
12744
13117
13224
14334
16045
17312
17183
12289
11478
11954
12922
12845
13302
12966
13404
13029
13495
13152
13529
13242
13502
13343
13493
13585
13598
13865
13862
14358
14266
14818
14687
15245
14959
15507
15111
15437
14905
14888
14250
14007
13460
13230
13020
12744
12682
12374
12571
12169
12486
12128
12602
12182
12656
12314
12770
12514
12847
12641
12838
12639
12759
12856
12788
12821
13167
13041
13135
13089
12938
12996
12744
12944
12626
12991
12648
13097
12760
13297
13011
13893
14445
16613
17765
16756
11942
11936
12604
13026
13379
13224
13575
13285
13733
13371
13848
13498
13885
13472
13903
13632
14002
13826
14149
14243
14468
14699
14849
15256
15212
15624
15326
15691
15210
15468
14641
14556
13776
13712
13006
13003
12589
12596
12383
12343
12361
12159
12287
12066
12359
12015
12476
12098
12631
12277
12673
12333
12729
12466
12988
12660
13120
12798
13141
12735
12997
12730
12831
12634
12595
12690
12614
12819
12551
12994
12938
14210
15601
17754
16983
12811
11421
12404
12624
12990
12758
12956
12896
12931
13089
13032
13280
13117
13509
13211
13634
13321
13802
13549
14105
13933
14450
14386
14871
14850
15094
15091
15110
15146
14818
14733
14041
13999
13235
13301
12683
12868
12372
12782
12346
12715
12505
12780
12596
12736
12706
12732
12914
12763
13005
12905
12841
12787
12876
12805
13109
12943
13372
12994
13363
12839
13241
12767
13133
12675
13022
12762
13098
12923
13159
13689
14642
16618
17650
16447
11728
12128
12385
13281
12996
13438
13079
13510
13181
13525
13283
13613
13473
13649
13614
13565
13792
13771
14108
14003
14566
14390
15061
14859
15528
15190
15617
15195
15496
15042
14991
14421
14142
13720
13448
13320
12918
13019
12631
12970
12525
12938
12499
12826
12400
12783
12438
12809
12396
12872
12453
12822
12581
13050
12898
13200
13100
13270
13159
13109
13199
12913
13093
12754
13134
12761
13223
12911
13463
13761
15171
16486
17364
15444
11709
11906
12702
13148
13172
13226
13122
13393
13125
13530
13201
13643
13182
13639
13274
13734
13490
13837
13649
14043
14079
14410
14726
14904
15169
15035
15368
15066
15333
14636
14656
13733
13675
12908
13027
12507
12657
12363
12492
12348
12430
12475
12330
12416
12244
12599
12246
12657
12364
12509
12363
12650
12280
12746
12573
13126
12759
13183
12764
13063
12677
12983
12663
12883
12816
12891
12935
12974
13270
13466
14501
15861
17731
16796
12842
11894
13039
13124
13588
13234
13577
13421
13596
13478
13521
13532
13404
13558
13378
13690
13435
13930
13631
14193
14017
14747
14627
15195
15058
15389
15197
15370
15183
14979
14661
14104
13804
13170
13160
12600
12839
12337
12654
12204
12582
12196
12563
12276
12514
12311
12416
12174
12618
12353
12676
12430
12595
12517
12551
12586
12613
12960
12800
13149
12850
13196
12735
13097
12586
12897
12505
12877
12618
12901
12736
12933
13417
14382
16602
17634
15544
11607
12236
12538
13284
12974
13454
13132
13537
13174
13551
13247
13506
13296
13502
13514
13518
13627
13489
13789
13633
14052
13868
14518
14319
14826
14455
14901
14584
14886
14293
14131
13581
13344
13017
12830
12778
12517
12686
12394
12717
12435
12875
12542
12911
12753
13016
12612
12958
12546
12934
12549
12912
12628
12991
12723
12922
12687
12807
12718
12739
12867
12790
13047
12869
13215
12941
13340
13025
13482
13121
13528
13252
13620
13341
13544
13262
13399
13335
13459
13561
13399
13625
13317
13599
13145
13439
13065
13401
12971
13301
13028
13425
13366
13859
14132
15065
17415
17849
15351
12504
12965
13159
13639
13351
13744
13317
13726
13408
13748
13440
13796
13609
13872
13792
13920
13969
14188
14084
14484
14458
14754
14968
15192
15429
15409
15650
15411
15636
15055
15028
14242
14149
13395
13455
12880
13038
12682
12834
12616
12695
12676
12619
12709
12543
12740
12476
12752
12434
12773
12398
12802
12515
12889
12588
12892
12662
12849
12684
12801
12802
12770
12896
12758
13024
12826
13196
12827
13205
12872
13296
12951
13287
12953
13266
13025
13268
13135
13175
13160
13044
13095
12901
13195
13044
13528
13178
13601
13241
13654
13292
13612
13213
13449
13036
13458
13080
13536
13292
14250
14671
16635
17275
15352
11984
12182
12987
13208
13500
13208
13605
13210
13572
13155
13583
13235
13599
13289
13613
13406
13711
13656
13805
13917
14049
14385
14396
14928
14772
15214
14878
15268
14783
15024
14419
14425
13721
13653
13087
13002
12744
12752
12714
12571
12669
12451
12738
12411
12741
12336
12741
12421
12853
12473
12844
12527
12878
12691
12878
12780
12830
12895
12802
12787
13125
13065
13217
13192
13153
13313
13078
13303
12972
13360
12996
13347
12897
13235
12829
13176
12919
13326
13297
13609
13520
13564
13519
13467
13550
13271
13412
13040
13373
13034
13409
13096
13676
13948
15270
16423
17134
15640
11345
11361
12301
13067
13333
13533
13451
13791
13467
13795
13494
13981
13639
14117
13834
14262
14067
14473
14317
14576
14572
14826
15124
15258
15596
15502
15810
15442
15722
15165
15353
14578
14486
13675
13530
12915
13083
12457
12678
12141
12425
12027
12371
12173
12389
12289
12424
12505
12524
12703
12488
12711
12382
12691
12281
12615
12187
12589
12231
12593
12292
12587
12341
12551
12451
12583
12864
12981
13248
13086
13372
13093
13452
13016
13304
12844
13209
12837
13224
12971
13385
13243
14364
15665
17001
16972
13237
10966
11710
12781
12998
13463
13143
13589
13248
13670
13388
13796
13547
13901
13743
13964
13909
14010
14162
14148
14493
14455
14817
15096
15304
15333
15525
15256
15492
15098
15200
14429
14352
13494
13492
12800
12933
12474
12701
12414
12516
12400
12434
12446
12380
12589
12420
12773
12462
12788
12403
12791
12351
12689
12347
12735
12403
12661
12436
12638
12601
12677
12762
12640
12770
12494
12765
12541
12939
12728
13274
12974
13405
13020
13345
13036
13199
12943
13046
12994
12979
13062
12988
13236
13107
14128
14721
16869
17207
15222
11294
12054
12383
13181
13020
13500
13233
13642
13272
13599
13287
13610
13434
13641
13624
13756
13900
13875
14146
14000
14416
14370
14977
14806
15346
15081
15495
15166
15408
14860
14774
14131
13882
13394
13073
12917
12666
12786
12463
12712
12377
12691
12307
12678
12301
12693
12391
12735
12476
12745
12607
12799
12814
12859
12922
12814
13000
12703
12962
12603
12991
12621
12989
12630
13032
12682
13060
12797
13049
12897
13067
13021
12939
12988
12910
13226
13092
13414
13344
13454
13392
13560
13335
13581
13093
13409
13009
13400
13037
13512
13289
14294
14767
16876
17003
14447
11556
12028
12817
13089
13376
13207
13565
13295
13677
13331
13806
13485
13846
13526
13852
13616
13943
13825
14100
14218
14406
14662
14777
15211
15189
15608
15317
15664
15225
15477
14830
14793
13987
13888
13237
13215
12863
12845
12629
12578
12628
12425
12625
12377
12718
12369
12701
12309
12721
12400
12764
12417
12770
12523
12711
12513
13007
12736
13109
12865
13126
12911
13087
12954
12947
13007
12858
13022
12774
13131
12815
13232
12909
13373
12958
13309
13032
13423
13343
13692
13540
13678
13608
13639
13696
13503
13635
13317
13603
13274
13697
13344
13941
14079
14949
16111
17617
16462
12786
12086
12929
13475
13623
13743
13670
13850
13579
13874
13600
14023
13647
14064
13716
14171
13930
14338
14177
14495
14441
14719
14841
15077
15348
15291
15558
15298
15505
15058
14952
14543
14286
13546
13447
12770
12874
12382
12667
12181
12511
12171
12517
12250
12526
12349
12475
12410
12439
12492
12381
12598
12424
12753
12442
12770
12362
12776
12409
12746
12415
12719
12418
12626
12458
12533
12459
12454
12520
12363
12562
12325
12602
12231
12657
12389
13002
12809
13283
12976
13321
13021
13253
13073
13127
13083
13103
13231
13184
13461
13347
14236
14772
16703
16912
15838
11289
11797
12412
13436
13434
13772
13716
14044
13708
14053
13872
14219
14082
14249
14216
14342
14525
14524
14838
14761
15232
15085
15640
15440
16041
15727
16146
15802
16039
15608
15581
15084
14776
14256
13880
13650
13226
13199
12726
12870
12426
12734
12278
12579
12184
12607
12300
12571
12289
12465
12257
12388
12364
12336
12456
12369
12644
12462
12769
12451
12828
12482
12981
12868
13732
13977
15005
15632
16968
17850
19570
20931
22098
23575
25118
26115
26171
26195
26216
26225
26242
26247
26250
26256
26244
26223
26190
26173
26125
26019
24042
22058
19979
18269
15897
13836
11545
9491
7829
6343
5468
4395
4061
3300
3352
2798
3071
2733
3185
2972
3367
3111
3304
3164
3192
3037
2798
2727
2393
2538
2288
2757
2607
3232
3144
3811
3752
4443
4433
5036
5147
5618
5783
6188
6534
6718
7087
7143
7613
7503
8059
7874
8518
8350
9009
8983
9645
9595
10144
10096
10411
10480
10638
10845
10923
11230
11204
11693
11587
12259
12263
14532
16351
17317
15542
11437
11574
12859
13109
13825
13651
14207
14051
14472
14443
14786
14801
14980
15171
15274
15639
15687
16193
16101
16699
16697
17475
17480
18276
18291
18917
18835
19256
19177
19320
19030
18772
18428
17886
17612
16979
16799
16074
16019
15221
15183
14422
14400
13638
13567
12899
12848
12400
12398
12167
12022
11972
11716
11793
11453
11603
11361
11749
11482
11978
11760
12282
12057
12457
12196
12459
12286
12421
12401
12676
12526
12848
12676
13005
13260
14476
16359
17370
17138
12381
12284
12690
13547
13343
13678
13364
13809
13441
13774
13569
13854
13672
13875
13921
14105
14251
14302
14704
14764
15310
15315
16041
16025
16738
16587
17124
16947
17367
17033
17125
16579
16359
15859
15471
15125
14651
14389
13740
13672
12996
12989
12350
12559
11988
12188
11754
12024
11751
12013
11803
11941
11903
11856
11876
11673
11806
11548
11816
11576
12042
11806
12310
12143
12426
12085
12441
12036
12414
12052
12436
12126
12498
12327
12790
12777
13940
15605
17057
17275
12838
11843
12319
13101
13050
13423
13071
13474
13124
13498
13225
13595
13376
13733
13564
13739
13800
13942
14145
14172
14552
14594
15150
15138
15767
15585
16129
15880
16315
15930
16063
15471
15304
14762
14510
14101
13805
13562
13226
13153
12708
12801
12390
12651
12254
12598
12190
12529
12178
12531
12272
12509
12334
12512
12453
12431
12345
12700
12511
12650
12568
12615
12672
12641
12979
12896
13237
12935
13271
12931
13272
12801
13202
12854
13154
12836
13087
12920
13165
13242
14187
15887
17307
17825
13499
12376
12734
13573
13409
13707
13375
13771
13399
13679
13328
13585
13400
13544
13507
13555
13700
13617
13855
13768
14274
14217
14865
14813
15500
15373
15865
15612
15934
15548
15515
14998
14714
14247
13850
13598
13156
13159
12732
12818
12365
12628
12210
12526
12128
12486
12225
12542
12186
12539
12137
12501
12088
12408
12160
12409
12193
12346
12291
12363
12433
12375
12606
12366
12613
12210
12605
12277
12752
12534
12964
12659
13003
12726
13012
12765
12803
12662
12709
12841
12748
13036
12811
13254
13252
14483
15709
17632
17230
13609
12425
13403
13627
14070
13925
14053
14085
14073
14149
14039
14270
14005
14284
13944
14327
13990
14429
14146
14661
14487
15089
15044
15548
15649
15916
15954
15969
16007
15729
15362
15181
14651
14141
13739
13244
13086
12566
12573
12067
12303
11822
12087
11634
12002
11663
11992
11718
12053
11908
12061
12056
12079
12181
12036
12278
12099
12420
12158
12547
12176
12569
12202
12622
12337
12629
12367
12592
12392
12485
12414
12511
12699
12718
13054
12862
13186
12809
13200
12821
13175
12736
12972
12591
12913
12698
13006
12976
13284
13645
14323
15980
17251
17260
12974
12634
12917
13788
13626
14076
13787
14235
13919
14442
14183
14648
14314
14748
14429
14800
14547
14822
14661
14950
15103
15260
15532
15666
16122
16069
16488
16233
16617
16112
16222
15434
15326
14421
14265
13517
13397
12937
12798
12547
12368
12306
12075
12223
11923
12195
11847
12242
11824
12204
11824
12253
11898
12180
11915
12193
12050
12156
12107
12108
12229
12016
12293
12161
12544
12294
12683
12311
12726
12394
12814
12460
12754
12536
12894
12878
13057
13115
13171
13295
13231
13491
13438
13329
13341
13428
13322
13557
13395
13822
13794
14870
16051
18284
18049
14621
12943
13762
13977
14329
14123
14250
14142
14143
14193
14029
14184
13873
14084
13711
14025
13657
14022
13699
14136
13929
14421
14398
14872
14927
15273
15403
15486
15567
15344
15295
14641
14405
13636
13516
12696
12727
12104
12263
11823
12056
11676
11864
11690
11810
11766
11774
11969
11899
12196
12006
12306
12010
12458
12137
12526
12168
12480
12154
12396
12122
12619
12334
12716
12421
12860
12626
12844
12674
12822
12851
12987
13116
13027
13233
12986
13328
13113
13514
13239
13621
13300
13613
13286
13575
13239
13364
13084
13097
13024
13012
13089
12936
13241
13206
14159
15174
17632
17610
14678
12286
13099
13330
13733
13432
13636
13444
13494
13446
13446
13508
13336
13505
13248
13511
13236
13672
13465
13967
13812
14355
14290
14893
14938
15405
15389
15625
15596
15491
15382
14957
14791
14095
13598
13291
13073
12749
12789
12402
12571
12175
12441
12039
12444
12084
12486
12141
12497
12254
12517
12405
12531
12541
12572
12616
12476
12669
12391
12700
12403
12784
12402
12785
12404
12703
12354
12658
12389
12630
12527
12706
12741
12719
12845
12648
12893
12713
13133
13003
13497
13185
13601
13262
13653
13217
13462
13097
13253
13155
13341
13377
13411
13750
14000
15442
16814
17405
16486
12681
11845
13192
13531
14228
13905
14318
14189
14620
14265
14694
14436
14869
14618
14913
14832
15065
15085
15179
15372
15457
15882
15896
16499
16374
16952
16681
17111
16670
16900
16300
16196
15426
15125
14451
14109
13651
13221
12956
12514
12482
12025
12156
11688
11972
11477
11852
11487
11881
11567
11877
11625
11887
11719
11819
11728
11643
11729
11565
11799
11483
11790
11382
11788
11439
11831
11558
12188
12006
12437
12234
12475
12307
12413
12343
12333
12535
12407
12730
12504
12864
12958
13312
14489
16623
16689
16576
11928
11562
12153
13285
13309
13830
13547
13917
13684
14010
13874
14003
13959
13981
14058
13932
14240
14080
14553
14356
14875
14752
15431
15427
16098
16023
16487
16274
16498
16226
16104
15655
15105
14710
14044
13856
13220
13231
12611
12745
12136
12415
11923
12240
11919
12190
11911
12109
12031
12111
12094
12085
12211
12049
12307
11992
12326
11971
12402
12006
12398
11992
12336
12089
12446
12269
12615
12643
13110
12885
13200
12861
12979
12800
12772
12734
12662
12758
12570
12864
12792
13406
14066
16132
16719
16697
11949
11776
12252
13133
13251
13558
13488
13632
13630
13585
13748
13571
13795
13516
13864
13538
13961
13656
14132
13901
14424
14295
14851
14933
15362
15479
15701
15766
15735
15862
15422
15248
14523
14340
13515
13542
12808
12893
12308
12484
12011
12207
11918
12067
11966
12038
12060
12030
12245
12110
12444
12219
12563
12252
12691
12443
12686
12427
12748
12374
12755
12425
12717
12271
12631
12295
12681
12583
12957
12976
13083
13079
13017
13113
12916
13096
12770
13072
12744
13188
12846
13309
13027
14182
15338
17507
17676
14351
11952
12572
13130
13378
13528
13385
13606
13316
13655
13300
13686
13297
13771
13434
13797
13555
13949
13850
14157
14241
14572
14877
15086
15601
15665
16115
15897
16279
15874
16061
15314
15259
14431
14298
13538
13428
12900
12844
12591
12511
12181
12451
12212
12387
12278
12318
12276
12212
12341
12165
12395
12122
12483
12121
12463
12073
12462
12064
12417
12181
12515
12334
12525
12435
12510
12517
12393
12527
12365
12772
12657
13069
12771
13190
12887
13286
12928
13223
12891
13148
12938
13173
13138
13277
13426
13479
14281
15088
17338
18055
16650
12545
13091
13287
14080
13792
14082
13770
14030
13754
13870
13849
13942
13947
13792
13940
13716
14008
13792
14220
13988
14550
14436
15370
15975
15820
16243
15920
16205
15655
15584
14777
14605
13846
13642
13114
12909
12648
12431
12386
12111
12234
11933
12188
11800
12153
11778
12166
11855
12227
11917
12227
11994
12233
12127
12281
12217
12206
12323
12193
12464
12218
12505
12159
12564
12271
12700
12394
12780
12506
12788
12492
12736
12676
12957
13145
13226
13409
13289
13584
13347
13580
13240
13528
13100
13455
13091
13404
13143
13568
13472
14383
15376
17441
18017
15202
12567
13435
13791
14029
13939
13954
14005
13818
14044
13803
14082
13711
14041
13669
14076
13742
14150
13876
14240
14093
14529
14643
15041
15316
15493
15721
15627
15846
15536
15632
14877
14743
13868
13802
13033
13051
12483
12552
12144
12210
12002
12016
11938
11845
11940
11734
11972
11720
12036
11713
12079
11794
12242
11922
12285
12013
12267
12057
12240
12131
12229
12300
12284
12491
12352
12651
12412
12795
12495
12867
12559
12977
12595
12912
12698
13135
12910
13341
13044
13366
13048
13335
13096
13261
13054
13052
13021
12994
13122
12999
13400
13338
14279
14747
17119
17889
16952
12912
13200
13470
14093
13900
14100
13982
13963
13886
13817
13902
13687
13924
13670
14010
13739
14208
13941
14378
14157
14652
14552
15137
15191
15608
15730
15897
15981
15933
15997
15547
15363
14583
14406
13577
13528
12863
12965
12427
12584
12175
12288
12012
12120
11983
11967
12019
11940
12074
12100
12034
12124
12116
12086
12183
12008
12227
12000
12329
12046
12446
12142
12545
12223
12572
12314
12635
12495
12704
12655
12786
12838
12804
12893
12685
13004
12780
13315
13101
13532
13187
13569
13250
13497
13212
13425
13177
13363
13284
13314
13345
13324
13598
14096
15154
16712
17933
16114
12663
12450
13519
13672
14112
13905
14209
13968
14141
14045
14124
14192
14117
14277
14056
14333
14063
14499
14271
14703
14531
15133
15085
15734
15717
16321
16095
16513
16125
16265
15635
15461
14770
14463
13807
13431
13049
12692
12578
12207
12270
11877
12164
11787
12131
11793
12177
11807
12147
11811
12168
11978
12197
12108
12177
12194
12166
12330
12193
12492
12244
12618
12273
12691
12347
12747
12336
12644
12402
12703
12594
12909
12889
13028
13084
13075
13186
12888
13025
12658
13025
12646
13031
12731
13155
12929
13428
14243
16120
17043
16908
13373
10897
11981
12719
13439
13368
13707
13775
13811
13779
13948
13789
14024
13781
14232
13958
14410
14140
14584
14380
14910
14771
15313
15409
15880
16026
16210
16310
16235
16288
15817
15698
14943
14693
13815
13729
12971
12991
12366
12436
11882
12045
11748
11917
11839
11952
11995
11939
12123
11950
12272
12060
12362
12006
12391
12050
12428
12097
12412
12164
12448
12272
12448
12361
12347
12340
12270
12474
12314
12764
12611
13015
12679
13076
12749
13077
12735
12989
12711
13049
12943
13459
13176
13626
13369
14477
15661
17399
17553
14144
11743
12417
13282
13489
13839
13598
13928
13542
13929
13617
14024
13736
14126
13903
14215
14108
14390
14424
14608
14827
14998
15382
15466
15995
15971
16475
16235
16622
16190
16378
15728
15535
14709
14440
13804
13565
13153
12859
12618
12327
12327
11979
12105
11708
11943
11596
11936
11571
11862
11542
11904
11678
11997
11856
11961
11863
11883
11950
11861
12025
11818
12169
11885
12035
12022
12293
12230
12612
12418
12767
12512
12846
12487
12834
12454
12664
12362
12640
12532
12726
12700
12819
13014
13247
14261
15913
18270
17734
13778
12247
13187
13322
13803
13484
13795
13485
13750
13632
13795
13762
13799
13891
13864
14108
13988
14336
14156
14546
14406
14943
14891
15540
15520
16040
15903
16241
16123
16278
16053
15720
15302
14759
14439
13810
13729
13135
13231
12672
12847
12416
12701
12324
12575
12228
12423
12239
12469
12192
12518
12220
12450
12295
12508
12459
12533
12610
12526
12586
12396
12691
12411
12763
12406
12754
12383
12798
12500
13023
12920
13222
13073
13220
13195
13238
13214
13074
13085
12822
13017
12732
13076
12751
13214
12960
13842
14393
16933
17731
16314
12351
12568
13200
13637
13758
13697
13925
13681
13972
13724
14117
13798
14180
13787
14190
13873
14268
14033
14365
14283
14578
14749
15028
15340
15433
15810
15636
16013
15656
15864
15292
15075
14364
14105
13314
13196
12528
12654
12082
12336
11931
12204
11916
12157
11993
12194
12145
12198
12231
12127
12318
12067
12296
11995
12378
11995
12360
12023
12441
12143
12518
12224
12521
12385
12540
12621
12769
12913
12881
13088
12790
13002
12667
12970
12579
12940
12605
12999
12665
13069
12905
13296
13969
15367
16943
17271
14924
11272
12294
12931
13825
13738
14188
13996
14415
14100
14525
14250
14678
14501
14904
14873
15107
15077
15654
15483
15920
15964
16382
16656
16895
17037
16961
17066
16647
16693
15971
15721
14757
14524
13657
13379
12655
12618
12138
12190
11848
11953
11729
11780
11780
11835
11925
11836
11997
11758
11966
11700
11983
11681
11942
11661
11934
11647
11873
11775
12081
12189
12399
12473
12524
12589
12402
12537
12216
12396
12131
12510
12360
12696
12458
12794
12766
13282
14245
16130
16484
16136
11767
10836
11948
12481
12990
12831
13183
13009
13366
13204
13446
13319
13609
13348
13690
13515
13900
13675
14134
14018
14522
14619
15032
15244
15536
15690
15752
15913
15764
15773
15259
15104
14383
14194
13474
13499
12937
12967
12539
12664
12356
12426
12312
12411
12426
12378
12490
12381
12641
12411
12717
12471
12795
12491
12794
12435
12737
12500
12722
12664
12959
12916
13110
13173
13054
13076
12948
13059
12771
13075
12850
13191
12948
13286
13093
13535
13929
15294
16766
17636
16158
12003
12486
13355
13466
13634
13520
13593
13579
13523
13641
13589
13795
13685
13964
13669
13999
13798
14175
14009
14455
14288
14726
14769
15170
15228
15377
15334
15221
15189
14842
14645
13914
13701
12973
12850
12343
12452
12076
12298
11960
12105
11865
11938
11883
12010
12046
12036
12205
12063
12266
12078
12379
12179
12457
12179
12483
12209
12433
12111
12370
12196
12423
12474
12685
12806
12846
13025
12837
12985
12716
12921
12654
13026
12747
13080
12952
13309
13243
13988
14621
16686
17691
17078
12589
12754
13204
13787
13787
13860
13954
13948
14055
13951
14188
13985
14221
13975
14267
14037
14351
14148
14517
14388
14772
14843
15212
15397
15592
15858
15819
16097
15886
16079
15461
15473
14729
14696
13993
14016
13422
13503
13099
13099
12812
12718
12611
12476
12542
12305
12584
12309
12604
12290
12653
12270
12657
12316
12629
12306
12527
12269
12451
12302
12336
12371
12298
12385
12434
12399
12660
12782
12806
12892
12784
13025
12672
12909
12514
12829
12438
12806
12469
12797
12545
12900
12782
13641
14531
16484
17328
15346
12032
12175
13063
13187
13592
13337
13759
13407
13757
13408
13759
13481
13778
13576
13787
13777
13943
14102
14177
14500
14561
15062
15033
15599
15424
15873
15569
15963
15607
15766
15227
15035
14282
13995
13471
13162
12946
12724
12734
12423
12537
12164
12413
12023
12350
11975
12315
12033
12441
12128
12557
12231
12626
12371
12753
12488
12769
12511
12669
12551
12613
12593
12528
12673
12449
12772
12491
12841
12446
12745
12389
12826
12616
13146
12963
13284
13092
13312
13251
13350
13322
13176
13263
13077
13328
13023
13382
13114
13682
13884
14871
16139
17797
16794
13233
12665
13414
13746
13938
14035
13957
14078
13784
14014
13708
14062
13687
14054
13645
13925
13584
14038
13793
14149
14116
14549
14711
14994
15302
15387
15653
15564
15588
15559
15270
14742
14399
13743
13517
12862
12882
12298
12559
12071
12415
12057
12359
11996
12248
12018
12247
12201
12301
12407
12371
12567
12396
12662
12407
12730
12351
12755
12358
12737
12434
12777
12535
12865
12653
12801
12705
12761
12827
12829
13036
12843
13145
12892
13253
12803
13128
12816
13332
13113
13519
13277
13602
13417
13584
13410
13319
13256
13116
13311
13114
13396
13124
13607
13446
14430
14767
17037
17200
15341
12222
13079
13247
13773
13443
13864
13496
13797
13540
13694
13586
13670
13709
13636
13726
13544
13862
13645
14033
13812
14418
14320
14892
14791
15357
15215
15557
15356
15493
15249
14950
14540
14053
13785
13240
13218
12674
12861
12383
12674
12211
12500
12060
12386
12053
12295
12105
12289
12248
12304
12376
12364
12579
12393
12626
12352
12709
12369
12779
12430
12843
12578
12934
12650
12908
12770
12932
12853
12936
13031
12986
13180
12919
13129
12759
13057
13221
13469
13276
13560
13250
13610
13268
13609
13218
13542
13152
13526
13258
13617
13437
13791
14067
14989
16538
17190
16525
12054
11891
12454
13463
13257
13593
13227
13572
13199
13556
13266
13605
13398
13582
13481
13599
13745
13740
14045
13986
14419
14315
14983
14920
15461
15263
15793
15521
15864
15438
15562
15026
14814
14231
13840
13475
13061
12963
12568
12718
12303
12569
12076
12474
12081
12421
12113
12498
12237
12528
12328
12667
12334
12710
12411
12690
12462
12717
12645
12753
12779
12791
12963
12829
13121
12842
13243
12898
13375
13118
13527
13212
13600
13250
13477
13163
13240
13009
13013
12980
12898
13005
12789
13149
13012
14228
15272
17056
16413
14332
10561
11888
12492
13445
13495
13795
13780
13903
13966
13906
14106
13915
14256
13990
14362
14024
14499
14214
14746
14543
15170
15149
15668
15707
16107
16113
16228
16242
16089
16012
15436
15220
14411
14240
13415
13195
12730
12695
12225
12400
11880
12180
11736
12081
11765
12155
11873
12210
11967
12163
12117
12264
12313
12230
12389
12203
12460
12178
12559
12207
12544
12157
12523
12161
12552
12278
12585
12330
12539
12541
12739
12977
13030
13236
13063
13288
13001
13373
12964
13243
12832
13239
12896
13287
13032
13433
13295
14181
15048
16816
17398
15038
11998
12255
13217
13297
13693
13339
13719
13352
13756
13413
13797
13557
13850
13646
13824
13661
14151
13939
14361
14317
14767
14926
15350
15625
15791
16025
15900
16088
15692
15797
15103
15031
14167
14049
13216
13153
12601
12632
12203
12260
12081
12104
12059
11926
12054
11843
12110
11839
12144
11816
12226
11904
12299
11978
12351
12045
12346
12173
12315
12175
12201
12232
12158
12358
12220
12552
12325
12684
12259
12617
12339
12808
12600
13031
12815
13045
12824
13040
12930
12928
12904
12771
12964
12808
13105
12824
13312
13136
14399
15633
17583
17067
13758
12013
13073
13345
13927
13588
13966
13714
14018
13768
13889
13734
13839
13875
13886
14127
14044
14386
14200
14625
14497
15148
15135
15829
15802
16362
16194
16537
16396
16566
16307
16011
15549
14959
14593
13934
13751
13125
13202
12676
12854
12307
12510
12093
12368
12031
12265
12028
12152
12077
12184
12246
12184
12343
12151
12391
12081
12337
11965
12375
11990
12341
12034
12426
12201
12511
12388
12564
12409
12669
12500
12977
12907
13155
13067
13119
13153
13133
13209
12915
13064
12751
12996
12666
13060
12780
13330
13259
14377
15395
17391
17124
13735
11949
12694
13382
13587
13809
13755
14019
13783
14142
13789
14137
13804
14193
13890
14282
14065
14378
14221
14482
14481
14707
14874
15026
15413
15460
15793
15593
15920
15489
15691
15015
14894
14053
13969
13193
13069
12570
12541
12336
12245
12150
12027
11977
11827
11936
11767
12034
11926
12281
12232
12464
12378
12632
12387
12587
12249
12513
12261
12513
12205
12415
12186
12401
12167
12249
12262
12383
12418
12286
12464
12447
12809
12779
13129
12963
13286
13044
13294
12990
13157
12893
13152
13044
13178
13131
13201
13407
13573
14726
16177
17622
16927
13073
11836
12952
13421
13951
13831
14134
14037
14193
14217
14348
14406
14385
14574
14478
14705
14518
14862
14673
15105
15036
15464
15410
15909
15970
16370
16401
16552
16469
16432
16231
15708
15114
14737
14065
13668
13116
12834
12542
12271
12224
12016
12121
11888
12107
11854
12073
11853
12112
11865
12127
11895
12064
11909
12026
11978
11970
11946
11891
11955
11874
12088
11925
12341
12274
12611
12360
12707
12525
12639
12414
12438
12339
12429
12455
12417
12611
12523
12846
12720
13944
15311
17142
16616
14117
10389
11698
12349
13249
13286
13412
13393
13537
13642
13584
13785
13653
13949
13749
14126
13916
14294
14091
14508
14500
15066
15017
15588
15515
16115
15883
16160
15844
15984
15622
15415
14806
14365
13900
13431
13199
12769
12760
12271
12378
11979
12297
11911
12248
11930
12207
11982
12284
12134
12315
12242
12292
12294
12227
12384
12188
12398
12104
12439
12176
12589
12355
12818
12650
13025
12712
12873
12670
12768
12660
12743
12804
12744
12885
12730
13004
12917
13441
14265
16372
17104
17126
12238
11512
12263
13170
13353
13520
13520
13604
13701
13705
13712
13953
13904
13971
13989
13961
14137
14087
14407
14277
14749
14703
15304
15277
15896
15804
16160
15921
16076
15729
15574
15001
14576
14140
13674
13430
12930
12879
12381
12502
12119
12417
12068
12395
12090
12415
12200
12492
12371
12547
12436
12477
12512
12456
12583
12334
12559
12349
12641
12361
12605
12245
12556
12255
12651
12552
12884
12762
12954
12900
12953
12946
12768
12893
12729
12985
12769
13126
12887
13369
13184
14371
15777
18136
16814
12728
12186
13093
13263
13723
13470
13727
13590
13773
13721
13893
13932
13951
14118
14029
14293
14084
14441
14228
14637
14477
15010
14947
15482
15411
15796
15682
15854
15741
15642
15373
14979
14715
14007
13773
13232
13278
12791
12931
12406
12624
12257
12506
12271
12471
12335
12511
12468
12560
12627
12640
12815
12644
12867
12636
12938
12724
13061
12751
13065
12714
13007
12710
12835
12656
12807
12789
12995
13148
13199
13359
13373
13265
13257
13178
13069
13205
13079
13284
13020
13323
13153
13550
13883
15331
17034
18302
15982
12557
12558
13260
13373
13421
13415
13366
13417
13202
13393
13179
13496
13220
13550
13247
13614
13353
13724
13546
13948
13943
14330
14475
14820
15031
15136
15340
15276
15524
15223
15253
14560
14434
13683
13624
13069
13167
12745
12888
12627
12703
12525
12519
12504
12443
12578
12443
12632
12353
12671
12392
12699
12354
12661
12295
12531
12221
12533
12278
12619
12398
12778
12497
12745
12557
12773
12630
12645
12671
12698
12927
12916
13163
12916
13209
12989
13320
12938
13160
12823
13144
12885
13148
12960
13158
13143
13337
14136
15204
17169
17535
15038
11995
12696
13031
13684
13419
13768
13450
13747
13525
13779
13551
13720
13645
13731
13736
13729
13976
13948
14226
14144
14604
14501
15070
14989
15570
15428
15757
15547
15737
15405
15240
14696
14324
13948
13511
13295
12876
12680
12693
12594
12504
12561
12424
12540
12319
12549
12290
12598
12288
12650
12407
12785
12538
12801
12607
12849
12757
12931
12894
12867
12919
12784
12927
12755
13000
12715
13036
12766
13004
12603
12947
12744
13159
13006
13257
13158
13235
13234
13213
13233
13019
13147
12857
13105
12816
13167
12923
13370
13523
14686
16134
17462
16372
12538
12115
12836
13332
13409
13412
13215
13359
13134
13395
13143
13464
13124
13472
13209
13595
13439
13731
13646
14207
14209
14871
14914
15460
15437
15792
15712
15879
15789
15643
15471
14991
14780
14208
14065
13444
13434
12858
12932
12518
12691
12297
12559
12335
12517
12391
12495
12529
12597
12673
12582
12838
12656
12920
12625
12861
12544
12816
12472
12729
12440
12682
12479
12639
12500
12608
12640
12688
12809
12697
12913
12730
12975
12704
13036
12872
13317
13043
13403
13129
13384
13127
13268
13027
13006
12976
12936
13041
12961
13200
13125
13853
14734
16558
17585
16733
12547
12504
12956
13815
13652
14015
13746
14069
13729
13928
13690
14009
13863
14002
13968
13982
14079
14074
14339
14298
14623
14548
15119
15123
15706
15555
15885
15608
15757
15345
15251
14629
14200
13627
13144
12791
12364
12257
11840
11952
11606
11845
11536
11877
11580
11929
11644
11948
11769
12010
11896
12034
12056
12095
12212
12180
12400
12156
12416
12184
12493
12157
12495
12200
12534
12249
12601
12435
12802
12606
13049
12817
13215
13045
13329
13217
13339
13244
13272
13277
13131
13270
13157
13435
13193
13557
13349
13888
14062
15726
17180
17746
16356
12067
11879
12951
13564
13840
13850
13810
13980
13792
14022
13739
14006
13650
14027
13741
14163
13946
14294
14182
14629
14688
15090
15323
15566
15800
15899
16177
16042
16204
15790
15845
15173
14955
14068
13864
13149
13047
12492
12482
12097
12071
11903
11785
11803
11720
11908
11711
12015
12039
12129
12081
12147
11966
12182
11921
12167
11852
12162
11917
12369
12105
12381
12173
12443
12305
12509
12598
12712
12814
12849
12994
12742
12892
12577
12823
12560
12948
12688
13006
12752
13131
13016
13316
14387
16336
17020
16676
12286
11114
12255
12806
13410
13294
13693
13462
13827
13532
13913
13642
13926
13729
14059
14009
14246
14240
14386
14564
14633
14979
14997
15425
15412
15837
15632
15997
15692
15901
15400
15277
14529
14227
13341
13281
12651
12655
12175
12285
11972
12092
11951
11987
12008
11985
12156
12030
12230
12000
12336
12065
12443
12121
12424
12141
12428
12129
12296
12059
12243
12210
12231
12280
12305
12506
12402
12772
12714
13177
13066
13513
13204
13480
13166
13344
13087
13364
13198
13340
13293
13341
13452
13502
14527
15957
17842
17776
14232
11852
12756
13052
13668
13386
13707
13498
13726
13550
13701
13664
13788
13815
13756
13942
13867
14204
14064
14369
14546
14886
15022
15507
15520
15966
15755
16113
15752
15997
15456
15340
14556
14266
13593
13338
12882
12667
12463
12301
12309
12102
12268
12047
12371
12061
12337
12049
12403
12146
12476
12263
12561
12357
12442
12326
12390
12412
12377
12496
12389
12663
12498
12845
12611
12857
12548
12935
12738
13221
13084
13369
13179
13340
13285
13300
13237
13063
13152
13001
13212
12972
13293
13082
13498
13495
14764
16370
18250
17343
13255
12380
13484
13594
13928
13637
13862
13634
13788
13655
13733
13728
13653
13751
13650
13881
13704
14030
13805
14263
14151
14679
14621
15113
15058
15436
15279
15481
15306
15225
14904
14474
14104
13479
13216
12646
12673
12180
12308
11908
12153
11877
12196
11889
12133
11923
12112
12036
12120
12082
12048
12171
12053
12248
12053
12390
12138
12462
12155
12489
12198
12500
12249
12543
12335
12508
12369
12475
12559
12719
13056
13035
13374
13171
13502
13229
13337
13170
13273
13037
13272
13047
13434
13166
13551
13287
14336
15292
17478
17809
15197
12168
12672
13230
13545
13650
13542
13733
13519
13775
13489
13804
13518
13840
13526
