16466
16967
17203
17150
17180
16805
16709
16118
15858
15049
14775
14027
13917
13294
13201
12772
12804
12536
12556
12477
12387
12358
12269
12392
12247
12469
12251
12504
12270
12546
12242
12480
12221
12451
12155
12221
11984
12041
11952
11849
11817
11641
11828
11766
12024
11804
12163
11918
12086
11780
11993
11770
12007
11815
12032
12030
12077
12164
12310
13182
14409
15870
15320
12173
9857
11028
11751
12641
12547
12876
12658
12899
12802
12965
12850
13223
12971
13234
13088
13359
13389
13644
13743
13957
14163
14278
14725
14681
14957
14663
14934
14580
14723
14139
14083
13469
13425
12892
12855
12596
12565
12483
12447
12526
12415
12643
12467
12731
12513
12956
12706
13085
12769
13071
12779
13123
12959
13184
12997
13062
13031
12993
13106
12883
12969
12684
12932
12640
13144
12956
13330
13068
13374
13023
13194
12857
13045
12966
13011
13011
12989
13063
12991
13436
13790
14868
16137
16489
13178
11232
11794
13003
13158
13537
13299
13681
13319
13709
13414
13747
13491
13721
13631
13730
13817
13877
14148
14199
14669
14650
15175
15166
15723
15479
15858
15466
15715
15219
15276
14629
14350
13763
13251
12880
12606
12632
12337
12559
12263
12626
12320
12714
12475
12814
12539
12920
12672
12873
12787
12981
12890
12896
12970
12884
12983
12812
13008
12711
13007
12681
13080
12872
13259
12981
13330
13040
13195
12887
12931
12754
12969
12734
13048
12838
13049
13063
13223
14436
16178
16755
15781
11478
10370
11738
12298
13121
12899
13290
13059
13426
13301
13544
13434
13598
13626
13681
13852
13764
13936
13812
14221
14221
14813
14761
15285
15147
15621
15300
15536
15101
15151
14650
14378
13819
13462
13133
12800
12749
12489
12736
12467
12718
12419
12771
12423
12734
12519
12826
12414
12666
12502
12621
12605
12719
12659
12534
12780
12577
12746
12456
12676
12355
12671
12536
12826
12645
12956
12734
12995
12662
12909
12563
12801
12602
12835
12691
12923
12852
13031
13194
14192
15912
16274
16045
11610
10490
11201
12509
12694
13072
12844
13236
13058
13338
13117
13323
13282
13376
13520
13598
13826
13816
14112
14004
14440
14363
14942
14954
15498
15336
15661
15441
15575
15170
14912
14334
13918
13541
13128
13002
12638
12695
12396
12573
12211
12362
12076
12398
12079
12311
12151
12344
12189
12254
12179
12255
12151
12397
12128
12214
12056
12128
12155
12137
12253
12182
12380
12111
12355
12110
12418
12187
12582
12459
12822
12607
12773
12512
12624
12504
12575
12669
12730
12941
12904
13229
13190
13996
14507
16530
16936
15483
11545
11903
12432
13200
13192
13447
13486
13568
13657
13686
13886
13817
14142
14014
14322
14143
14494
14266
14639
14489
14886
14866
15260
15248
15542
15555
15555
15518
15346
15213
14772
14547
13887
13711
13086
13141
12667
12846
12549
12785
12541
12824
12535
12799
12522
12785
12593
12799
12648
12787
12656
12739
12793
12791
12894
12721
12885
12643
12897
12670
12923
12649
12935
12727
12982
12687
12825
12771
12941
13057
13128
13178
13120
13271
13088
13196
12919
13063
12800
13047
12761
13014
12774
13035
12976
13650
14060
15769
16710
15596
11678
11293
12203
12714
13169
13131
13432
13180
13448
13100
13363
13107
13384
13215
13462
13351
13561
13662
13803
13986
14034
14277
14685
14872
15068
15141
15077
15128
14839
14792
14216
14063
13386
13294
12746
12814
12416
12528
12189
12341
12182
12291
12331
12394
12424
12348
12511
12394
12562
12339
12637
12413
12702
12441
12753
12493
12720
12438
12653
12561
12624
12619
12634
12762
12717
12921
12753
13024
12839
13203
12943
13240
12958
13312
13112
13517
13413
13615
13527
13671
13656
13592
13608
13433
13531
13373
13619
13416
13758
13568
14135
14547
15664
16989
17587
14541
12227
12653
13743
14000
14363
14231
14448
14328
14469
14453
14481
14524
14438
14561
14431
14710
14561
14872
14683
15141
14997
15439
15421
15853
15826
16084
15955
15912
15674
15415
15106
14581
14292
13666
13546
13004
12986
12567
12750
12382
12598
12369
12593
12439
12593
12511
12600
12625
12641
12665
12548
12712
12584
12858
12648
12845
12532
12765
12509
12812
12555
12764
12627
12817
12720
12766
12759
12708
12752
12658
12869
12956
13022
13016
13047
12977
13109
12890
12964
12623
12847
12606
12937
12714
12971
12852
13251
14171
15921
16464
15990
11853
10440
11502
12289
12942
12871
13196
13055
13349
13132
13391
13177
13473
13289
13582
13520
13767
13749
13857
13978
14130
14440
14547
14929
14903
15299
15103
15359
15000
15102
14541
14381
13696
13446
12892
12765
12524
12484
12419
12334
12438
12337
12489
12363
12704
12534
12865
12658
13019
12873
13216
12983
13185
12990
13279
13042
13333
13097
13311
13122
13249
13084
13132
13128
13073
13097
12968
13122
13027
13360
13225
13587
13399
13666
13396
13649
13365
13571
13377
13505
13384
13396
13423
13473
13720
14267
15572
16923
17358
14941
11617
11879
13028
13432
13838
13660
13976
13865
14007
13935
13987
14020
13975
14087
14035
14300
14216
14567
14429
14888
14798
15281
15271
15815
15792
16088
15950
16034
15871
15685
15330
14925
14659
14094
13979
13491
13383
13229
13245
13047
13159
12856
13096
12860
13130
12815
13104
12844
13149
12907
13083
12942
13081
12973
12951
12977
12862
12943
12792
12971
12765
13029
12734
12915
12516
12767
12498
12748
12674
13023
12951
13137
13071
13026
12984
12888
12984
12892
13131
12871
13158
12988
13321
13214
14163
14957
16714
16712
14465
10949
11480
12271
12842
13051
13059
13256
13125
13373
13239
13536
13313
13694
13474
13787
13617
13968
13837
14122
14102
14518
14553
15056
14997
15295
15162
15248
15116
14981
14742
14253
13857
13227
13046
12491
12448
11970
12151
11795
12070
11816
12086
11894
11990
11892
12039
12008
12005
12056
11991
12184
12016
12238
12037
12277
11994
12281
12044
12403
12207
12492
12345
12592
12519
12651
12625
12623
12718
12678
12897
12896
13285
13189
13507
13268
13580
13256
13471
13155
13332
13113
13320
13232
13330
13409
13571
14154
14804
16544
16911
15598
11515
11825
12432
13448
13450
13786
13581
13853
13631
13892
13696
14001
13770
14065
13961
14260
14211
14385
14448
14542
14781
14915
15311
15413
15833
15686
15947
15633
15768
15211
15091
14422
14147
13500
13340
12991
12951
12847
12750
12788
12717
12900
12698
12886
12647
12949
12678
12931
12640
12898
12715
12961
12824
13017
12906
12980
12986
12950
13015
12833
12970
12775
13044
12817
13089
12878
13229
12989
13281
13002
13225
13116
13351
13482
13589
13617
13793
13704
13862
13637
13582
13439
13398
13458
13342
13488
13353
13711
13829
14804
15825
16937
15830
12223
11247
12378
12999
13455
13415
13547
13564
13550
13681
13586
13730
13563
13772
13603
13970
13822
14248
14114
14527
14431
14857
14848
15169
15253
15427
15462
15346
15350
15047
14924
14381
14201
13495
13414
12877
12916
12499
12696
12364
12500
12342
12533
12532
12622
12659
12621
12756
12600
12760
12555
12756
12485
12762
12543
12833
12629
12859
12648
12904
12578
12847
12687
12995
12772
13026
12887
13083
12987
12997
12981
12921
12937
12788
12934
12737
13026
12855
13284
13033
13384
13113
13400
13108
13230
13022
13044
12929
12977
13079
13135
13283
13341
13982
14506
16071
16515
15907
11626
11374
11994
13008
13046
13293
13242
13425
13462
13549
13630
13582
13713
13574
13791
13578
13885
13676
14035
13868
14290
14228
14736
14804
15183
15204
15387
15330
15309
15217
14890
14415
14185
13713
13398
13118
12890
12894
12718
12898
12704
12940
12633
12855
12523
12769
12451
12697
12466
12641
12460
12600
12627
12730
12806
12656
12728
12588
12849
12630
12843
12595
12842
12534
12781
12460
12722
12536
12696
12533
12735
12795
12825
12809
12657
12836
12759
13131
13083
13355
13130
13403
13167
13478
13245
13441
13161
13337
13165
13192
13208
13300
13626
14097
14977
16230
16735
15115
11474
11310
12567
13088
13580
13374
13669
13511
13794
13541
13802
13562
13859
13729
13929
13880
14065
14125
14215
14396
14462
14781
14787
15149
15132
15456
15142
15470
15160
15193
14638
14525
13937
13692
13284
13098
12778
12569
12513
12299
12352
12130
12337
12127
12460
12191
12494
12247
12555
12325
12558
12361
12467
12403
12415
12343
12344
12412
12331
12535
12301
12529
12292
12470
12252
12483
12243
12616
12397
12678
12465
12550
12379
12494
12510
12622
12824
12722
12947
12918
12921
12779
12741
12532
12655
12550
12821
12647
12917
12823
13615
14153
15903
15989
14699
10471
10796
11776
12706
12950
13043
13223
13057
13277
13034
13297
13055
13482
13262
13619
13427
13819
13747
14188
14191
14487
14591
14873
15180
15413
15761
15656
15915
15515
15702
15283
15377
14822
14801
14090
14172
13691
13856
13533
13637
13610
13585
13651
13625
13795
13657
13867
13622
13954
13512
13804
13408
13803
13413
13713
13447
13677
13509
13899
13607
14042
13824
14142
13934
14029
13906
13849
13739
13572
13711
13539
13868
13687
14113
13768
14137
13838
14211
13851
14138
13738
13912
13634
13674
13582
13632
13929
14707
16047
17129
16390
13741
10539
11087
12546
13098
13733
13400
13795
13858
14013
13912
13874
14019
13895
14152
13867
14256
13886
14296
13930
14530
14288
14944
14731
15309
15002
15326
15175
15194
15076
14810
14633
14087
13936
13175
13258
12566
12822
12328
12805
12280
12688
12314
12787
12293
12710
12245
12767
12346
12759
12441
12725
12546
12663
12584
12544
12601
12373
12637
12332
12658
12205
12626
12231
12835
12497
13077
12750
13205
12895
13178
13008
13098
12949
12855
12985
12705
13008
12719
13222
12997
14238
15104
17045
15821
14159
9810
10868
11756
12885
13042
13146
13223
13128
13373
13113
13455
13123
13563
13160
13665
13287
13878
13542
14077
13796
14337
14265
14760
14885
15101
15198
15145
15056
15185
14725
14445
14025
13540
13274
12711
12852
12346
12696
12179
12637
12166
12681
12210
12661
12264
12671
12437
12682
12630
12802
12879
12788
13024
12805
13182
12774
13213
12702
13220
12705
13177
12594
13060
12741
13090
12866
13204
13111
13201
13230
13061
13259
12922
13286
12879
13371
12929
13422
12925
13465
13253
14503
15030
16649
16096
14062
10725
11367
12534
13043
13465
13190
13588
13185
13648
13157
13716
13251
13754
13317
13815
13438
14094
13692
14361
14056
14671
14449
15075
15042
15383
15258
15286
15275
14996
14927
14224
14081
13262
13381
12595
12854
12266
12667
12179
12545
12201
12629
12499
12679
12707
12837
12933
12782
13105
12793
13131
12616
12989
12473
12874
12395
12831
12427
12818
12519
12802
12589
12684
12568
12559
12789
12637
13042
12826
13307
12956
13415
12925
13304
12770
13116
12626
12978
12671
13016
12893
13065
13265
13834
14608
15656
16029
12997
10646
11537
12770
13197
13619
13468
13869
13467
13964
13522
14049
13619
14152
13789
14178
13887
14222
14091
14353
14432
14570
14877
14794
15214
14982
15367
14892
15215
14642
14865
14034
14093
13314
13394
12819
12801
12521
12531
12445
12320
12455
12278
12600
12283
12794
12398
12864
12405
12987
12631
13073
12683
13086
12842
13094
12989
13037
13000
12874
13016
12806
13113
12769
13194
12759
13187
12503
13019
12658
13244
13012
13367
13092
13611
13168
13584
13073
13336
13033
13248
13036
13189
13195
13138
13457
13849
14754
15716
15983
13937
10816
10747
12418
12846
13506
13348
13711
13529
13868
13662
13755
13596
13658
13726
13661
13801
13591
13829
13737
14255
14090
14751
14742
15282
15243
15766
15535
15814
15576
15641
15283
14941
14591
14161
13939
13491
13510
13060
13297
12910
13232
12940
13344
13002
13354
13151
13445
13220
13345
13311
13283
13347
13340
13550
13320
13309
13341
13369
13279
13424
13253
13539
13219
13557
13180
13502
13009
13309
12864
13235
12929
13269
13070
13280
13223
13323
13443
13350
13389
12982
13067
12662
12958
12673
13147
12795
13379
13637
15365
16731
17182
15222
10962
11296
12277
13078
13392
13715
13633
14020
13750
14100
13613
13905
13462
13838
13471
13882
13705
14106
14062
14397
14547
14709
15055
15132
15579
15389
15704
15229
15389
14658
14659
13808
13689
12755
12727
12146
12193
11881
12265
11801
12197
11914
12162
11978
12156
12111
12195
12338
12215
12409
12162
12519
12238
12684
12283
12751
12422
12859
12473
12859
12583
12837
12647
12799
12735
12774
12954
12881
13103
12952
13348
12989
13317
12901
13262
12784
13208
12821
13145
12842
13128
12994
13655
15154
17073
17765
15387
11165
11355
12394
12631
13280
12921
13389
12970
13336
12981
13399
13202
13571
13564
13773
13859
13888
14117
14041
14406
14256
14817
14688
15249
15243
15502
15168
15369
14780
14824
13980
13925
12955
12979
12321
12511
12088
12290
12091
12165
12144
12125
12241
12064
12409
12123
12569
12259
12782
12389
12905
12503
12879
12494
12781
12443
12691
12565
12675
12706
12680
12764
12481
12858
12595
13073
12781
13321
13011
13512
13117
13510
13047
13297
12958
13210
13091
13200
13206
13114
13337
13129
14171
15642
18120
17637
13394
11422
12543
12834
13516
13132
13472
13157
13298
13088
13355
13068
13442
13160
13487
13397
13571
13625
13673
13951
13925
14434
14414
15066
14793
15310
14907
15329
14793
14972
14172
14044
13255
13077
12596
12457
12299
12200
12331
12139
12468
12135
12540
12097
12607
12170
12638
12223
12685
12291
12627
12462
12672
12510
12603
12648
12582
12828
12669
13025
12768
13187
12783
13278
12847
13273
12811
13199
12865
13396
13255
13493
13481
13594
13685
13557
13716
13477
13725
13353
13763
13361
13827
13513
13777
13817
14826
16651
18479
16097
12439
11891
13021
13064
13505
13329
13566
13529
13572
13591
13450
13656
13458
13899
13609
14089
13783
14378
14119
14702
14462
15101
14998
15510
15373
15629
15530
15549
15438
15053
14787
14107
13904
13141
13192
12550
12809
12282
12630
12177
12564
12258
12632
12387
12601
12505
12586
12574
12461
12677
12409
12787
12422
12879
12469
12893
12494
12864
12473
12845
12453
12803
12603
12863
12814
12809
12740
13098
12883
13164
12997
13077
13123
13000
13221
13060
13386
13175
13714
13306
13884
13444
13924
13539
13869
13382
13600
13282
13480
13323
13395
13466
13416
13823
14054
15944
17380
17545
12828
12013
12263
13435
13217
13626
13303
13696
13503
13621
13489
13540
13651
13489
13666
13513
13897
13598
14056
13743
14404
14254
14963
14773
15371
15270
15666
15422
15449
15169
14955
14661
14047
13783
13088
13174
12680
12999
12489
12919
12389
12800
12546
13011
12607
13093
12657
13073
12558
12884
12478
12778
12513
12728
12689
12720
12805
12684
12846
12669
13030
12632
13080
12717
13224
12827
13290
12813
13204
12862
13142
13010
13206
13154
13160
13290
13149
13308
13030
13499
13268
13731
13274
13801
13354
13804
13395
13738
13287
13458
13217
13364
13274
13273
13446
13361
14215
15033
17242
17339
14561
11485
12433
12686
13437
13065
13502
13222
13466
13307
13515
13537
13592
13802
13983
13833
14047
14059
14144
14352
14375
14867
14868
15456
15308
15913
15539
15985
15462
15721
14988
14941
14061
13792
13130
12964
12658
12451
12510
12304
12500
12140
12480
12128
12564
12193
12654
12266
12722
12337
12728
12474
12812
12677
12848
12862
12799
12874
12687
12965
12649
13020
12645
13124
12726
13183
12739
13222
12888
13276
12983
13237
13025
13150
13153
13261
13495
13581
14028
13776
14207
13810
14295
13845
14265
13677
13967
13551
13949
13551
14024
13638
14314
14687
16674
17662
17298
12486
11806
12530
13209
13488
13330
13674
13442
13768
13361
13814
13311
13790
13369
13872
13538
13947
13691
14106
14087
14408
14591
14803
15224
15280
15638
15382
15767
15297
15562
14882
14929
14008
13995
13233
13245
12633
12692
12397
12511
12496
12416
12532
12398
12731
12477
12844
12426
12858
12415
12850
12445
12867
12475
12861
12578
12814
12673
12754
12687
12635
12822
12712
12979
12917
12921
12911
13047
12856
13001
12764
13161
12938
13445
13049
13496
13059
13488
13069
13342
12904
13112
12926
13051
13059
13091
13290
13167
14112
14966
17249
17475
14791
10995
12014
12499
13463
13210
13679
13406
13655
13483
13590
13528
13479
13621
13505
13779
13546
13974
13690
14239
14002
14652
14451
15119
14943
15434
15187
15426
15151
15149
14926
14516
14193
13559
13387
12762
12881
12235
12481
11945
12323
11864
12298
11949
12358
12034
12559
12139
12626
12273
12692
12402
12666
12508
12703
12685
12663
12759
12664
12886
12549
12920
12566
13082
12691
13091
12573
12966
12616
13008
12880
13235
13062
13175
13086
13060
13072
12787
12967
12625
12961
12634
13053
12640
13179
12701
14009
15104
17204
16943
12968
10429
11392
12338
12788
12991
12883
13190
12886
13271
12890
13367
12991
13519
13182
13653
13357
13798
13658
14060
14018
14354
14575
14759
15125
15078
15430
15122
15268
15144
15013
14459
14279
13524
13504
12770
12943
12341
12685
12210
12653
12293
12701
12402
12683
12548
12771
12813
12761
12861
12690
12927
12577
12909
12509
12946
12549
12987
12553
13033
12640
12954
12608
12883
12721
12921
13084
13199
13376
13190
13450
13083
13302
12825
13235
12844
13348
12951
13436
13102
13551
13265
14131
15261
17480
18269
14976
11408
11812
12973
13225
13685
13383
13856
13391
13849
13489
13952
13603
13960
13667
14075
13776
14285
14018
14516
14318
14779
14802
15135
15337
15466
15607
15356
15462
15018
15163
14421
14426
13558
13596
12814
13014
12394
12555
12177
12391
12162
12252
12217
12209
12400
12233
12420
12099
12440
12033
12523
12135
12642
12169
12596
12162
12523
12224
12540
12374
12643
12704
12711
12910
12614
12776
12367
12588
12130
12635
12266
12846
12493
13007
12649
13043
13354
15223
17111
17941
15132
10305
11048
11804
12767
12749
13143
13053
13314
13212
13507
13230
13627
13242
13696
13287
13830
13419
13972
13770
14347
14197
14720
14815
15247
15318
15343
15507
15260
15325
14817
14849
14029
14022
13219
13406
12690
12966
12480
12744
12330
12594
12402
12512
12455
12484
12664
12501
12799
12520
12863
12456
12835
12301
12777
12308
12781
12495
12949
12710
13034
12852
12943
12870
12812
12876
12642
12866
12609
13009
12638
13085
12765
13254
13585
15800
17339
18182
14949
10937
11691
12918
12930
13481
13243
13610
13434
13613
13623
13628
13856
13799
14163
13851
14246
13889
14450
14141
14803
14540
15212
15046
15605
15369
15632
15409
15418
15170
14761
14410
13727
13534
12830
12948
12374
12757
12290
12719
12242
12691
12321
12759
12519
12838
12790
12953
12938
12914
13071
12873
13173
12801
13215
12816
13226
12842
13465
13105
13513
13145
13411
13060
13179
12909
12908
12850
12791
12923
12696
12993
12755
13096
13517
15551
17538
17555
12141
11615
12014
13063
12965
13494
13157
13660
13312
13718
13455
13710
13629
13800
13779
13814
13995
13874
14261
14111
14657
14498
15220
15046
15703
15398
15886
15447
15692
15202
15086
14461
14124
13720
13358
13218
12877
13049
12693
13007
12525
12920
12460
12961
12535
13001
12679
13034
12734
12966
12837
12898
12839
12692
12836
12626
13010
12825
13358
12998
13500
13092
13537
13117
13523
13142
13491
13216
13444
13334
13487
13386
13886
13744
14816
16717
18953
18310
13180
12620
13083
13852
13544
13904
13542
13949
13485
13871
13356
13716
13259
13694
13422
13718
13585
13768
13838
13943
14243
14193
14568
14394
14909
14538
14929
14461
14766
14033
14069
13277
13228
12515
12423
12075
12153
12081
11992
12032
11788
12085
11813
12229
11843
12316
11773
12249
11818
12385
11988
12466
12155
12495
12369
12526
12545
12481
12708
12489
12809
12382
12912
12440
13055
12638
13148
12810
13330
12930
13508
12817
13357
12752
13319
12730
13251
12914
13295
13183
13215
13711
15165
17829
18023
14133
11318
12352
12487
13320
12690
13344
12742
13357
12833
13388
13037
13494
13412
13697
13736
13738
14054
13806
14262
13902
14649
14326
15190
14735
15512
14888
15499
14839
15241
14560
14522
13842
13561
13237
12928
12940
12528
12819
12256
12773
12201
12811
12143
12837
12233
12936
12414
12986
12548
12916
12643
12848
12828
13133
12736
13197
12844
13055
12982
12948
13191
12918
13228
12672
13090
12428
12988
12214
12864
12171
12794
12124
12634
12149
12665
12495
12908
12940
12961
13203
13055
13525
13066
13527
12872
13489
12836
13514
12945
13650
13168
13763
13672
14823
16568
17910
16479
11996
12052
12577
13533
13240
13791
13261
13925
13319
14034
13329
13901
13279
13893
13484
13923
13714
13971
14086
14191
14607
14565
15256
15025
15791
15281
16022
15360
16014
15273
15620
14604
14763
13642
13885
12720
13416
12802
13218
12625
13033
12679
12839
12684
12637
12796
12511
12793
12229
12652
11979
12579
11958
12703
12122
12790
12303
12980
12673
13025
12831
13125
13237
13190
13450
13076
13477
12946
13600
13072
13711
13027
13750
13052
13650
13134
13636
13207
13573
13303
13499
13529
13570
13935
13570
14068
13609
14116
13410
13995
13199
13720
13063
13620
13062
13645
13370
13760
14086
15316
17212
17728
13829
11708
12202
13112
13524
13546
13796
13519
13942
13427
14003
13407
14039
13337
14012
13395
14135
13614
14239
13972
14498
14431
14799
15033
15102
15477
15273
15660
15083
15523
14678
15030
13928
14159
13056
13283
12424
12738
12182
12428
12175
12363
12412
12351
12641
12357
12786
12271
12862
12288
12937
12284
13009
12369
13034
12488
12997
12564
12898
12712
12848
12843
12796
13083
12742
13165
12664
13197
12496
13192
12493
13260
12714
13318
12778
13401
12706
13333
12621
13168
12431
12976
12457
12834
12551
12805
12746
13031
14569
16523
17376
15291
11039
10543
12030
12101
13095
12516
13245
12770
13274
12818
13219
12964
13120
13131
13128
13448
13257
13791
13496
14127
13693
14519
14184
15042
14679
15452
14901
15411
14857
15084
14464
14198
13647
13176
12951
12387
12532
12001
12405
11817
12390
11796
12403
11803
12535
12076
12632
12343
12773
12550
12770
12786
12731
12851
12577
12604
12894
12870
12878
12987
12775
13087
12732
13239
12740
13342
12716
13332
12717
13236
12624
13111
12565
12885
12625
12965
13106
13232
13434
13305
13728
13376
13807
13179
13594
12877
13398
12821
13467
12957
13575
13180
14087
14927
17616
18114
14827
12097
12251
13156
13006
13549
13108
13717
13149
13772
13173
13792
13267
13836
13469
13890
13651
13856
13828
13911
14194
14144
14702
14497
15189
14782
15371
14741
15225
14487
14851
13946
13864
12835
13088
12212
12648
11994
12498
11978
12370
12042
12238
12110
12167
12257
12065
12407
12074
12589
12109
12629
12063
12701
12153
12737
12238
12787
12322
12709
12406
12630
12497
12505
12621
12416
12743
12400
12948
12512
13145
12667
13375
12904
13583
13101
13606
13127
13581
13425
13791
13783
13816
13897
13702
13977
13573
14046
13455
13910
13309
13966
13438
14115
13722
14358
14585
16375
18196
18520
14599
12433
13152
13617
14158
14104
14028
14083
14159
13943
14207
13871
14278
13733
14254
13722
14349
13791
14453
14017
14723
14380
15034
14982
15468
15529
15674
15773
15590
15726
15087
15116
14113
14178
13160
13389
12490
12860
12170
12567
12089
12507
12192
12401
12401
12474
12620
12519
12864
12503
12916
12405
12982
12367
12973
12340
12882
12276
12740
12302
12755
12560
12799
12731
12753
12932
12794
13173
12784
13289
12871
13475
12785
13310
12705
13366
12841
13474
13139
13966
13414
13974
13532
13987
13419
13835
13510
13749
13633
13715
13820
13662
13850
14414
16667
17314
17582
13310
10955
11199
12764
12898
13762
13341
13935
13667
13919
13717
13732
13769
13503
13807
13392
13926
13370
14032
13514
14300
13808
14669
14247
15068
14888
15548
15330
15605
15397
15271
15152
14491
14275
13307
13469
12622
13117
12222
12719
11853
12356
11654
12158
11529
11878
11627
12015
12134
12343
12751
12776
13314
12802
12706
12571
12520
12165
12239
11689
11954
11214
11643
10920
11623
10989
11548
11047
11758
11593
12252
12139
12650
12691
12453
12451
12311
12697
12405
12966
12542
13128
12691
13442
12931
13918
14351
17025
17796
16718
12370
12402
12990
13565
13717
13603
13875
13642
14253
13993
14561
14132
14604
14148
14714
14369
15007
14629
14991
14834
15112
15109
15210
15393
15370
15722
15453
15600
14952
15276
14420
14426
13382
13397
12451
12535
11965
12224
11659
12271
11857
12218
11703
11969
11712
11988
11828
11806
11937
11834
12125
11948
12450
12067
12639
12244
12811
12296
12731
12478
13049
12761
13108
12812
12907
12816
12898
13130
13161
13542
13388
13798
13449
13879
13322
13715
13345
13778
13371
13769
13506
13936
14060
14972
16486
17117
16188
11829
11424
12164
13502
13521
13960
13667
14043
13620
14030
13656
13938
13694
14057
13910
14051
14071
14147
14266
14141
14363
14303
14561
14637
14847
14866
14962
14722
14949
14602
14524
13842
13768
13126
13103
12451
12664
12236
12440
12151
12174
12191
12177
12212
12082
12359
12070
12422
12089
12594
12153
12615
12166
12635
12281
12784
12471
12777
12640
12813
12862
12688
12844
12656
12953
12714
13150
12715
13194
12684
13193
12778
13363
12978
13370
12971
13168
12849
12845
12624
12449
12631
12387
12703
12446
12973
12748
13873
13900
15502
15848
15879
11643
11226
11834
13128
13314
13902
13551
14065
13678
14012
13678
13896
13732
13773
13957
13828
14136
13810
13958
13782
14847
14606
15260
14902
15741
15411
16037
15820
16189
15853
15754
15226
14844
14621
14025
14066
13499
13762
13166
13610
12895
13447
12836
13307
12722
13135
12702
13018
12717
12915
12892
12950
13021
12862
13209
12773
13074
12552
13044
12463
13032
12565
13145
12703
13224
12779
13101
12926
13241
13265
13398
13604
13450
13765
13372
13774
13243
13688
13422
13667
13400
13785
13395
13977
13642
14421
15004
17353
17437
17194
12030
11948
12592
13534
13757
13918
14085
13958
14223
13965
14290
13872
14285
13656
14049
13436
13912
13468
14023
13771
14286
14134
14585
14763
15066
15256
15150
15407
15058
15235
14603
14415
13736
13621
12836
12890
12231
12408
11896
12158
11869
12137
12023
12160
12091
12170
12286
12250
12419
12185
12493
12303
12659
12276
12658
12344
12772
12468
12871
12601
12932
12641
13126
12796
13031
12547
12740
12444
12639
12548
12657
12816
12853
13128
13019
13306
13010
13366
13037
13521
13132
13572
13189
13665
13391
13810
14124
15359
17022
17886
16150
11625
11839
12412
13324
13178
13617
13316
13811
13423
13858
13458
13809
13453
13809
13634
13917
13877
14060
14156
14282
14709
14597
14991
14833
15345
14870
15179
14543
14827
14305
14308
13466
13265
12486
12307
11886
11854
11817
11662
11965
11736
11989
11747
11946
11791
11811
12534
12982
12540
12773
12303
12538
12298
12719
12398
12708
11709
12411
12620
13265
13041
12901
12806
12957
13162
12994
13396
13170
13701
13117
13556
13025
13449
12836
13394
13099
13374
12846
13490
13811
15074
17010
17994
17384
12306
12087
12570
13316
13281
13939
13522
14041
13521
13914
13689
14034
14213
14558
14210
14282
14207
14194
14483
14510
14842
14795
15294
15078
15884
15540
15794
15248
15547
14808
14968
14048
13695
12955
13012
12422
12727
12175
12341
12126
12092
12175
12202
12301
12291
12401
12128
12561
12161
12667
12338
12935
12457
12921
12440
12766
12345
12501
12206
12602
12422
12589
13003
12775
12844
12443
12828
12477
13055
12617
13241
12863
13380
12966
13425
13082
13328
13125
13301
13158
13233
13502
13446
13850
13590
14706
15942
18270
18249
14761
12037
12840
12868
13488
13202
13587
13399
13606
13500
13425
13452
13268
13475
13158
13488
13329
13468
13473
13870
13801
14372
14191
14845
14631
15270
14907
15348
14814
15000
14305
14139
13419
13250
12871
12679
12562
12311
12353
12041
12371
12026
12506
12136
12664
12221
12746
12358
12767
12484
12849
12621
12837
12790
12845
12985
12863
13073
12799
13094
12803
13211
12747
13138
12788
13201
12774
13030
12690
12961
12706
12749
12743
12867
13011
13031
13266
13051
13396
13113
13526
13113
13425
12977
13401
13043
13450
13182
13532
13320
14344
15190
17550
18238
16644
12362
12497
12854
13307
13365
13285
13465
13267
13562
13183
13562
13167
13645
13157
13613
13247
13730
13512
13994
13809
14262
14436
14772
15035
15183
15418
15211
15508
15057
15290
14512
14531
13618
13738
12938
13101
12502
12789
12505
12653
12491
12560
12657
12555
12742
12599
13013
12686
13086
12672
13130
12661
13156
12695
13074
12704
13074
12839
13064
12871
12963
12993
13005
13174
12981
13243
12810
13208
13038
13314
13274
13586
13286
13656
13250
13678
13121
13466
12912
13378
12993
13411
13118
13420
13268
13386
13973
15268
17383
18101
15571
11561
12202
12547
13449
13090
13570
13089
13531
13143
13551
13265
13598
13367
13456
13372
13331
13483
13353
13749
13558
14160
13962
14643
14450
15135
14806
15302
14837
15131
14581
14572
13917
13678
13236
12879
12743
12359
12529
12166
12499
12079
12559
12147
12685
12271
12794
12459
12822
12508
12836
12571
13134
12699
13008
12605
12868
12639
12879
12877
12910
12983
12854
13030
12696
12992
12666
13095
12609
13007
12605
13091
12848
13439
13173
13552
13306
13496
13417
13403
13347
13080
13302
13049
13371
12913
13397
12948
13327
13925
15814
16915
17625
13596
11437
11874
12911
13318
13429
13655
13619
13892
13664
13966
13548
13933
13509
13997
13658
14261
13914
14515
14302
14771
14829
15367
15616
15855
16098
16019
16285
15950
16206
15622
15323
14769
14470
13770
13578
12878
13104
12576
13058
12504
12983
12517
12945
12373
13064
12934
13086
12866
12893
12830
12642
12776
12474
12727
12304
12748
12294
12788
12286
12832
12388
12828
12397
12743
12382
12599
12339
12371
12358
12288
12521
12328
12708
12308
12777
12336
12779
12230
12689
12216
12667
12272
12693
12429
12843
12781
13417
14821
16891
18029
15426
11969
11614
12647
12619
13209
12823
13426
13002
13482
13050
13458
13136
13484
14084
13615
14125
13773
14201
14048
14370
14481
14712
15061
15147
15476
15224
15591
15259
15633
14953
15133
14331
14387
13585
13741
13118
13381
13008
13026
12800
12706
12620
12307
12474
12238
12561
12178
12673
12128
12659
12133
12539
12060
12545
12115
12472
12228
12417
12192
12256
12223
11954
12101
11781
12081
11690
12198
11755
12267
11869
12567
12275
12965
12665
13153
12913
13238
13223
13298
13355
13244
13572
13373
13744
13278
13576
13644
14238
14903
17062
17847
17007
11985
12193
12427
13548
13269
13853
13526
14005
13705
14005
13909
14128
14189
14203
14450
14296
14702
14521
15107
14754
15283
14773
15402
15018
15544
15156
15559
15224
15471
15231
15080
14624
14103
13782
13072
13022
12352
12495
11783
12134
11514
12050
11652
12238
11875
12391
12064
12360
12180
12267
12266
12243
12463
12257
12635
12274
12680
12200
12745
12211
12721
12248
12828
12463
12932
12563
12881
12440
12999
12621
13088
12677
12952
12631
12619
12366
12142
12045
11813
12203
11938
12362
11937
12569
12246
12926
13384
15864
17254
17094
11698
11261
11936
13048
13428
13639
13964
13870
14149
13820
14228
13758
14176
13651
14150
13652
14209
13857
14411
14249
14779
14781
15203
15360
15541
15658
15472
15601
15136
15256
14464
14422
13513
13569
12676
12836
12141
12436
11918
12149
11928
12150
12138
12285
12434
12301
12554
12379
12770
12676
12838
12798
12952
12635
12945
12648
13118
12672
13182
12732
13247
12787
13203
12769
13113
12750
12892
12747
12939
13150
13189
13352
13105
13465
13106
13453
12949
13357
12802
13250
12734
13168
12788
13202
12924
13461
14263
16429
18027
16140
11584
11377
12646
12948
13453
13068
13611
13110
13601
13145
13639
13354
13749
13461
13750
13620
13747
13823
13871
14198
14196
14752
14644
15269
14974
15551
15097
15539
14968
15289
14620
14657
13931
13749
12966
13192
12586
12891
12456
12674
12501
12682
12651
12653
12781
12587
12874
12583
12978
12594
13030
12574
13046
12578
13081
12687
13150
12815
13051
12851
13000
12982
12942
13045
12748
12944
12661
13167
12953
13543
13127
13687
13229
13630
13163
13496
13024
13260
13086
13263
13304
13326
13586
13413
14240
15215
17728
18346
15293
11335
12274
12610
13417
13020
13454
13213
13589
13477
13698
13693
13735
13925
13795
14096
13879
14360
14332
14614
14641
14993
14860
15390
15157
15735
15342
15830
15287
15621
14870
14915
14129
14007
13411
13334
13077
12999
13024
12873
13037
12715
13056
12753
13169
12711
13192
12717
13121
12666
13027
12589
12837
12592
12730
12591
12589
12646
12509
12759
12504
12826
12404
12813
12323
12938
12742
13326
12989
13443
13068
13356
13032
13057
12867
12865
12883
12718
12998
12800
13271
12785
14230
15848
18129
17602
12899
10701
12013
12467
13219
12891
13497
13084
13560
13224
13646
13442
13736
13636
13817
13908
13906
14192
14005
14405
14183
14741
14527
15196
14846
15317
14861
15279
14828
15115
14659
14595
14106
13873
13530
13156
13117
12700
12918
12562
12909
12496
12941
12420
12901
12489
12904
12496
12842
12524
12698
12510
12592
12559
12364
12470
12254
12621
12358
12845
12476
13037
12619
13111
12638
13028
12557
12872
12578
12789
12683
12779
12788
12793
12962
13716
15797
17376
17471
11805
11025
11778
12791
12841
13293
13029
13588
13168
13638
13224
13762
13437
13861
13573
13935
13811
14058
14103
14234
14502
14520
15006
14942
15467
15123
15536
15031
15419
14785
14937
14110
14073
13352
13310
12861
12773
12559
12423
12474
12249
12524
12283
12676
12348
12858
12450
12918
12466
12987
12568
12965
12631
12881
12585
12701
12648
12664
12840
12793
13112
12867
13166
12684
13045
12548
12982
12511
12954
12509
12903
12650
13279
12897
13835
14746
17428
18593
16632
11297
11685
12345
12939
13180
13113
13485
13304
13653
13280
13687
13268
13744
13292
13775
13383
13856
13610
14134
14136
14562
14768
15033
15288
15264
15505
15192
15431
14907
15101
14328
14381
13498
13602
12881
13096
12525
12730
12408
12560
12489
12536
12575
12478
12758
12531
12886
12535
12951
12537
13027
12597
13062
12611
12949
12561
12863
12626
12888
12915
13008
13138
13014
13159
12784
13049
12822
12878
12778
12918
12679
13034
12780
13296
12749
13947
15260
18382
19117
14971
11652
12405
12709
13159
13090
13203
13255
13157
13321
13073
13421
13119
13572
13233
13779
13403
14022
13739
14301
14093
14619
14609
15019
15000
15120
15171
15049
15120
14714
14703
13924
13888
13082
13179
12515
12801
12269
12646
12210
12531
12281
12475
12318
12404
12489
12452
12675
12448
12741
12384
12803
12460
12966
12523
12958
12489
12892
12523
12786
12407
12972
12624
13227
12885
13317
13014
13297
13117
13188
13082
12946
13084
12895
13192
12900
13360
12984
13420
12968
14284
16149
19221
18270
13225
11895
12624
12903
13073
13095
13091
13189
13013
13312
12995
13375
13015
13519
13147
13693
13356
13930
13669
14132
13999
14433
14467
14749
14898
14916
15056
14791
14987
14472
14501
13693
13698
12883
13049
12388
12647
12180
12502
12233
12522
12448
12595
12587
12562
12740
12590
12875
12560
12918
12721
12866
12649
12908
12587
12900
12476
12880
12447
12909
12450
12944
12593
12976
12602
12956
12801
13105
13189
13237
13419
13281
13566
13254
13593
13174
13532
13062
13513
13061
13521
13167
13718
13294
14226
15753
18459
19025
14597
12195
12399
13235
13094
13421
13032
13450
12986
13450
13019
13501
13108
13520
13192
13507
13351
13560
13613
13731
14044
14101
14589
14560
15172
14933
15409
14942
15381
14714
14832
14045
13958
13213
13147
12431
12765
12229
12574
12188
12465
12223
12428
12379
12420
12480
12319
12557
12308
12657
12329
12796
12407
12938
12451
12916
12526
12996
12681
13032
12794
13002
12961
12971
13035
12897
13122
12880
13281
12905
13318
12943
13485
13162
13758
13397
13763
13404
13722
13495
13582
13383
13293
13373
13194
13339
13032
13380
13090
13577
13907
16170
17785
18318
13321
12281
12575
13510
13439
13651
13611
13635
13680
13476
13695
13475
13894
13563
13875
13832
14024
13852
14324
14088
14651
14371
15052
14765
15331
14981
15392
14933
15098
14640
14501
13988
13635
13288
12780
12702
12227
12462
11956
12339
11943
12471
12084
12616
12247
12717
12329
12670
12537
12756
12674
12693
12772
12689
13043
12761
13090
12663
13099
12642
13129
12636
13138
12658
13083
12739
13104
12937
13206
13143
13119
13201
13074
13383
13186
13716
13275
13828
13331
13932
13338
13867
13154
13565
13083
13427
13160
13617
13190
13698
13956
15787
17249
17907
14303
10724
11515
12208
13068
12881
13351
12973
13550
13091
13641
13085
13645
13131
13678
13227
13646
13403
13739
13756
13909
14159
14141
14626
14561
15160
14776
15381
14768
15219
14463
14750
13791
13941
13161
13209
12649
12719
12512
12439
12543
12351
12664
12334
12860
12375
12957
12412
13100
12482
13112
12560
13087
12571
12944
12589
12777
12697
12712
12828
12636
12969
12622
13190
12686
13287
12964
13275
12923
13402
12867
13462
12861
13582
13105
13889
13349
14025
13509
13922
13468
13711
13428
13432
13466
13282
13614
13299
13853
13210
14778
16017
18297
17673
13789
11041
12520
12872
13818
13510
13836
13657
13641
13682
13485
13786
13457
13961
13415
14023
13430
14154
13555
14325
13816
14562
14175
14873
14656
15067
14952
15042
15110
14856
14918
14224
14284
13308
13496
12466
12839
11946
12518
11785
12310
11816
12347
12069
12401
12086
12837
12342
12837
12433
12792
12665
12804
12908
12802
13078
12758
13210
12743
13385
12755
13378
12663
13368
12753
13360
12756
13226
12787
13085
12834
12812
12748
12461
12739
12356
12978
12604
13326
12787
13552
12897
13522
12799
13313
12664
13101
12724
13027
12924
13076
13277
13285
14582
16335
18462
16919
12413
11250
12714
12720
13492
12849
13465
12950
13454
13168
13459
13340
13438
13544
13350
13712
13360
14004
13625
14472
14113
15124
15108
15834
15535
16195
15622
16213
15412
15851
14843
14964
13949
13991
13272
13362
12998
12912
12897
12710
12987
12607
13075
12598
13177
12469
13014
12220
12796
12168
12753
12249
12797
12470
12756
12598
12664
12687
12402
12661
12200
12698
12127
12841
12196
12889
12102
12809
12124
12804
12355
12891
12523
12897
12963
13157
13506
13415
13871
13477
14060
13425
13945
13141
13709
12860
13503
12792
13350
12870
13407
12992
13940
15678
17843
16487
11908
11241
12150
12513
12634
12633
12470
12727
12548
12985
12535
13034
12571
13091
12515
12953
12403
12817
12462
12881
12859
13360
13659
14160
14605
14816
15292
15179
15523
15066
15243
14604
14717
13946
13994
13304
13476
13053
13232
12938
13070
12976
13052
13204
13182
13415
13279
13558
13237
13552
13241
13620
13354
13837
13626
14015
13690
13807
13608
13681
13589
13596
13600
13534
13701
13504
13704
13360
13662
13408
13782
13555
13883
13605
13870
13500
13654
13204
13407
12986
13240
12997
13254
13138
13283
13227
13216
14013
15316
17369
17757
14153
11039
11926
12386
13067
12873
13227
12999
13298
13054
13214
13051
13192
13141
13155
13233
13226
13480
13425
13762
13660
14114
14111
14625
14714
15300
15136
15408
15204
15412
15156
14937
14461
14036
13673
13239
13089
12742
12881
12554
12767
12493
12765
12482
12777
12574
12853
12704
12970
12909
13050
13040
13045
13075
13072
12953
13109
13039
13087
13103
12963
12968
12695
12864
12637
12838
12576
12951
12757
13117
12897
13176
12935
13116
13011
13146
13115
13140
13233
13154
13360
13303
13437
14280
16633
18016
18598
13201
11511
11903
12808
12910
13148
13042
13171
13107
13156
13282
13266
13495
13346
13751
13593
13991
13729
14163
13992
14496
14420
15049
15092
15538
15508
15648
15575
15534
15447
14967
14723
13942
13705
12962
12952
12397
12649
12163
12508
12120
12561
12301
12772
12491
13049
12778
13280
13056
13448
13301
13508
13409
13446
13557
13348
13457
13162
13438
12976
13387
12916
13434
13008
13651
13241
13660
13357
13643
13294
13345
13210
13115
13232
12952
13133
12724
13135
12790
13259
13591
16086
17486
17850
12230
11370
11679
12707
12661
12847
12849
12797
12893
12700
13034
12677
13101
12636
13253
12777
13378
13039
13709
13329
13954
13832
14353
14285
14552
14629
14697
14833
14565
14326
14243
13765
13259
12946
12490
12669
12179
12476
11957
12504
12063
12623
12119
12727
12242
12685
12353
12773
12564
12685
12649
12630
12746
12608
12933
12498
12955
12500
13083
12509
13094
12498
12950
12505
12979
12633
13082
12987
13167
13280
13258
13381
13127
13452
13027
13507
13021
13651
13124
13697
13269
13714
13892
15983
17805
18669
14085
11663
12207
12786
13249
12980
13419
13034
13548
13045
13641
13059
13711
13216
13820
13361
14058
13599
14297
13781
14617
14161
14867
14792
15288
15115
15234
15204
15000
15036
14417
14382
13552
13745
12917
13278
12528
13090
12501
13115
12572
13021
12660
12955
12790
12961
13051
12914
13153
12833
13273
12769
13271
12683
13229
12547
13121
12509
13065
12587
13035
12670
12981
12752
12879
12843
12666
12971
12646
13218
12860
13463
12933
13546
12864
13398
12735
13270
12726
13128
12752
13008
12903
13034
13183
13090
14178
15813
17986
15564
11439
11591
12607
12853
13379
12974
13631
13105
13739
13116
13784
13237
13847
13377
13852
13508
13878
13805
13949
14063
14061
14525
14411
15041
14702
15311
14746
15317
14606
15057
14126
14265
13436
13537
12855
12850
12507
12435
12426
12188
12437
12110
12635
12166
12724
12187
12900
12314
12945
12307
12864
12427
12991
12694
12942
12859
12828
12882
12682
13002
12627
13148
12633
13208
12641
13292
12632
13227
12655
13251
12895
13521
13271
13802
13319
13949
13368
13702
13176
13306
13114
13167
13228
13094
13399
13101
13530
13873
16484
17595
17604
11946
11818
11968
13265
13019
13574
13305
13575
13483
13545
13629
13428
13719
13350
13826
13334
13980
13451
14194
13696
14480
14039
14813
14558
15155
14996
15206
15061
14972
14950
14452
14347
13497
13571
12740
13062
12223
12730
12022
12612
12007
12530
12057
12436
12209
12463
12447
12456
12592
12395
12782
12372
12843
12291
12869
12526
12890
12539
13013
12496
13045
12398
12989
12377
13070
12485
12998
12538
12949
12606
12783
12785
12893
13190
13052
13407
13031
13554
13052
13639
13020
13625
12955
13594
13019
13544
13149
13593
13313
13914
14925
17091
18305
16070
12012
11706
13002
13020
13748
13131
13871
13303
13948
13440
14021
13627
14045
13859
14031
14035
14062
14322
14176
14713
14448
15172
14810
15628
15181
15950
15291
15859
15149
15428
14639
14552
13907
13644
12837
13183
12602
12847
12431
12534
12407
12312
12470
12244
12665
12294
12893
12350
13031
12402
13047
12395
12933
12334
12803
12341
12738
12508
12659
12632
12539
12708
12411
12847
12446
13023
12499
13168
12537
13218
12593
13197
12685
13195
12728
13093
12919
13215
13278
13218
13503
13206
13630
13126
13631
12920
13425
12820
13507
12920
13570
13186
13668
13811
15216
17058
17928
15321
11393
11958
12422
13311
12853
13449
12973
13668
13059
13728
13367
13945
13353
14046
13453
14154
13592
14230
13734
14388
14142
14686
14678
14988
15070
14925
15058
14610
14799
14030
14233
13205
13377
12351
12725
11938
12464
11921
12441
12113
12466
12312
12379
12459
12408
12639
12380
12860
12384
12934
12370
13006
12368
13002
12373
12938
12393
12840
12448
12726
12558
12690
12769
12663
12915
12555
13047
12584
13137
12547
13251
12669
13320
12635
13287
12849
13431
13174
13428
13348
13430
13523
13584
13145
13296
12971
13053
13119
13005
13293
13076
13462
13840
16121
17321
18104
13078
11611
11809
13258
13121
13632
13320
13632
13522
13653
13762
13668
14052
13786
14313
13905
14593
14110
14813
14302
15111
14655
15426
15086
15657
15393
15692
15449
15371
15305
14864
14851
13982
14015
13112
13361
12436
12866
12056
12582
11928
12452
11952
12389
12070
12342
12283
12358
12542
12404
12766
12356
12914
12434
13078
12450
13146
12577
13215
12561
13155
12531
13205
12570
13286
12720
13296
12802
13262
12861
13069
12973
13043
13251
13067
13417
13076
13619
13135
13649
12995
13532
12815
13489
12942
13542
13148
13695
13242
14358
16015
18060
18531
13978
11691
12025
13324
13122
13695
13128
13880
13293
13940
13384
14022
13645
14101
13791
14030
13999
14032
14236
14144
14691
14467
15197
14866
15653
15165
15895
15205
15711
14978
15300
14504
14522
13785
13608
13184
12912
12878
12524
12411
12597
12437
12440
12540
12363
12687
12275
12761
12266
12905
12340
13049
12450
13071
12489
13080
12596
12993
12718
12949
12862
12831
12959
12768
13170
12761
13250
12666
13208
12554
13278
12698
13438
12952
13514
13067
13449
13158
13260
13077
12905
13004
12698
13062
12599
13169
12753
13389
13326
15336
16964
18484
14849
11386
11399
12658
12920
13098
13114
13074
13252
13060
13450
12998
13621
13069
13730
13129
13848
13356
14077
13641
14254
13997
15021
14680
15541
15160
15755
15316
15563
15155
15088
14671
14197
14020
13368
13441
12725
13087
12390
12903
12235
12908
12254
12899
12435
12962
12550
12886
12700
12846
12833
12758
13035
12729
13099
12587
13215
12634
13290
12666
13338
12754
13450
12938
13354
12876
13187
13011
13145
13290
13244
13451
13113
13584
13047
13577
12925
13551
12944
13646
13046
13625
13090
13614
13036
14217
15901
17834
18150
13505
11010
11551
12810
12865
13313
13363
13499
13300
13635
13221
13641
13136
13666
13193
13803
13344
13835
13429
13929
13756
14164
14221
14573
14782
14880
15074
14876
15058
14580
14734
13983
13873
13001
13059
12317
12521
12094
12319
11989
12192
12120
12203
12240
12227
12393
12237
12573
12365
12734
12494
12958
12636
13090
12768
13125
12783
13071
12783
12943
12871
12846
12957
13025
13299
13280
13625
13345
13618
13226
13404
13015
13277
12897
13084
12718
12900
12933
13270
14067
16475
17942
18431
13148
11434
12136
12832
13232
13220
13400
13308
13537
13332
13634
13420
13728
13461
13799
13574
13926
13811
14128
14105
14437
14545
14770
15039
15149
15439
15315
15573
15188
15301
14679
14605
13784
13739
13060
13035
12516
12576
12311
12411
12387
12376
12544
12489
12730
12553
12785
12473
12751
12454
12825
12529
12875
12568
12925
12667
12853
12650
12683
12592
12558
12668
12601
12923
12913
13237
12991
13354
13028
13144
12870
13028
12743
13030
12713
13115
12818
13260
12778
13792
15253
17791
18855
15114
11422
11867
12502
12799
13103
12932
13219
13002
13331
13004
13422
13189
13554
13243
13558
13380
13684
13600
13853
13925
14074
14311
14407
14799
14685
14941
14651
14944
14401
14466
13725
13653
12933
12884
12392
12513
12367
12464
12433
12373
12450
12356
12608
12422
12700
12388
12805
12528
12959
12666
13016
12696
12974
12684
12897
12769
12840
12691
12959
12664
12900
12791
12980
13093
13163
13284
13189
13387
13141
13358
12993
13268
12935
13280
12956
13264
13022
13324
13077
13342
14301
16714
18839
18120
12702
11722
12498
12800
13260
13016
13436
13159
13536
13211
13567
13314
13605
13376
13571
13451
13556
13663
13736
13968
13931
14373
14379
14907
14811
15224
14900
15177
14743
14856
14214
14032
13308
13088
12648
12509
12365
12248
12340
12137
12354
12107
12443
12216
12621
12407
12796
12619
12886
12584
12820
12443
12748
12407
12726
12477
12712
12482
12649
12525
12616
12604
12490
12652
12562
12861
12781
13198
12991
13284
12977
13301
12884
13113
12745
12992
12814
12977
12939
13035
13146
13000
13655
14975
17674
19039
16657
11991
12365
12631
13346
13098
13460
13267
13567
13391
13572
13535
13608
13694
13663
13854
13770
14124
13986
14398
14275
14819
14710
15218
15049
15482
15271
15465
15179
15138
14861
14492
14079
13548
12984
12851
12571
12508
12437
12345
12500
12373
12621
12384
12668
12452
12859
12689
13090
12814
13138
12903
13112
12931
13022
12896
12922
12961
12816
12954
12773
12939
12655
12816
12539
12886
12698
13157
12938
13270
12964
13128
12952
12982
12850
12762
12813
12712
12828
12705
12978
12850
13007
13324
15233
17474
19225
15873
12045
11989
12747
12980
13132
13156
13172
13164
13045
13245
13118
13432
13269
13649
13439
13820
13639
14040
13946
14480
14455
14990
14955
15459
15326
15630
15344
15432
15130
14913
14403
13959
13606
13156
13038
12625
12742
12428
12702
12367
12747
12477
12850
12595
12862
12623
12816
12688
12801
12774
12724
12838
12710
12955
12721
