12916
12904
13160
12766
13132
12618
13038
12566
13057
12609
13015
12552
12868
12554
12797
12658
12676
12702
12625
12844
12576
12939
12584
13029
12608
13077
12568
13063
12634
13271
12994
13375
13075
13287
13173
13171
13141
12882
13069
12836
13267
12944
13491
13130
13810
13968
15291
16232
16989
14829
11784
11819
12734
13149
13259
13415
13323
13640
13384
13767
13380
13846
13410
13927
13507
14045
13720
14209
13945
14363
14283
14658
14824
15071
15160
15560
15253
15377
15125
14945
14645
14035
13781
13134
13167
12530
12800
12210
12585
12101
12620
12242
12701
12361
12698
12496
12650
12562
12524
12636
12484
12745
12491
12881
12469
12912
12385
12928
12491
12903
12415
12781
12389
12621
12464
12647
12706
12832
13041
12946
13241
12867
13177
12634
13093
12590
13106
12594
13068
12646
13035
12883
13547
14516
16190
16414
14961
10858
10761
11970
12333
13047
12691
13313
12930
13483
13087
13646
13287
13731
13191
13710
13238
13867
13527
14032
13819
14265
14307
14671
14830
14874
15010
14760
14983
14574
14873
14157
14314
13455
13661
12897
13162
12595
12882
12481
12731
12576
12677
12703
12618
12848
12642
12993
12596
13021
12544
13078
12632
13125
12656
13104
12658
12897
12534
12746
12605
12562
12456
12303
12602
12332
12775
12527
13098
12734
13334
12888
13377
12905
13341
12951
13264
13001
13224
13111
13228
13547
14029
15198
17027
16777
13435
11511
12136
13089
13184
13647
13289
13735
13267
13793
13260
13711
13258
13739
13396
13787
13608
13827
13776
13932
14224
14241
14684
14582
15126
14848
15350
14888
15359
14704
14919
14180
14177
13388
13331
12871
12819
12601
12519
12565
12397
12689
12346
12736
12329
12897
12426
12898
12444
12910
12507
12890
12551
12820
12567
12649
12637
12605
12694
12537
12853
12508
12915
12482
12882
12414
12966
12572
13174
12882
13300
12942
13505
13045
13383
12860
13210
12910
13183
12924
13044
13065
13108
13421
13945
15174
16174
16651
13611
11571
11701
12945
12933
13520
13182
13603
13312
13490
13294
13406
13438
13367
13584
13418
13788
13555
14063
13785
14361
13978
14668
14488
15125
14907
15320
14995
15151
14873
14726
14405
13885
13702
13127
13146
12618
12878
12368
12799
12310
12708
12279
12718
12335
12628
12405
12628
12521
12534
12575
12460
12662
12404
12736
12323
12624
12575
12766
12539
12861
12500
12817
12251
12742
12353
12949
12703
13186
12908
13273
13025
13214
13060
12968
12937
12818
13009
12759
13165
12823
13392
13121
14523
15358
16905
16150
12765
11102
12201
12705
13135
13184
13264
13438
13328
13589
13391
13781
13395
13854
13407
13925
13544
14106
13763
14213
14013
14466
14496
14831
14966
15038
15221
15011
15219
14783
14965
14236
14303
13432
13558
12861
13122
12561
12732
12352
12614
12515
12845
12441
12805
12470
12825
12657
12791
12732
12725
12890
12703
13003
12643
13015
12571
12992
12546
13032
12601
13181
12905
13425
13173
13417
13213
13234
13114
13014
13084
12846
13131
12798
13240
12865
13451
13325
15085
16389
16956
15444
11164
10649
11937
12537
13044
13199
13173
13392
13129
13403
12975
13442
13040
13594
13212
13764
13359
13863
13620
14072
13988
14325
14397
14621
14862
14832
15046
14665
14892
14357
14551
13768
13816
12986
13071
12528
12810
12243
12614
12018
12425
11956
12443
12113
12487
12249
12550
12593
12655
12752
12651
12911
12701
13069
12722
13164
12700
13159
12637
13148
12684
13076
12601
12879
12655
12832
12827
12927
13119
12993
13219
12880
13229
12788
13209
12796
13297
12760
13203
12848
13434
13289
14373
15311
16982
16961
13859
11745
12133
13086
13068
13604
13209
13713
13217
13789
13339
13843
13383
13818
13499
13771
13649
13832
13867
13885
14160
14496
14503
14833
14914
14987
15167
14870
15033
14530
14698
13862
13970
13110
13334
12575
12801
12286
12677
12269
12564
12408
12530
12540
12529
12754
12618
12743
12385
13021
12603
13060
12527
13031
12521
13017
12548
12965
12651
12975
12803
12832
12873
12794
13002
12835
13286
12991
13508
13068
13496
12954
13353
12915
13374
13042
13414
13219
13456
13462
13771
14576
15671
17349
16983
13703
11774
12872
13215
13801
13395
13837
13448
13877
13584
14067
13711
14165
13796
14192
13811
14202
14025
14275
14293
14521
14693
14754
15139
14999
15322
14960
15262
14750
15025
14250
14326
13488
13547
12875
12907
12446
12516
12335
12311
12358
12202
12319
11998
12387
12011
12450
11998
12551
12123
12576
12087
12568
12239
12581
12407
12514
12414
12521
12659
12503
12629
12250
12603
12287
12919
12522
13007
12496
13035
12663
13007
12547
12783
12658
12869
12789
12809
12965
12878
13375
13876
15812
16692
15637
11352
11502
12057
13102
12916
13432
13050
13496
12987
13493
13063
13496
13211
13556
13370
13568
13638
13714
13918
13818
14197
14099
14722
14508
15092
14750
15239
14688
15032
14564
14775
14079
13970
13432
13273
13058
12855
12905
12592
12869
12583
12980
12576
13028
12619
13151
12727
13188
12734
13096
12807
13030
12831
12898
12841
12705
12885
12724
13086
12819
13337
12987
13524
13086
13558
13066
13390
12856
13139
12842
13284
12912
13379
12985
13501
13433
14761
16302
16803
16095
11612
10984
11844
12912
12995
13515
13167
13739
13365
13892
13425
13885
13351
13632
13298
13555
13407
13552
13647
13680
14045
14001
14475
14221
14819
14505
15070
14568
14975
14357
14526
13720
13659
13052
12934
12591
12480
12403
12148
12328
12021
12304
11942
12502
12135
12695
12247
12804
12430
12922
12530
12916
12718
12963
12882
12900
12928
12784
13045
12760
13102
12630
13026
12702
13026
12874
13335
13041
13494
13041
13509
12951
13325
12759
13195
12858
13169
12955
13217
13277
13462
14162
14871
16641
16834
15147
11520
12267
12510
13459
13131
13686
13279
13692
13403
13754
13546
13707
13723
13721
13895
13750
14071
13807
14268
13874
14462
14143
14818
14537
15129
14796
15181
14813
15014
14636
14420
13995
13550
13372
12886
12875
12404
12703
12219
12590
12146
12649
12267
12802
12409
12830
12571
12842
12696
12867
12714
13205
12907
13213
12969
13149
13128
13046
13189
12899
13166
12871
13234
12915
13493
13115
13654
13218
13672
13226
13590
13178
13437
13186
13298
13258
13244
13504
13417
14090
14443
16333
17043
16611
12101
12102
12351
13349
13098
13453
13253
13520
13327
13352
13404
13290
13476
13302
13661
13314
13811
13421
14021
13669
14335
14107
14807
14602
15142
15010
15263
15131
15076
14985
14635
14478
13817
13730
13029
13230
12591
12948
12379
12817
12351
12889
12446
12906
12451
12945
12431
12882
12467
12775
12491
12722
12561
12589
12708
12625
12860
12615
12982
12557
12943
12331
12864
12394
13032
12752
13290
12946
13266
13047
13172
13037
12922
12985
12892
13147
12876
13326
13016
13641
13455
14777
15633
17246
16321
12723
11515
12555
12975
13382
13452
13510
13666
13435
13730
13299
13641
13172
13709
13274
13847
13379
13939
13590
14068
13900
14325
14333
14614
14838
14897
15046
14797
14755
14787
14508
14165
13909
13491
13484
12904
13164
12675
13064
12552
13170
12690
12986
12648
13032
12773
13095
12871
12837
12760
12714
12830
12651
12956
12579
12775
12294
12410
12237
12807
12482
13021
12670
12524
12554
13066
12938
12814
12599
12807
12996
12791
12908
12810
13279
13051
13943
14821
16886
16417
15241
10544
11352
12075
13010
13245
13561
13576
13391
13647
13462
13823
13471
13936
13460
13904
13527
14051
13612
14282
13911
14574
14272
15042
14759
15305
14982
15336
14901
15030
14561
14380
13964
13488
13340
12719
12887
12303
12700
12099
12598
11995
12529
11985
12497
12041
12484
12091
12343
12160
12217
12233
12099
12354
12008
12438
12049
12660
12132
12782
12152
12796
12233
12768
12391
12927
12688
13087
13050
13120
13239
12971
13199
12857
13457
12958
13549
12885
13498
12955
14147
14595
16944
17025
15178
11457
12083
12777
13297
13600
13600
14016
13603
14205
13751
14143
13725
14414
13765
14574
13702
14592
13781
14670
13967
14866
14373
15118
14801
15257
15174
15182
15129
14704
14877
14011
14264
13114
13656
12495
13223
11973
12438
11475
12232
11607
12246
11880
12266
12255
12474
12775
12439
12878
12366
13056
12314
13104
12200
13094
12211
13021
12152
12859
12224
12811
12506
12903
12906
12925
13222
12908
13401
12815
13519
12645
13480
12608
13557
12713
13626
13023
14396
14645
16989
17078
14615
11119
12761
12814
13578
13233
13657
13587
13615
13834
13555
14091
13528
14291
13496
14407
13558
14618
13926
14899
14183
15084
14667
15381
15268
15621
15597
15497
15628
15028
15352
14334
14665
13455
13995
12888
13541
12444
13123
12285
12917
12382
12861
12629
12804
12841
12718
13097
12719
13352
12693
13526
12660
13506
12492
13287
12410
13158
12442
13097
12651
13096
12873
12965
13005
12728
13006
12455
13097
12354
13157
12335
13265
12398
13469
13905
16366
16204
16362
11584
10417
10735
12441
12346
13126
12679
13180
13046
13188
13301
13196
13678
13176
13884
13297
14196
13389
14403
13680
14583
13884
14841
14383
15146
14763
15096
14891
14832
14785
14210
14240
13278
13559
12508
13078
12018
12763
11882
12690
11882
12600
11997
12590
12225
12583
12624
12727
13002
12652
13125
12525
13198
12342
13038
12124
13013
12179
13050
12352
13084
12630
13180
12923
13036
12900
12689
12900
14085
14976
14044
15771
16390
17924
16427
13387
10337
11981
12299
13101
13113
13167
13359
13093
13546
12949
13561
12880
13725
12912
13866
13174
14070
13395
14287
13865
14604
14424
14925
15058
15150
15356
14956
15297
14527
14850
13722
14130
12878
13426
12358
13030
12194
12844
12261
12738
12434
12584
12537
12426
12760
12323
12850
12267
13004
12215
13089
12278
13105
12187
12965
12253
12941
12479
13004
12861
13077
13153
13036
13257
12725
13216
12968
13034
12968
13271
12897
13466
12984
14055
14244
16592
16369
16502
11410
11501
11690
13060
12828
13291
13115
13298
13352
13200
13542
13146
13780
13171
13981
13198
14142
13370
14363
13713
14642
14143
14923
14676
15262
15137
15210
15240
14925
15138
14244
14396
13299
13730
12586
13239
12224
12976
12166
12831
12186
12762
12328
12633
12486
12569
12792
12504
12951
12452
13131
12413
13226
12304
13152
12321
13144
12401
13147
12534
12978
12336
13291
12523
13347
12857
13487
13134
13428
13275
13242
13387
13061
13463
12869
13524
12818
13627
12889
13893
13775
15580
16296
17163
14152
11642
11872
12835
13190
13176
13432
13144
13641
13057
13808
13029
13885
13044
13938
13168
14054
13421
14216
13814
14440
14347
14762
15004
15059
15465
15130
15650
14921
15563
14490
14933
13603
14076
12862
13350
12433
12982
12420
12832
12606
12783
12881
12741
13046
12530
13107
12453
13239
12381
13023
12696
13269
12649
13368
12532
13404
12486
13344
12504
13305
12525
13151
12603
13064
12766
13013
13166
13044
13340
12844
13412
12688
13399
12472
13284
12395
13295
12488
13342
12653
13528
13442
14453
15611
17124
16540
12574
12022
12245
13484
12996
13944
13109
14070
13170
13934
13114
13958
13301
13759
13284
13713
13606
13752
13946
13801
14433
14080
14966
14468
15471
14723
15628
14706
15472
14487
14976
14040
14278
13523
13563
13302
13629
12893
13377
12818
13319
13173
13178
13350
13114
13594
13151
13985
13340
14285
13562
14515
13783
14832
14304
15208
14874
15866
15774
16401
16640
17070
17646
17820
18747
18740
19758
19435
20509
20075
21374
20842
21810
21223
22047
21744
22177
21804
21843
21491
21297
21365
20941
21211
20486
21100
20764
21889
22410
23484
20579
18437
18090
19195
18918
19289
18995
18986
19000
18866
19057
18668
19137
18609
19393
18861
19750
18983
19992
19639
20503
20051
21267
20967
22334
22074
23302
22949
23840
23444
23936
23531
23477
23159
22856
22909
22379
22778
22027
22595
21790
22484
21550
22231
21316
21837
21007
21458
20779
20961
20442
20325
20245
19799
19837
19081
19400
18517
19034
18043
18616
17578
18181
17110
17598
16698
17051
16411
16602
16268
16198
16116
15650
15734
14942
15310
14353
14890
13916
14508
13481
14128
13354
14504
14995
16671
15801
14089
10084
10551
11482
11779
12014
12341
12177
12163
12117
11812
12169
11575
12099
11397
12050
11199
12033
11215
12027
11423
12209
11780
12423
12234
12566
12416
12306
12375
11882
12019
11022
11237
10095
10525
9393
9981
9146
9830
9093
9628
9059
9519
9228
9427
9397
9306
9565
9256
9817
9219
9975
9264
10048
9312
10047
9268
9876
9151
9645
9158
9468
9255
9413
9655
9576
10130
9672
10298
9638
10338
9612
10552
9843
10670
10016
10832
10341
11008
11284
12852
13945
13380
9941
8395
9067
10162
10589
10766
10989
10878
11459
11107
11826
11152
11944
11210
12004
11274
12114
11488
12275
11829
12466
12269
12666
12790
12869
13192
12925
13476
12989
13537
12559
12972
11866
12411
11431
11996
11032
11489
11002
11454
11179
11317
11385
11393
11704
11307
11845
11324
12044
11365
12154
11125
11703
10800
11461
10774
11383
11044
11652
11502
11638
11635
11324
11526
11047
11621
10981
11712
10869
11813
10977
11703
10928
11641
11023
11942
11216
12051
11248
12018
11506
12671
13235
14864
14570
13658
9883
9907
11130
11392
12272
11662
12448
11812
12631
11818
12663
11889
12616
12029
12654
12267
12709
12717
12861
13013
12855
13344
13002
13762
13233
14162
13475
14348
13578
14291
13415
13805
12949
13086
12569
12736
12560
12565
12655
12293
12621
12016
12713
12104
12971
12216
13068
12444
13282
12656
13396
13120
13680
13359
13507
13463
13311
13546
13127
13546
12880
13195
13158
13226
12985
13594
13127
13727
12935
13821
13152
14030
13223
14028
13370
13926
13302
13644
13275
13533
13668
13692
13899
13584
14204
14158
15625
16202
17327
15453
12568
11608
12881
12645
13251
12667
13070
12830
12990
13007
12818
13057
12707
13477
13031
13812
13093
13939
13268
14192
13612
14519
14145
14964
14686
15025
14788
14724
14659
14117
13985
12946
13086
12022
12528
11543
12129
11140
11905
11153
11745
11068
11510
11092
11537
10791
11565
10943
11424
11022
11388
11175
11335
11496
11416
11935
11637
12355
11767
12656
11988
12803
11893
12551
11768
12415
11658
12066
11607
11802
11565
11578
11747
11411
11900
11388
12006
11345
12042
11287
12203
11549
12397
11742
12532
12065
12634
12504
12962
13297
14117
15279
16084
16610
13451
12162
11975
13378
12981
13922
13302
14136
13538
14270
13851
14352
14029
14175
14224
14118
14404
14019
14665
14262
15255
14689
15751
15510
16229
15781
16461
15637
16362
15480
16011
14865
15023
13890
14012
13138
13275
12817
12807
12669
12460
12690
12376
12896
12436
13016
12303
13186
12424
13216
12381
13156
12834
13669
13393
13858
13742
13869
13925
13597
13759
13158
13509
12743
13358
12512
13201
12397
13232
12505
13033
12305
12788
12479
12793
12798
12814
12903
12747
13225
12864
13451
12841
13600
12898
13809
13203
14109
13465
14336
13999
15215
15589
17142
17383
16079
13223
13542
13572
13968
13790
13808
13915
13704
14112
13715
14262
13641
14408
13645
14474
13759
14451
13786
14465
13983
14531
14360
14695
14722
14712
14929
14649
14952
14207
14486
13248
13451
12024
12484
11477
12054
11280
11907
11410
11878
11630
11855
11858
11750
12020
11713
12308
11771
12534
11897
12743
12015
12865
12212
13019
12465
13078
12652
13087
12905
13116
13207
13158
13521
13228
14007
13598
14420
13697
14459
13672
14450
13616
14135
13397
14267
13632
14467
13708
14417
13734
14294
13735
14028
13792
13775
13682
13200
13230
13015
13320
13418
14146
15193
16742
15386
12191
11028
11960
11900
12332
11910
12261
12081
12073
11890
11953
12115
12073
12453
12212
12604
12303
13003
12883
13604
13286
13974
13872
14450
14338
14722
14640
14822
14642
14451
14382
13971
13792
13091
13120
12484
12828
12313
12849
12576
13105
12682
13030
12793
12998
12745
12732
12648
12420
12478
12098
12190
12376
12409
12326
12410
12049
12275
11895
12448
12166
12776
12380
12833
12429
12895
12582
12909
12714
12991
12962
13156
13348
13427
13806
13720
14023
13610
13989
13471
13859
13468
13997
13649
14109
13825
14308
14735
15964
17215
17395
15694
12008
12623
13054
13924
13666
14105
13753
14266
13894
14495
14186
14669
14487
14957
14869
15058
15029
15131
15271
15102
15436
15317
15844
15712
16335
16014
16389
15794
15989
15342
15242
14472
14216
13422
13518
12866
13067
12609
12861
12657
12778
12632
12554
12674
12508
12716
12433
12691
12243
12601
12147
12596
12089
12461
12029
12342
11993
12340
12263
12414
12402
12551
12886
12808
13235
13002
13337
12983
13348
12864
13351
12903
13256
12883
13210
13078
13577
14613
16389
16412
15536
11185
10504
11628
11946
12706
12385
12818
12523
12945
12454
12769
12371
12711
12505
12833
12843
12973
13115
13185
13606
13570
14104
14015
14655
14746
15076
14849
14968
14480
14590
13768
13817
12944
13033
12349
12641
12086
12310
12029
12273
12183
12263
12373
12333
12622
12468
12949
12635
13090
12690
13162
12735
13133
12572
12830
12287
12440
12174
12375
12214
12280
12402
12388
12721
12712
13210
13043
13457
13041
13407
12983
13361
12934
13195
12964
13332
13071
13293
13294
14005
15342
16538
16856
13623
11153
11458
12590
12687
13237
13011
13470
13136
13590
13283
13555
13450
13717
13814
14296
14064
14338
14266
14541
14697
14962
15314
15470
15803
15576
15787
15310
15462
14843
14884
14112
14035
13305
13262
12726
12766
12444
12523
12537
12556
12728
12610
12768
12485
12719
12556
13012
12793
13296
13152
13671
13530
13950
13805
14066
14022
14119
14089
13963
14042
13877
14107
13873
14284
14066
14455
14148
14418
14011
14259
13876
14154
13926
14094
14105
14155
14258
14419
15020
15767
17559
18241
17713
13301
13090
13226
13988
13710
14037
13696
13981
13471
13722
13292
13678
13443
13883
13729
13896
13791
13851
13923
13895
14183
14198
14638
14520
14929
14605
14944
14449
14696
14071
14040
13351
13139
12614
12496
12185
12052
12003
11880
12128
11947
12248
12063
12496
12155
12583
12160
12554
12208
12534
12202
12384
12207
12398
12510
12588
12736
12627
12864
12587
12813
12483
12844
12459
13001
12714
13191
12935
13318
13071
13188
12909
12863
12734
12701
12945
12769
12891
13337
13623
14413
15836
17202
17428
13708
12224
12402
13320
13057
13453
12986
13316
12866
13237
13003
13340
13219
13354
13441
13356
13648
13500
13959
13695
14326
14070
14771
14494
15169
14897
15428
15110
15539
15231
15223
14753
14354
13955
13366
13248
12682
12981
12663
13142
12725
13259
12832
13273
12816
13160
12763
13042
12790
12965
12860
12811
12880
12633
12810
12465
12732
12184
12484
11968
12479
12093
12521
12038
12368
11985
12616
12355
12994
12725
13280
13019
13383
13213
13323
13170
13134
13315
13158
13343
13099
13520
13243
13870
14131
15423
16286
16865
13997
11702
11817
12818
13002
13270
13358
13180
13120
12814
13078
12821
13110
12617
13004
12619
13101
12744
13313
13175
13807
13921
14585
14802
15278
15591
15734
16051
15767
16006
15468
15622
14952
15070
14432
14716
14064
14311
13817
14093
13701
13774
13567
13667
13814
13838
14156
13914
14349
14103
14651
14593
14830
14609
14839
14420
14700
14224
14592
14142
14550
14135
14534
14162
14317
14021
14240
14199
14357
14522
14447
14710
14480
14838
14452
14735
14114
14392
13832
14012
13466
13818
13523
14046
14406
15329
16662
17330
16332
12476
12720
13248
14114
13861
14225
13771
14117
13622
14004
13639
13995
13764
14042
13874
14039
13834
13776
13892
13755
14133
14037
14554
14453
15032
14654
15102
14544
14779
14400
14597
14010
13907
13459
13204
12775
13109
12801
13051
12886
13019
13055
13101
13143
12975
12904
12241
12340
12137
12588
12407
12934
12664
12986
12702
13049
12810
12811
12497
12501
12450
12393
12423
12245
12530
12332
12714
12526
12929
12613
12984
12574
12860
12505
12704
12527
12715
12627
12743
12815
12791
13022
13401
14847
16036
16283
13965
10252
10429
11585
11464
11636
11297
11647
11506
11716
11772
12018
12274
12270
12558
12471
12966
12861
13411
13205
13771
13554
14396
14365
14974
14796
15242
14806
14985
14289
14361
13691
13585
12982
12880
12662
12522
12568
12408
12563
12250
12609
12160
12588
12247
12619
12128
12564
12234
12621
12370
12668
12570
12757
12716
12642
12767
12566
12753
12449
12902
12566
12965
12522
12796
12276
12690
12259
12635
12417
12703
12630
12735
12840
12870
13224
13787
15437
16370
16589
13630
10622
11122
12423
12670
13304
13008
13418
13184
13361
13321
13378
13413
13284
13557
13584
13544
13695
13762
13747
13989
13876
14268
13937
14341
13864
14186
13514
13748
12963
13017
12362
12370
11901
11831
11571
11502
11543
11446
11632
11482
11859
11557
12079
11791
12373
12130
12682
12417
12834
12526
12727
12519
12515
12467
12468
12550
12400
12668
12440
12865
12769
13381
13146
13732
13412
13875
13480
13761
13491
13726
13472
13524
13450
13273
13371
13231
14476
15844
16955
16190
12387
10744
12057
12367
13207
13062
13546
13404
13964
13645
14133
13742
14100
13787
14015
13852
13898
13841
13769
13930
13826
14193
14045
14601
14358
14867
14446
14765
14161
14397
13799
13737
13082
12962
12592
12470
12452
12294
12372
12143
12489
12149
12617
12246
12723
12372
12835
12450
12877
12605
12817
12594
12751
12660
12618
12624
12415
12635
12362
12748
12427
12920
12636
13125
12722
13184
12824
13215
12864
13090
12934
13048
12976
12894
13036
12825
13248
13119
14445
15663
17095
15299
11532
11385
12368
12480
13059
12680
13129
12681
13027
12555
12816
12511
12757
12581
12691
12709
12714
12992
12978
13493
13445
14083
13986
14640
14424
15054
14729
15126
14706
14854
14337
14183
13676
13374
13137
12855
12954
12621
12886
12525
12882
12476
12905
12421
12868
12478
12886
12614
12969
12762
13017
12973
12966
13063
12930
13127
12799
13082
12562
12908
12421
12940
12529
12973
12650
13171
12953
13306
13227
13426
13437
13311
13096
13446
13217
13321
13259
13274
13393
13375
14361
15249
17094
17108
15190
11646
12546
12671
13485
13188
13606
13314
13639
13444
13553
13480
13469
13650
13483
13809
13588
13970
13688
14291
13969
14560
14355
15018
14844
15330
15024
15252
15007
14937
14693
14272
14004
13406
13320
12737
12928
12418
12772
12320
12709
12244
12625
12256
12523
12224
12434
12384
12416
12435
12315
12526
12354
12684
12340
12745
12368
12839
12390
12822
12416
12759
12398
12832
12373
12741
12361
12776
12578
13043
12834
13096
13041
13121
13198
13034
13120
12744
13031
12741
13225
12910
13423
13149
13857
14401
16183
16954
16830
12939
11993
12561
13138
13378
13286
13587
13345
13704
13348
13796
13430
13860
13405
13837
13435
13865
13607
13941
13879
14138
14314
14406
14780
14753
15171
14893
15261
14818
15162
14461
14523
13747
13823
13125
13244
12778
12902
12676
12693
12688
12633
12825
12622
13006
12983
13028
13000
13161
13030
13290
12988
13352
12953
13355
12870
13330
12889
13268
12942
13289
12978
13160
13074
13197
13295
13208
13366
13096
13370
13065
13434
13137
13669
13301
13811
13448
13886
13517
13797
13552
13636
13502
13505
13585
13492
13747
13652
14490
14907
16651
16899
16186
12176
12491
12791
13643
13464
13768
13592
13728
13663
13729
13873
13677
13878
13533
13847
13513
14027
13651
14230
13919
14521
14260
14914
14739
15226
15009
15586
15142
15452
14844
14857
14185
13988
13556
13316
13157
12824
12923
12554
12808
12402
12791
12421
12799
12398
12834
12501
12767
12466
12731
12562
12635
12652
12659
12742
12560
12867
12591
12967
12573
13065
12717
13129
12673
13104
12697
13115
12840
13103
12961
13090
13100
12961
13114
12898
13269
13065
13503
13094
13548
13069
13624
13208
13616
13123
13451
13186
13452
13332
13383
13630
13937
14899
15760
16989
16158
13171
11791
13054
13271
13762
13419
13921
13485
13991
13448
13958
13504
13985
13570
13934
13659
13832
13754
13819
13977
13916
14269
14203
14771
14505
15015
14525
15039
14522
14802
14024
14093
13327
13262
12791
12693
12523
12485
12614
12451
12797
12512
12856
12447
12954
12450
12984
12523
13052
12625
13018
12718
12987
12832
12941
12996
13025
13193
12974
13273
12946
13356
12929
13418
12933
13434
13011
13440
13136
13516
13183
13309
13029
13036
13107
13441
13268
13553
13424
13494
13529
13455
13568
13199
13409
13022
13474
13077
13538
13189
13826
14137
15714
16474
16628
13269
11680
12177
12884
13261
13223
13497
13273
13572
13214
13665
13311
13818
13379
13883
13502
13972
13687
14089
13922
14157
14226
14457
14762
14850
15288
14973
15322
14860
15182
14433
14560
13745
13854
13071
13184
12620
12750
12505
12550
12445
12457
12650
12466
12728
12357
12766
12389
12836
12406
12930
12484
12991
12518
12994
12528
13001
12513
13012
12574
13012
12708
13014
12937
13103
13074
13036
13120
12929
13229
12863
13307
12950
13519
13278
13751
13404
13806
13483
13762
13441
13562
13226
13219
13228
13174
13307
13273
13822
14464
15850
16442
16517
13178
11638
11979
13107
13105
13535
13396
13603
13505
13535
13605
13569
13808
13600
13944
13651
14077
13735
14208
13910
14384
14175
14719
14651
15175
15074
15200
15105
15020
15008
14655
14495
13777
13753
13207
13112
12823
12914
12571
12893
12512
12885
12520
13080
12617
13086
12705
13048
12718
12955
12760
12897
12897
12884
13093
12942
13257
12931
13363
12942
13294
12798
13261
12775
13153
12691
13060
12799
13089
13086
13210
13306
13208
13407
13078
13414
12944
13284
12814
13279
12835
13354
12967
13494
13358
14751
15991
16622
15857
12065
10681
11577
12593
12825
13316
12980
13480
13068
13541
13134
13701
13351
13794
13529
13839
13691
13866
13685
14280
14097
14576
14559
14912
15001
15104
15171
14958
15089
14623
14624
13817
13846
13026
13224
12483
12720
12150
12483
12087
12285
12108
12234
12248
12210
12356
12251
12562
12249
12639
12289
12807
12358
12816
12392
12787
12338
12624
12320
12585
12459
12517
12496
12404
12612
12427
12827
12632
13148
12774
13261
12848
13287
12758
13061
12606
12972
12791
13032
13004
13096
13401
13664
14920
16235
16927
15675
11954
11151
12548
12817
15131
14848
14862
14537
14404
14254
14019
14108
13898
14280
14005
14450
14065
14650
14380
15015
14698
15142
14737
14968
14607
14581
14161
13776
13434
12930
12842
12382
12554
12185
12556
12074
12540
12156
12642
12295
12756
12530
12826
12643
12822
12774
12846
12947
12814
13037
12817
13138
12784
13111
12701
13124
12750
13109
12774
13100
12720
12818
12629
12729
12784
12858
13052
12887
13206
12856
13250
12844
13233
12752
13202
12769
13240
12858
13362
13078
13902
14395
16365
16714
16134
11940
11732
12330
13050
13282
13362
13590
13457
13773
13480
13873
13431
13861
13421
13954
13585
14056
13761
14189
14056
14421
14448
14702
14943
14951
15196
15008
15265
14821
15008
14290
14282
13442
13502
12806
12972
12540
12755
12441
12576
12406
12386
12466
12392
12656
12427
12769
12424
12861
12418
12931
12602
13087
12742
13109
12776
12973
12750
12845
12834
12822
12893
12646
12844
12584
12879
13066
13271
13165
13448
13207
13549
13155
13503
12968
13381
12973
13408
13071
13444
13241
13657
13952
14965
16475
17168
16155
12017
12085
12494
13343
13071
13607
13237
13717
13284
13738
13413
13834
13575
13849
13748
13834
13952
13924
14239
14142
14613
14422
14965
14732
15292
14925
15354
14860
15157
14627
14704
14069
13842
13329
13063
12869
12584
12717
12473
12743
12375
12848
12525
12994
12552
12966
12595
12956
12598
12827
12540
12842
12538
12936
12631
12919
12739
12920
12794
12865
12928
12828
12973
12721
12949
12706
13086
12949
13410
13031
13396
13058
13413
13033
13230
13009
13086
13041
13068
13151
13059
13373
13330
14560
15487
16943
16411
13486
11127
12275
12695
13348
13234
13567
13443
13480
13471
13476
13643
13572
13844
13665
14163
13886
14368
14085
14713
14439
14934
14677
15150
15060
15418
15240
15325
15286
15036
14843
14151
13970
13134
13169
12349
12607
11983
12445
12080
12496
12092
12651
12089
12685
12218
12801
12316
12707
12455
12757
12668
12779
12890
12749
13027
12703
13123
12496
13031
12292
12927
12221
12924
12373
13091
12853
13385
13176
13289
13346
12986
13115
12698
13222
12594
13190
12399
13084
12557
13490
14046
16303
15870
15142
10248
10339
11246
12388
12787
12800
13283
12946
13646
13074
13740
13121
13916
13254
13996
13322
13992
13546
14162
13887
14337
14515
14765
15242
15273
15888
15809
15587
15535
15381
14895
14848
13889
13976
13089
13460
12533
13057
12350
12901
12256
12833
12497
12911
12743
13016
13020
13032
13236
12976
13353
12932
13358
12748
13215
12631
13238
12728
13329
12889
13393
13090
13340
13087
13203
13106
12869
12982
12742
13233
12747
13314
12811
13642
13604
15825
16865
17091
14437
10562
10832
12155
12690
13113
13339
13227
13583
13266
13740
13275
13932
13400
14240
13585
14306
13774
14379
13884
14460
14168
15092
14704
15443
15011
15440
15025
15234
14895
14701
14364
13754
13607
12944
13103
12336
12812
12033
12672
11891
12582
11967
12606
12225
12820
12507
12782
12628
12635
12791
12588
12940
12397
12923
12264
12860
12129
12859
12280
13040
12558
13179
12677
13003
12661
12789
12652
12612
12807
12527
12927
12490
13234
12917
14891
16040
17038
15627
11687
10387
11887
12114
12838
12748
12995
13024
12931
13179
12907
13406
12909
13491
12838
13428
13226
13803
13506
14265
13893
14749
14284
15166
14634
15306
14614
15046
14324
14396
13779
13537
13231
12775
12770
12282
12670
12063
12685
12026
12865
12128
12910
12288
13070
12506
13167
12781
13138
13058
13221
13323
13127
13488
13004
13567
12933
13734
13020
13838
13101
13917
13028
13758
12976
13352
12847
13126
12911
12890
13125
12777
13428
13215
15176
16161
17572
15861
12160
10911
12663
12504
13567
13045
13638
13409
13671
13743
13640
14436
13856
14210
13904
14054
14169
14080
14521
14134
14888
14582
15546
14885
15831
15099
15875
14992
15408
14445
14504
13624
13514
13058
12876
12816
12460
12756
12215
12680
11931
12666
11955
12822
12049
12759
12031
12673
12119
12664
12376
12626
12549
12442
12649
12405
12817
12440
13104
12497
13242
12632
13369
12596
13195
12476
13014
12664
13050
12851
13044
13129
13147
13748
14491
16670
16858
16740
11547
11901
11930
13219
12806
13604
13142
13985
13290
14014
13330
14052
13422
14010
13565
13961
13778
13922
14026
14058
14468
14300
14978
14597
15379
14684
15423
14632
15205
14214
14456
13391
13529
12748
12769
12371
12323
12305
12047
12346
11890
12451
11782
12537
11784
12620
11877
12685
12005
12708
12145
12705
12409
12694
12571
12561
12719
12489
12916
12427
13079
12357
13073
12388
13185
12401
13296
12654
13315
12790
13283
13032
13338
13274
13144
13336
12995
13490
13405
13358
13552
14008
14720
16582
16772
17081
12456
12330
12258
13662
13139
13949
13286
14093
13553
14076
13703
13875
13850
13775
14081
13732
14383
13736
14626
13878
14929
14213
15324
14679
15641
15075
15675
15156
15543
15090
14853
14466
13819
13756
12932
13210
12425
12999
12130
12851
11993
12763
11989
12686
12045
12571
12114
12452
12304
12382
12562
12363
12782
12263
12928
12161
12982
12134
13014
12132
13012
12302
13072
12500
13009
12658
13336
12639
13394
12791
13342
12910
13178
13030
13082
13228
12927
13333
12788
13457
12837
13777
12958
13810
13040
13824
13171
13851
13206
13548
13074
13252
13212
13231
13452
13358
14380
14414
16202
16391
16432
12116
12806
12617
13732
13149
13758
13278
13778
13493
13699
13667
13563
13917
13517
14146
13473
14336
13601
14610
13869
14911
14224
15259
14764
15651
15341
15793
15641
15610
15515
14986
14918
14016
14131
13133
13465
12502
13081
12407
12929
12356
13050
12311
13047
12248
12983
12250
12991
12355
12907
12455
12735
12516
12549
12616
12444
12793
12282
12795
12128
12888
12064
12863
12092
12968
12270
12962
12402
12947
12600
12935
12771
12769
12977
12734
13116
12556
13218
12537
13319
12535
13409
12634
13375
12642
13301
12726
13331
13161
13376
13367
13350
13626
13288
13725
13145
13726
12958
13711
12947
13751
13062
13986
14033
15458
16307
17198
14579
12222
12652
13089
13321
13842
13597
13808
13774
13747
13990
13656
14091
13581
14274
13578
14368
13750
14587
14028
14923
14558
15391
15126
15684
15600
15796
15859
15732
15895
15255
15391
14357
14531
13370
13665
12641
13105
12232
12748
12123
12579
12111
12370
12142
12146
12235
12013
12361
11910
12538
11942
12733
11971
12854
11967
12791
11993
12743
12058
12655
12297
12598
12508
12506
12710
12367
12869
12234
12984
12144
13021
12135
13095
12246
13225
12463
13362
12561
13494
12586
13461
12578
13354
12766
13465
13252
13594
13621
13608
13887
13535
14083
13439
14122
13227
14097
13204
14128
13346
14462
14213
15378
16641
17782
15406
12860
12983
13246
13783
13265
13845
13146
13913
13052
13998
13092
14031
13183
14009
13338
14043
13569
14001
13863
14037
14296
14241
14881
14611
15502
14966
15873
15042
15859
14817
15422
14210
14457
13263
13380
12601
12645
12252
12171
12332
12048
12543
11934
12640
12295
12495
12245
12601
12041
12646
11914
12728
11857
12805
11960
12879
12138
12880
12231
12782
12324
12623
12509
12565
12756
12504
12947
12430
13077
12339
13129
12354
13252
12464
13254
12579
13287
12774
13265
12958
13207
13109
13062
13293
13133
13760
13258
13913
13204
13982
13285
13965
13175
13750
13095
13721
13284
13742
13688
14232
14793
15676
17633
17141
14690
12186
13510
13212
14241
13336
14311
13442
14249
13578
14215
13714
14121
13564
14421
13695
14382
13836
14312
14122
14413
14599
14630
15193
15017
15858
15239
16081
15281
16083
14974
15530
14222
14464
13281
13515
12730
12843
12471
12428
12475
12182
12585
12066
12713
11898
12723
11904
12809
11962
12911
12178
12933
12299
12843
12501
12841
12702
12610
12792
12516
13014
12397
13068
12257
13139
12301
13157
12328
13205
12414
13129
12571
13135
12989
13238
13232
13134
13406
12995
13540
12828
13567
12731
13564
12706
13502
13097
14083
14506
17046
16379
16489
11558
11338
11596
13120
13035
13608
13347
13602
13618
13571
13848
13500
14118
13517
14355
13612
14540
13721
14714
13976
14913
14382
15306
14997
15687
15650
15887
15962
15792
16023
15281
15437
14195
14418
13032
13490
12386
13030
11995
12658
11884
12409
11894
12265
12107
12173
12266
12009
12456
11902
12574
11788
12596
11804
12726
11875
12749
11951
12649
11946
12469
12094
12409
12312
12477
12820
12529
12635
13037
12891
12798
12841
12527
12974
12426
13085
12403
13331
12652
14122
14603
17169
16454
15726
10698
11542
12083
13040
13159
13142
13466
13159
13683
13116
13864
13096
13985
13124
14122
13245
14127
13491
14422
14052
14750
14699
15197
15450
15614
16118
15793
16296
15521
16094
14903
15284
13873
14273
12980
13417
12457
12930
12302
12582
12282
12327
12411
12123
12419
11934
12579
11863
12731
11882
12794
11942
12919
12160
13013
12348
13044
12170
13047
12214
13055
12466
13147
12666
13160
12975
13047
13100
12724
13027
12480
13132
12475
13342
12495
13505
12776
14601
15196
17151
16616
13772
10796
11903
12489
12909
13175
12902
13395
12824
13558
12809
13697
12873
13859
13073
13978
13307
14036
13560
14199
14038
14456
14645
14885
15457
15280
15924
15363
16092
15188
15815
14656
15026
13721
14062
13005
13393
12672
12911
12462
12481
12537
12309
12658
12182
12778
12041
12801
12357
12712
12293
12860
12221
12974
12123
13009
12137
12929
12004
12890
12183
12901
12556
13083
12929
13075
13099
12821
13127
12583
13120
12404
13250
12415
13298
12482
13520
12876
14598
15421
17363
16906
13313
11381
12139
12860
12908
13400
12908
13637
12873
13704
12870
13740
12889
13841
13170
13936
13386
14004
13714
14138
14197
14283
14734
14617
15328
14905
15714
14967
15791
14837
15384
14127
14498
13337
13578
12751
12940
12450
12503
11983
12716
12102
12584
12261
12530
12448
12431
12656
12281
12834
12263
13024
12225
13074
12233
13158
12325
13131
12311
12887
12389
12803
12585
12817
12898
12801
13197
12774
13273
12509
13115
12241
13096
12232
13106
12334
13220
12694
13489
13809
15524
16977
17236
13814
11398
12437
12501
13457
12751
13640
12801
13732
12878
13816
13070
13889
13328
13937
13560
13922
13876
13951
14298
14165
14878
14562
15480
14956
15925
15222
16168
15304
15970
14958
15340
13993
14375
13100
13622
12608
13198
12471
12944
12506
12700
12613
12627
12855
12546
12980
12399
13102
12310
13122
12261
13072
12264
13004
12315
12957
12430
12831
12519
12705
12686
12593
12836
12344
12857
12288
13082
12483
13350
12602
13399
12707
13481
12778
13308
12770
13150
12963
13110
13186
12989
13432
13101
14412
14818
17187
16760
14766
11315
12627
12514
13568
13014
13618
13229
13552
13444
13524
13636
13384
13787
13752
13590
13740
13910
13774
14214
13862
14722
14287
15384
14746
15765
14925
15879
15031
15685
14792
14967
14064
13938
13418
13086
13024
12533
12849
12173
12849
12016
12846
11977
12835
11914
12729
11980
12696
12151
12662
12340
12513
12434
12420
12682
12324
12726
12165
12872
12201
12986
12223
13026
12310
12952
12244
12884
12488
12981
12839
13070
13115
12992
13345
12998
13482
12833
13481
12727
13588
12920
13755
13093
13951
13599
14977
16046
17981
16636
13380
12076
13301
13388
13892
13638
13851
13886
13739
14052
13673
14196
13541
14265
13527
14384
13671
14535
13848
14704
14224
14984
14787
15421
15481
15727
15890
15623
15937
15236
15549
14405
14666
13412
13773
12612
13100
12193
12774
12133
12542
12195
12423
12349
12396
12627
12354
12779
12253
12956
12259
12980
12198
12981
12283
13006
12362
13001
12525
12949
12700
12872
12877
12817
13133
12759
13227
12668
13292
12527
13320
12984
13659
13190
13840
13137
13882
13104
13841
12978
13555
12829
13431
12914
13314
13066
13433
13742
14270
15643
16617
16842
12645
11950
11816
13282
12655
13561
12735
13552
12859
13527
13069
13514
13369
13598
13765
13579
14035
13577
14308
13643
14627
13891
15033
14407
15504
14818
15721
15132
15666
15084
15164
14666
14182
13935
13146
13251
12411
12916
11937
12738
11773
12632
11786
12664
11882
12652
12061
12599
12234
12413
12254
12179
11977
12612
12266
12546
12438
12407
12625
12324
12859
12247
13024
12244
13119
12251
13196
12351
13175
12393
13172
12707
13365
13105
13312
13237
13147
13427
13004
13497
12758
13481
12626
13509
12648
13571
12852
13913
13856
15238
16434
17145
14538
11691
12214
12805
13509
13098
13732
13071
13916
13105
14021
13227
14094
13306
14078
13430
14081
13741
14192
14123
14330
14618
14614
15256
15039
15831
15332
16102
15328
16023
15068
15497
14335
14499
13350
13737
12610
13192
12227
12805
12102
12627
12171
12460
12282
12374
12585
12394
12815
12360
13127
12476
13275
12479
13285
12458
13319
12563
13293
12728
13219
12861
13068
12968
12970
13155
12786
13300
12711
13356
12677
13520
12830
13793
13083
13939
13201
13872
13294
13669
13256
13424
13413
13320
13632
13171
13823
13289
14935
15251
17416
16119
14230
10295
12025
12228
13543
13223
13739
13601
13804
13912
13682
14050
13591
14274
14070
14059
13951
14357
14020
14709
14151
15151
14539
15679
15006
16080
15317
16166
15406
15936
15146
15184
14467
14132
13785
13189
13236
12477
12909
12009
12713
11785
12633
11714
12535
11722
12521
11861
12500
12107
12468
12334
12378
12530
12229
12607
11993
12727
11970
12704
11854
12742
11950
12948
12266
13028
12498
13053
12634
12853
12736
12627
12847
12480
13031
12453
13209
12438
13509
13160
15350
16211
17185
14988
11090
10660
12195
12633
13777
13104
13972
13384
13892
13481
13712
13680
13650
13955
13575
14232
13651
14556
13835
14875
14082
15209
14568
15666
15020
15807
15171
15569
15154
15055
14646
14002
13854
12953
13221
12190
12825
11783
12660
11705
12613
11744
12563
11832
12473
11967
12399
12209
12326
12512
12290
12751
12193
12886
12089
12977
12094
13026
12109
12967
12066
12845
12179
12788
12457
12860
12843
12891
13175
12778
13228
12505
13157
12322
13223
12281
13133
12669
13516
12910
14696
15159
17314
16167
13126
10712
12358
12479
13456
13175
13520
13498
13468
13744
13406
13922
13252
14053
13240
14174
13283
14240
13402
14389
13770
14690
14304
15095
15053
15433
15571
15512
15807
15202
15579
14450
14803
13451
13925
12656
13314
12248
12927
11985
12556
12009
12439
12246
12383
12444
12249
12725
12235
12942
12184
13094
12232
13186
12248
13149
12296
13125
12470
13136
12641
12895
12716
12748
12966
13277
12877
13322
13079
13131
13181
12823
13144
12551
13258
12518
13354
12482
13462
12614
13662
13488
15325
16338
17220
13781
11463
11902
12684
13244
12966
13469
12945
13686
12915
13828
12982
13907
13043
13993
13240
14020
13481
14187
13940
14358
14514
14702
15155
14992
15691
15213
15985
15207
15947
14864
15303
14008
14313
13142
13443
12642
12880
12469
12557
12468
12369
12674
12228
12793
12115
12882
12115
12923
12080
12909
12140
12940
12318
13041
12282
13120
12354
13114
12413
12994
12531
12941
12695
12757
12820
12656
13114
12842
13434
12850
13540
12846
13625
12793
13457
12656
13292
12752
13271
12851
13224
13228
13503
14350
15300
17206
16592
13622
11199
12594
12662
13781
13134
13951
13283
13940
13409
13890
13549
13788
13714
13761
14011
13779
14258
13749
14548
13946
14978
14389
15504
14905
15876
15176
15914
15287
15657
15026
14824
14313
13698
13481
12672
12981
12071
12742
12184
12386
12041
12609
12008
12754
11988
12871
12032
12918
12034
12883
12172
12917
12355
12876
12584
12728
12694
12545
12818
12376
12879
12164
12943
12098
12914
11987
12937
12132
13084
12506
13253
12816
13244
13071
13219
13182
12933
13196
12735
13444
12829
13637
12879
13891
13495
15053
15747
17461
15805
12417
11549
12732
13247
13509
13708
13532
13990
13452
14106
13408
14220
13364
14325
13488
14402
13652
14524
13948
14610
14419
14918
17267
16793
17116
16011
16277
14812
15120
13553
13922
12607
13127
12135
12635
11990
12347
12073
12194
12236
11957
12319
11772
12496
11737
12591
11773
12736
11834
12825
11987
12820
12127
12702
12206
12541
12407
12441
12636
12373
12794
12123
12833
12112
13043
12338
13463
12609
13552
12763
13529
12834
13371
12857
13081
12980
12885
13119
12763
13377
12894
14103
13979
16300
16175
16032
11136
11722
11898
13391
13046
13595
13384
13605
13633
13956
13419
14022
13697
13955
13932
13930
14249
13874
14516
13955
14951
14338
15510
14798
15923
15127
16028
15244
15859
15134
15313
14626
14331
13916
13380
13382
12623
13107
12255
13058
12120
12990
12017
12910
12053
12890
12148
12786
12212
12602
12441
12543
12683
12381
12821
12224
12930
12133
13043
12132
13079
12157
13123
12311
13101
12408
12926
12479
12865
12817
13056
13411
13097
13579
12965
13745
12904
13746
12721
13647
12796
13727
12970
13905
13132
14332
14279
16504
16718
16785
12183
11654
12179
13259
13532
13556
13855
13552
14048
13400
14157
13322
14234
13327
14243
13364
14247
13576
14374
13962
14586
14423
14820
15033
15115
15560
15124
15701
14920
15556
14526
15106
13715
14129
12845
13336
12304
12805
12173
12561
12264
12392
12479
12321
12680
12197
12871
12140
12952
12079
13020
12137
13043
12197
13016
12354
12978
12507
12867
12759
12828
12992
12648
13043
12470
12770
12934
13129
12993
13453
12911
13565
12818
13639
12717
13560
12625
13572
12759
13532
12843
13437
13148
14170
15343
16894
16649
14030
10511
10737
12431
12491
13718
12922
13918
13077
13975
13236
14005
13410
13955
13620
13931
13922
13999
14282
13977
14629
14140
15137
14587
15740
14999
16050
15246
16057
15187
15742
14893
14973
14191
13936
13491
13019
13082
12504
13016
12252
12960
12106
12985
12092
13001
12166
12950
12234
12902
12399
13134
12311
13187
12409
13037
12441
12853
12467
12583
12599
12418
12693
12202
12797
12143
13003
12309
13312
12519
13416
12562
13377
12613
13179
12630
12994
12731
12799
12945
12782
13353
13183
14833
15655
17223
15340
11806
10617
12436
12427
13477
12882
13542
13167
13483
13397
13457
13717
13460
14003
13523
14283
13559
14514
13706
14688
14004
15059
14488
15472
15089
15725
15378
15603
15442
15203
15093
14291
14359
13284
13643
12475
13158
12063
12702
12051
12730
11895
12774
11874
12795
11886
12775
12023
12788
12193
12773
12439
12741
12690
12581
12888
12512
13084
12428
13218
12374
13306
12424
13340
12446
13212
12494
13230
12785
13348
13161
13355
13359
13152
13466
12924
13452
12649
13417
12532
13434
12557
13491
12741
13994
14127
16321
16813
16090
11757
11437
12358
12812
13462
13024
13762
13050
13976
13124
14063
13185
14117
13354
14184
13542
14191
13832
14207
14231
14403
14826
15305
15197
15727
15666
15663
15710
15318
15607
14717
14995
13806
14294
13024
13649
12545
13289
12335
13008
12362
12853
12435
12683
12541
12480
12741
12376
12877
12258
13038
12175
13055
12165
13070
12171
12983
12130
12825
12271
12788
12500
12668
12657
12483
12825
12408
13205
12618
13558
12697
13574
12698
13621
12695
13369
12624
13319
12784
13161
12961
13182
13496
13689
14856
15989
17634
15736
12469
11215
13007
12774
13835
13104
13981
13288
14232
13341
14149
13328
14167
13537
14154
13720
14163
14037
14152
14335
14344
14885
14626
15407
14873
15598
14922
15621
14805
15661
14519
14785
13599
13686
12889
12950
12589
12433
12470
12054
12499
11957
12678
11964
12825
11952
12807
11987
12921
12138
12815
12277
12772
12426
12631
12544
12435
12698
12373
12841
12339
12845
12443
12829
12355
12829
12567
13200
12883
13407
13127
13537
13276
13474
13294
13426
13525
13384
13513
13378
13518
13790
14787
16227
17322
16774
13020
11043
12345
13016
13956
13784
14214
13975
14261
14035
14222
14071
14247
14222
14501
14613
14700
15023
15061
15387
15298
15823
15669
16028
15855
16292
15914
15946
15390
15445
14955
14641
14013
13550
13078
12631
12416
11960
11931
11493
11826
11474
11882
11471
12223
11961
12548
12352
12641
12442
12486
12518
12490
12670
12394
12721
12320
12709
12252
12695
12254
12766
12419
12845
12581
12932
12721
12950
12584
12927
12604
12927
12729
12953
12799
13084
13352
14540
16437
16727
16262
11595
11318
11982
12983
13011
13433
13178
13551
13225
13476
13333
13523
13562
13624
13775
13707
14004
13831
14235
13969
14514
14271
14958
14810
15444
15163
15585
15223
15406
14988
14814
14373
13960
13743
13166
13248
12701
12957
12363
12769
12164
12687
12126
12655
12256
12651
12429
12769
12651
12750
12774
12702
12911
12705
13060
12656
13011
12473
12988
12551
12971
12596
13025
12688
13258
12803
13370
12880
13342
12848
13171
12845
13133
12986
13066
13113
13036
13409
13322
14730
15860
17023
16387
13108
11214
12590
12813
13621
13254
13715
13398
13600
13515
13570
13622
13515
13702
12994
13120
12574
13031
12480
13135
12745
13435
13196
13925
13710
14186
14043
14195
14095
13974
13872
13308
13210
12471
12593
11876
12219
11581
12081
11592
12136
11706
12246
11861
12164
12073
12325
12398
12385
12416
12849
12644
12789
12738
12687
12858
12597
12837
12499
13001
12531
13005
12454
13033
12599
13158
12815
13387
13125
13493
13362
13467
13425
13312
13444
13137
13478
13084
13555
13104
13761
13438
14845
15697
17308
16931
14297
12096
12871
13290
13658
13783
13799
14086
13807
14179
13757
14292
13783
14308
13803
14371
13933
14485
14117
14640
14531
14920
15042
15190
15490
15466
15724
15337
15655
15019
15278
14381
14523
13597
13774
13029
13329
12730
13209
12610
13091
12518
12919
12492
12843
12539
12784
12693
12711
12779
12602
12875
12528
12883
12400
12854
12384
12939
12457
12957
12517
12983
12638
12935
12663
12773
12798
12825
13042
12886
13140
12866
13243
12847
13312
12794
13226
12724
13250
12782
13249
12930
13392
13358
14170
15136
16399
16669
13767
11912
11981
13137
12961
13558
13093
13694
13171
13659
13273
13659
13303
13519
13341
13372
13472
13419
13703
13524
13978
13684
14319
14523
14867
14402
14999
14348
15027
14225
14828
13753
14174
13278
13613
12900
13200
12797
12915
12792
12696
12868
