15842
16213
15963
16227
15574
15872
14789
15011
13708
14055
12817
13325
12340
12874
12169
12667
12206
12457
12283
12340
12482
12197
12631
12103
12763
12070
12806
11972
12838
12033
12824
12094
12832
12267
12756
12414
12670
12606
12585
12774
12406
12851
12311
12976
12258
13114
12314
13184
12395
13245
12495
13205
12659
13138
12799
12969
12853
12820
13080
12801
13398
12801
13553
12807
13661
12807
13586
12698
13341
12573
13315
12762
13288
13046
13996
14172
15981
16361
16100
12208
11011
11892
12923
13579
13445
13910
13364
14025
13344
14157
13364
14200
13380
14213
13503
14240
13678
14290
14067
14407
14479
14643
15080
15010
15674
15213
15973
15231
16003
15017
15559
14351
14671
13546
13892
13047
13266
12741
12785
12629
12392
12634
12307
12786
12185
12888
12202
13019
12163
12991
12212
12984
12320
12935
12491
12951
12705
12860
12813
12641
12961
12559
13074
12488
13194
12397
13245
12677
13242
12690
13439
12787
13609
12852
13664
12819
13538
12788
13363
12782
13266
12980
13296
13458
13369
13653
13223
13761
13129
13749
12876
13621
12801
13607
12875
13668
13168
14240
14938
16847
16379
15043
10809
10462
12119
12673
13655
13055
13887
13186
14022
13199
14034
13349
14141
13560
14160
13783
14181
14048
14128
14347
14240
14740
14410
15225
14733
15676
14950
15759
14893
15529
14655
15066
14044
14146
13368
13267
12833
12609
12145
12661
12119
12383
12183
12277
12325
12115
12502
12180
12819
12177
12947
12213
13079
12334
13227
12514
13188
12580
13157
12757
13038
12891
12891
13042
12735
13099
12578
13233
12669
13584
12868
13744
12973
13745
12991
13585
12881
13327
12988
13254
13239
13234
13483
13392
14496
15139
17346
16175
14876
9938
11355
11708
13438
13029
13791
13363
13903
13574
13771
13734
13644
13862
13527
14059
13544
14273
13608
14512
13811
14780
14191
15326
14906
15918
15245
16077
15189
15857
14924
15217
14202
14142
13341
13169
12881
12588
12692
12262
12738
12102
12770
12016
12814
12031
12914
12186
12955
12264
12903
12399
12778
12534
12691
12665
12549
12838
12384
12894
12264
12968
12243
12964
12166
13010
12277
13148
12668
13411
12994
13413
13194
13224
13160
12876
13073
12629
13196
12588
13372
12611
13574
13250
14910
15740
17103
15141
11496
10894
12269
12886
13203
13424
13348
13744
13719
13455
13571
13656
13558
13934
13596
14233
13699
14492
13824
14784
14131
15189
14671
15652
15204
15857
15372
15687
15352
15248
15040
14409
14249
13293
13483
12519
13011
12070
12823
12023
12817
12079
12780
12177
12729
12326
12707
12582
12542
12658
12406
12775
12292
12943
12263
13049
12265
13117
12296
13105
12392
13044
12465
12939
12504
12731
12730
12776
13103
12912
13405
12833
13469
12784
13479
12547
13349
12531
13312
12601
13291
12737
13547
12975
14621
14795
17230
16547
14348
10952
11831
12692
13194
13468
13273
13746
13256
13931
13256
14081
13293
14118
13339
14240
13523
14256
13819
14425
14183
14601
14782
14943
15381
15208
15790
15239
15883
15023
15615
14418
14810
13512
13825
12742
13110
12437
12778
12399
12535
12476
12360
12632
12237
12827
12329
13129
12427
13279
12413
13277
12501
13308
12665
13227
12715
13135
12915
13008
13001
12863
13128
12721
13205
12699
13304
12908
13172
12799
13239
12801
13520
12998
13649
13002
13583
12980
13502
12949
13275
12836
13113
12951
13040
13110
13068
13475
13606
14727
15522
17045
15572
12213
10790
12285
12638
13368
13097
13519
13250
13410
13272
13295
13415
13334
13602
13385
13851
13613
14189
13778
14411
14079
14669
14465
15107
14977
15433
15348
15536
15418
15331
15244
14704
14497
13741
13699
12987
13158
12550
12840
12322
12709
12359
12743
12502
12781
12668
12818
12678
13089
12800
12984
12769
12877
12759
12697
12800
12622
12797
12599
12961
12642
13036
12673
13038
12672
13031
12663
12950
12667
12896
12698
12853
12903
13025
13263
13182
13412
13148
13465
13160
13511
13087
13302
12906
13322
13032
13380
13209
13588
13793
14949
16274
16690
15750
11518
10811
11573
12932
13135
13636
13359
13789
13443
13791
13497
13802
13593
13816
13726
13802
13866
13868
14156
14058
14453
14402
15013
14918
15556
15343
15803
15615
15903
15452
15575
14820
14776
13963
13959
13302
13344
12860
12937
12740
12771
12705
12559
12675
12439
12660
12354
12737
12391
12865
12501
12908
12554
12960
12691
12889
12652
12832
12717
12720
12760
12677
12808
12492
12807
12506
12980
12692
13290
12965
13451
13121
13423
13089
13303
13020
13139
13008
13008
13056
12930
13190
13144
14168
15218
17138
15918
14041
9659
10925
11701
13006
13070
13465
13392
13584
13541
13532
13651
13771
13612
13789
13706
13777
13899
13871
14165
14035
14512
14368
15016
14854
15426
15082
15472
15040
15256
14651
14563
13904
13595
13146
12805
12606
12242
12389
12008
12325
11930
12369
11969
12462
12139
12671
12363
12770
12571
12890
12742
12880
12901
12876
13008
12785
12996
12657
13035
12646
13043
12562
12970
12598
13014
12742
13231
13062
13364
13208
13273
13200
13057
13123
12880
13174
12801
13191
12745
13239
13018
13912
14345
16136
16528
14730
10653
11534
12032
13087
12865
13260
13062
13306
13182
13239
13313
13279
13408
13249
13575
13316
13783
13485
13976
13703
14284
14107
14766
14701
15219
15092
15308
15153
15135
14992
14604
14446
13816
13711
13047
13199
12578
12900
12451
12875
12465
12876
12589
12895
12646
12811
12759
12829
12885
12777
12948
12694
12991
12629
13008
12595
13020
12571
12939
12535
12920
12611
12841
12598
12653
12626
12660
12938
12919
13165
12865
13161
13022
13097
12899
12994
12628
12987
12663
13094
12729
13173
12928
13829
14212
16026
16675
15782
11519
11139
12072
12877
13220
13165
13433
13191
13623
13332
13765
13417
13920
13579
14067
13744
14180
13980
14353
14300
14558
14748
14957
15277
15329
15680
15443
15793
15380
15670
14978
15045
14170
14087
13348
13374
12882
12949
12712
12740
12667
12611
12788
12592
12867
12512
12931
12567
13000
12586
12998
12577
13017
12671
12984
12710
12909
12591
12995
12677
13045
12836
13027
12791
12861
12932
13036
13358
13216
13514
13179
13592
13249
13583
13041
13357
12941
13276
12925
13256
13055
13306
13370
14119
14905
16384
16921
14714
11218
11206
12624
12928
13530
13193
13682
13324
13714
13447
13727
13494
13610
13484
13536
13669
13618
13929
13756
14251
14070
14681
14524
15217
14990
15528
15197
15572
15201
15288
14867
14634
14203
13781
13562
13060
13065
12581
12778
12307
12683
12290
12724
12464
12792
12465
12822
12424
12880
12447
12841
12495
12893
12609
12908
12800
12885
12810
12766
12918
12842
13148
12888
13188
12776
13126
12737
13232
12968
13539
13207
13553
13291
13518
13366
13350
13260
13102
13190
13014
13277
12978
13326
13021
13663
14198
15517
16478
16672
13451
10747
11273
12565
13085
13278
13367
13314
13479
13314
13651
13350
13753
13375
13837
13480
13993
13617
14114
13910
14409
14341
14651
14756
15070
15309
16382
16502
15570
15340
14268
14169
13291
13359
12774
12896
12446
12540
12336
12363
12261
12167
12357
12133
12375
12034
12437
12036
12506
12044
12468
12015
12426
12113
12433
12180
12425
12393
12416
12454
12346
12609
12394
12954
12819
13301
12933
13365
12933
13339
12882
13146
12829
13169
12981
13136
13082
13079
13305
13370
14858
16140
17123
15769
11755
9764
11494
12083
13184
13064
13520
13300
13650
13530
13622
13558
13597
13755
13609
13705
13979
14048
14162
14374
14349
14709
14639
15211
15014
15555
15190
15622
15060
15293
14645
14657
13942
13758
13196
12989
12752
12534
12495
12218
12446
12168
12577
12151
12565
12168
12663
12291
12694
12315
12747
12586
12899
12783
12902
12917
12826
12999
12774
12997
12625
12995
12594
12978
12450
12880
12547
13131
12981
13356
13103
13261
13184
13175
13173
12897
12963
12721
13032
12661
13041
12725
13316
13131
14457
15479
16852
15653
10654
10671
11981
12434
12987
12691
13019
12769
13065
12911
13157
13179
13315
13444
13474
13760
13702
14097
13998
14408
14243
14791
14676
15315
15240
15757
15516
15786
15600
15617
15278
14854
14429
13861
13626
13148
13158
12672
12802
12343
12537
12201
12493
12106
12383
12161
12468
12378
12459
12445
12521
12609
12526
12734
12516
12712
12384
12695
12256
12577
12104
12336
12013
12158
11958
12282
12289
12650
12837
12967
13220
13207
13476
13309
13458
13351
13601
13389
13711
13552
14024
13877
14468
15015
16432
17252
16815
12860
11710
12556
13520
13862
13902
14103
13997
14296
13997
14254
13827
14275
13887
14333
13965
14443
14157
14577
14408
14732
14784
15101
15410
15564
15945
15743
16059
15609
15820
15210
15295
14406
14441
13611
13650
13035
13141
12731
12743
12616
12593
12687
12527
12783
12524
12901
12504
12969
12526
12996
12589
13054
12695
13055
12694
13000
12775
12894
12785
12927
12493
12772
12564
12801
12810
12923
13038
12895
13172
12939
13311
12918
13345
12813
13244
12766
13172
12757
13186
12939
13500
14388
16014
16559
15638
11339
10409
11751
12331
13216
12917
13514
13095
13657
13241
13751
13353
13723
13465
13834
13700
13867
13975
14000
14340
14185
14604
14448
15087
14797
15370
14841
15286
14680
14970
14288
14272
13597
13390
12863
12654
12531
12259
12416
12128
12479
12099
12543
12070
12586
12089
12616
12258
12770
12387
12945
12528
13129
12678
13091
12685
13106
12844
13154
13080
13188
13286
13192
13357
12923
13195
12684
13042
12575
13116
12592
13139
12731
13275
13118
14311
15481
17073
16357
13816
10202
11021
12325
12766
13412
13053
13680
13269
13826
13348
13925
13506
13963
13567
13913
13787
14047
14071
14201
14502
14512
15039
14893
15541
15329
15917
15422
15852
15242
15511
14749
14700
13896
13712
13178
13023
12820
12653
12707
12383
12389
12581
12517
12527
12684
12518
12857
12581
13038
12615
13126
12659
13162
12681
13129
12587
12991
12600
12878
12792
13026
13098
13070
13199
12893
13143
12673
13055
12564
13075
12588
13098
12686
13152
12900
13771
14093
15797
16589
15396
11160
11022
12081
12461
12994
12635
13164
12741
13331
12933
13462
13037
13506
13204
13614
13457
13796
13798
13934
14139
14134
14595
14563
15138
14895
15484
15005
15424
14849
15122
14330
14345
13562
13512
12821
13075
12449
12757
12328
12634
12379
12596
12501
12500
12593
12521
12701
12419
12795
12408
12870
12429
12908
12463
12972
12515
12872
12470
12773
12544
12716
12758
12868
13013
12874
13086
12778
13136
12684
13090
12617
13098
12682
13148
12801
13245
13125
13852
14215
15816
17163
16155
12274
11548
12636
12900
13489
13105
13598
13118
13648
13233
13717
13375
13764
13483
13800
13689
13826
13892
13837
14123
13994
14500
14388
15075
15130
15416
15251
15536
15099
15277
14489
14474
13577
13654
12863
13056
12500
12740
12392
12571
12428
12563
12598
12518
12728
12562
12893
12546
13015
12586
13106
12652
13147
12710
13178
12841
13185
12873
13053
12914
12863
12878
12774
13061
12938
13340
12968
13437
12998
13503
13051
13438
12882
13264
12941
13273
13107
13323
13312
13465
13919
14345
15835
16887
16532
12376
11782
12202
13391
13131
13573
13203
13583
13273
13578
13412
13565
13393
13998
13712
14018
13824
14010
14011
14099
14377
14410
14823
14695
15267
15028
15528
15058
15425
14759
14887
14104
14092
13301
13202
12784
12743
12579
12449
12545
12350
12606
12306
12676
12246
12738
12353
12803
12294
12681
12320
12654
12403
12698
12536
12633
12641
12566
12790
12566
12870
12511
12871
12414
12889
12433
12978
12741
13265
12947
13307
13078
13214
13011
13002
12924
12797
13000
12730
13107
12743
13255
12935
14219
14891
16744
15882
12347
10450
12074
12642
13662
13344
13825
13505
13901
13639
13887
13808
13930
14027
13904
14169
13887
14310
13989
14544
14229
14918
14671
15339
15100
15665
15325
15662
15381
15468
15178
14817
14497
13913
13736
13080
13132
12435
12733
12115
12576
12095
12601
12209
12708
12381
12717
12548
12642
12582
12568
12737
12570
12846
12491
12860
12417
12916
12358
12854
12408
12892
12584
13126
12886
13171
13018
13087
12988
12880
12947
12706
12808
12989
12962
12907
13063
13001
13499
14249
16217
16513
16454
11790
10702
11330
12662
12833
13314
13097
13456
13387
13522
13525
13489
13731
13528
13933
13694
14151
13784
14354
14031
14675
14437
15130
14962
15512
15362
15654
15527
15543
15457
15142
14968
14296
14158
13442
13539
12799
13075
12485
12841
12325
12676
12283
12624
12356
12567
12532
12593
12683
12587
12825
12586
13009
12651
13101
12634
13065
12568
13027
12601
13015
12686
13092
12659
13089
12634
13009
12666
13127
12945
13160
13059
13108
13146
12916
13050
12679
13023
12641
13087
12665
13188
12809
13388
13660
14900
16040
16653
14329
10935
11363
12295
13012
13012
13375
13177
13626
13272
13759
13329
13825
13335
13809
13458
13921
13635
14060
13972
14231
14339
14476
14843
14846
15341
15136
15551
15091
15507
14865
15046
14136
14142
13306
13316
12741
12830
12497
12530
12463
12364
12509
12287
12496
12188
12663
12505
12739
12620
12879
12525
12877
12421
12919
12466
12929
12486
12958
12536
12930
12616
12853
12645
12670
12695
12653
12979
12909
13273
12989
13445
13019
13415
12848
13217
12773
13173
12789
13182
12886
13138
13152
13638
14264
15699
17107
15907
12146
11180
12418
12712
13390
12967
13476
13076
13563
13280
13616
13373
13599
13492
13545
13638
13609
13922
13728
14189
13986
14617
14394
15036
14784
15391
15069
15541
15083
15258
14767
14562
13706
13777
13103
13190
12763
12817
12601
12567
12617
12499
12713
12489
12818
12435
12840
12409
12872
12447
12923
12516
12890
12506
12775
12527
12708
12663
12663
12778
12633
12892
12633
13022
12630
13116
12678
13092
12569
13063
12768
13365
13149
13457
13278
13443
13465
13451
13525
13320
13512
13137
13434
13056
13475
13054
13680
13811
14811
15796
17126
15873
12377
11711
12665
13369
13521
13669
13512
13811
13512
13951
13540
14028
13586
13960
13724
14144
13793
14335
13945
14550
14228
14879
14712
15358
15301
15693
15568
15656
15538
15312
15144
14495
14313
13540
13492
12732
13008
12373
12729
12206
12609
12187
12590
12304
12507
12391
12537
12573
12516
12708
12407
12726
12414
12865
12406
12850
12353
12803
12340
12768
12390
12705
12478
12682
12550
12620
12658
12570
12877
12722
13308
12971
13434
13050
13620
13117
13531
13002
13295
12790
13062
12691
12851
12778
12880
13203
14514
15676
16573
15661
11800
10664
11591
12751
12952
13442
13151
13705
13282
13839
13383
13965
13498
13959
13561
13969
13752
14026
13980
14105
14315
14368
14834
14775
15420
15191
15752
15325
15789
15175
15453
14633
14634
13773
13630
13059
12971
12702
12602
12596
12365
12587
12239
12606
12148
12646
12199
12775
12274
12706
12251
12754
12409
12779
12594
12749
12714
12706
12877
12715
13019
12683
13155
12738
13279
12756
13235
12726
13134
12740
13361
13091
13639
13219
13694
13235
13626
13252
13453
13133
13179
13083
12981
13067
12874
13209
13014
14078
14385
16370
16159
14782
10573
11389
11855
12965
12885
13225
13135
13323
13393
13364
13579
13372
13792
13491
13958
13579
14090
13590
14181
13844
14463
14322
14924
14873
15286
15255
15351
15368
15211
15270
14746
14631
13760
13769
12932
13137
12444
12810
12285
12689
12233
12571
12313
12514
12450
12505
12599
12482
12750
12458
13068
12886
12622
12398
12672
12502
12837
12382
12801
12345
12882
12347
12858
12406
12875
12467
12772
12488
12793
12799
13073
13250
13150
13389
13155
13431
12938
13298
12720
13135
12613
13113
12700
13158
12883
13522
13984
14959
16388
16582
14434
11010
11707
12349
13336
13110
13657
13223
13691
13187
13696
13272
13736
13390
13740
13579
13837
13861
14010
14190
14201
14647
14505
15102
14877
15512
15110
15716
15211
15586
15000
15125
14380
14275
13409
13603
12912
13172
12621
12834
12509
12689
12609
12690
12762
12617
12896
12624
13009
12627
13085
12634
13138
12680
13184
12746
13164
12740
13060
12850
12973
12875
12890
13045
12878
13119
12799
13141
12734
13172
12705
13138
12668
13150
12896
13451
13227
13570
13361
13549
13544
13479
13542
13226
13483
13166
13614
13140
13611
13255
14067
14592
16273
16399
15932
11926
10764
11669
12819
13448
13550
13759
13585
13921
13610
14093
13719
14151
14022
14339
14042
14511
14088
14623
14242
14900
14577
15243
14973
15498
15293
15630
15438
15538
15363
15049
14848
14229
14066
13283
13417
12736
13012
12415
12799
12267
12707
12344
12764
12427
12622
12448
12545
12552
12442
12614
12369
12707
12364
12749
12311
12739
12268
12664
12210
12661
12295
12686
12433
12626
12426
12505
12608
12530
12839
12711
13118
12804
13307
12844
13319
12782
13272
12806
13241
12649
12940
12725
12965
12966
13641
14060
15759
16332
15538
11360
10723
11765
12632
13256
13124
13631
13264
13706
13200
13745
13307
13884
13431
13925
13598
14006
13859
14121
14118
14297
14512
14556
15004
14921
15396
15087
15626
15136
15540
14860
15026
14059
14042
13212
13209
12681
12619
12370
12381
12413
12246
12520
12200
12617
12130
12650
12214
12813
12382
12926
12500
12934
12569
12851
12601
12723
12636
12615
12781
12634
12893
12526
12952
12426
13009
12625
13222
12937
13399
12896
13305
12717
13163
12618
13165
12723
13175
12808
13189
13054
13391
14247
15540
16890
16226
12611
10572
11955
12451
13426
13025
13736
13253
13786
13320
13857
13540
13902
13708
13930
13968
13999
14226
14109
14542
14345
15012
14719
15449
15100
15800
15307
15842
15289
15583
14994
14935
14320
14033
13653
13205
13175
12806
13005
12489
12986
12461
13034
12449
12967
12449
12942
12501
12898
12598
12932
12812
12915
12914
12777
12766
13098
12839
12950
12942
12885
13080
12870
13306
12943
13460
12939
13482
12881
13370
12709
13175
12678
13118
12759
13050
12867
13078
13291
14089
15794
16838
16449
13225
10131
10633
12215
12456
13375
12993
13585
13193
13605
13364
13666
13570
13721
13836
13737
14066
13846
14363
13994
14615
14293
15033
14732
15494
15127
15643
15220
15549
15235
15192
14794
14450
14044
13435
13288
12668
12897
12243
12574
11956
12374
11837
12373
11949
12478
12176
12834
12375
12936
12427
12944
12587
12979
12689
12848
12635
12662
12707
12508
12852
12689
13212
12840
13332
12788
13305
12757
13118
12520
12978
12611
12944
12740
12968
12971
13127
14056
14953
16705
16393
14076
10019
11358
11778
13037
12783
13425
13072
13600
13329
13656
13493
13666
13681
13717
13935
13852
14213
13932
14471
14149
14797
14452
15101
14801
15444
15047
15421
15052
15253
14883
14690
14262
13730
13471
12905
12954
12411
12492
12446
12514
12287
12592
12242
12675
12272
12829
12375
12939
12458
13013
12686
13133
12782
13026
12845
12961
12919
12767
12917
12739
13100
12873
13451
13124
13657
13202
13646
13140
13502
12992
13302
13041
13299
13138
13251
13258
13226
13507
14039
15455
16848
17258
13463
11465
11655
13022
12991
13496
13198
13607
13345
13613
13411
13504
13556
13480
13746
13475
13834
13483
14060
13735
14360
14061
14756
14567
15206
14953
15375
15055
15287
14661
14821
14104
14043
13402
13255
12879
12732
12688
12477
12647
12276
12595
12192
12671
12280
12840
12489
13054
12680
13121
12752
13053
12807
12997
12914
12910
13049
12940
13132
12841
13238
12873
13425
13018
13518
13067
13546
13106
13492
13021
13195
12900
13021
12913
12874
12983
12833
13184
12964
14076
14603
16841
16701
14379
10756
11899
12367
13250
13033
13372
13226
13398
13383
13396
13615
13451
13860
13588
14133
13733
14314
14105
14514
14314
14835
14568
15282
14946
15625
15164
15681
15116
15430
14837
14825
14216
13984
13560
13227
13120
12704
12891
12476
12903
12449
12939
12378
12908
12411
12950
12549
12936
12579
12875
12678
12815
12730
12570
12800
12546
12906
12666
13244
12814
13426
12855
13339
12761
13206
12714
13181
12859
13107
12920
13041
13073
13095
13495
14178
16112
16886
16795
13080
10504
10922
12502
12662
13390
12974
13539
13319
13608
13506
13537
13403
13942
13647
13961
13835
13980
14149
14125
14605
14399
15095
14817
15628
15163
15772
15051
15603
14845
15135
14304
14309
13530
13389
13014
12788
12764
12472
12594
12265
12649
12234
12743
12273
12882
12353
12936
12405
12926
12506
12976
12693
12898
12717
12782
12790
12681
12979
12734
13197
12825
13303
12739
13263
12676
13162
12636
13114
12742
13149
12864
13069
13007
13133
14025
15018
16657
16160
13596
9828
11204
11597
12824
12511
13159
12926
13334
13022
13414
13063
13567
13199
13648
13302
13762
13508
13976
13933
14192
14486
14532
15022
14929
15452
15022
15502
14922
15323
14548
14732
13785
13814
13060
13092
12655
12726
12576
12460
12578
12380
12618
12289
12739
12314
12862
12353
12889
12349
12882
12443
12912
12534
12887
12640
12767
12619
12598
12773
12562
12957
12695
13264
12789
13327
12729
13219
12642
13090
12532
12930
12637
12958
12841
12896
13087
13045
14043
14782
16900
16398
12255
11279
12272
12679
13388
12982
13579
13114
13705
13174
13777
13305
13844
13449
13957
13627
13988
13979
14174
14298
14351
14780
14763
15346
15072
15656
15115
15683
15069
15428
14601
14690
13778
13704
12969
12923
12585
12471
12478
12329
12504
12169
12551
12134
12678
12163
12773
12285
12838
12351
12859
12471
12923
12722
12947
12810
12859
12936
12764
13009
12576
12916
12462
12992
12646
13263
12759
13243
12749
13217
12791
13215
12638
13139
12603
13094
12723
13137
12954
13314
13767
14423
16261
16800
15190
11212
11785
12185
13258
12911
13557
13066
13593
13151
13624
13299
13677
13525
13763
13826
13972
14148
14061
14505
14342
14936
14667
15408
15083
15735
15326
15861
15336
15656
15103
15097
14444
14050
13587
13242
13122
12749
12912
12461
12891
12419
12935
12380
12833
12292
12746
12366
12763
12470
12724
12506
12602
12635
12593
12760
12512
12847
12444
12912
12614
12675
12500
12829
12659
13196
12797
13304
12890
13231
12831
13073
12589
12849
12548
12847
12670
12930
12868
13132
13367
13948
15053
16678
16686
13153
11370
11787
12850
12903
13306
13133
13449
13192
13475
13316
13533
13441
13612
13612
13704
13806
13838
14094
14070
14436
14479
14921
14959
15369
15312
15616
15410
15589
15355
15412
14951
14644
14207
13872
13552
13236
13091
12842
12890
12727
12906
12732
12921
12750
13007
12880
13122
12918
13122
12870
13094
12914
13131
12936
13041
12819
12932
12841
12928
13084
13185
13279
13227
13327
13178
13319
13043
13168
12961
13164
12995
13190
13044
13256
13291
13910
14894
16534
16719
15306
10857
10869
11967
12703
13188
13132
13462
13355
13562
13405
13628
13476
13685
13648
13791
13815
13927
14001
14046
14223
14281
14613
14648
15012
15048
15282
15079
15197
14867
14814
14401
14137
13637
13352
13033
12848
12696
12498
12467
12263
12355
12439
12449
12410
12460
12377
12568
12480
12649
12498
12685
12466
12611
12279
12419
12287
12402
12373
12616
12710
12853
12922
12862
12904
12798
12823
12699
12923
12759
12958
12803
13059
12993
13372
14188
15636
16779
16511
13293
10274
11432
12371
13111
13221
13440
13404
13606
13433
13680
13555
13744
13619
13834
13699
13845
13861
13990
14066
14194
14414
14545
14864
14945
15215
15095
15287
15084
15086
14625
14483
13910
13628
13172
13016
12732
12797
12533
12635
12506
12605
12463
12554
12611
12655
12734
12671
12787
12731
12896
12732
12888
12747
12899
12728
12859
12645
12747
12625
12660
12662
12800
12910
12904
13069
12972
13130
12971
13055
12833
12986
12736
12942
12812
13014
12990
13303
14007
15131
16592
16670
13538
10804
11590
12319
12894
12903
13103
13027
13238
13149
13368
13266
13472
13339
13472
13442
13627
13638
13773
13954
14098
14376
14567
14915
14991
15267
16298
16163
15444
14960
14293
13874
13474
13172
12964
12779
12722
12576
12648
12461
12570
12362
12486
12322
12516
12338
12481
12394
12553
12472
12458
12411
12425
12497
12415
12447
12349
12501
12405
12681
12659
12931
12805
13039
12862
12948
12832
12897
12824
12876
12931
12874
13037
12934
13242
13236
14147
15072
17026
16537
13138
11201
12113
12689
13147
13139
13277
13322
13372
13485
13436
13595
13459
13646
13609
13859
13806
13998
13946
14199
14267
14628
14718
15088
15039
15268
15102
15188
14973
14943
14569
14292
13841
13499
13177
12884
12735
12538
12580
12430
12534
12350
12491
12359
12518
12373
12551
12426
12582
12499
12599
12588
12630
12587
12530
12553
12482
12605
12520
12694
12624
12825
12625
12771
12690
12982
12976
13250
13258
13346
13331
13294
13465
13165
13291
12937
13216
13009
13358
12964
13504
13316
13735
14256
15114
16715
16707
14334
11329
12237
12631
13593
13192
13678
13524
13873
13482
13922
13439
13941
13405
14013
13595
14185
13825
14327
14144
14563
14571
14881
15160
15271
15553
15309
15653
15180
15526
14759
14909
13971
14067
13155
13331
12697
12859
12436
12588
12433
12484
12516
12370
12534
12198
12586
12174
12703
12273
12813
12319
12852
12403
12880
12498
12818
12590
12793
12716
12720
12829
12647
12943
12550
12879
12499
13072
12753
13379
12914
13443
12941
13358
12953
13178
12834
12945
12889
13103
12768
13149
12921
13300
13874
14552
16112
16235
14564
10741
11598
12131
13342
12984
13584
13187
13740
13273
13756
13394
13735
13586
13763
13744
13778
13987
13866
14336
14074
14717
14461
15207
14901
15609
15192
15729
15155
15517
14950
15002
14410
14182
13761
13416
13340
12878
13069
12547
13006
12542
13098
12512
13087
12515
13097
12638
13059
12778
13101
12952
13029
13042
12911
13106
12774
13160
12648
13136
12564
13093
12510
13054
12665
13289
12883
13514
13005
13602
12997
13489
12915
13227
12872
13193
13025
13153
13215
13126
13505
13861
15601
16605
16562
13757
10387
10594
12236
12522
13398
13052
13559
13286
13539
13469
13554
13671
13501
13826
13529
14038
13678
14348
13864
14587
14177
14976
14648
15372
15105
15524
15281
15430
15242
15023
14855
14296
14172
13338
13466
12692
13066
12347
12773
12151
12690
12152
12658
12284
12683
12556
12713
12677
12604
12829
12608
12703
12909
12798
12724
12795
12553
12845
12460
12935
12439
12923
12325
12915
12376
12973
12619
13169
12844
13195
12991
13078
12998
12864
13028
12753
13115
12708
13251
12783
13518
13488
14991
15963
16876
14957
11164
10987
12261
12905
13270
13336
13256
13532
13323
13757
13395
13972
13544
14103
13556
14135
13687
14258
13930
14499
14352
14796
14890
15202
15461
15413
15656
15283
15581
14934
15163
14238
14312
13328
13506
12761
13023
12457
12755
12142
12648
12130
12633
12242
12661
12406
12665
12571
12619
12721
12581
12816
12512
12953
12512
12977
12451
12937
12424
12980
12520
12940
12537
12780
12501
12746
12746
12972
13160
13048
13320
13034
13480
12971
13350
12766
13223
12726
13204
12824
13349
13053
13495
14075
15049
16719
16832
14400
11052
11857
12359
13301
13014
13583
13109
13634
13217
13715
13417
13864
13608
13829
13747
13923
14006
14060
14378
14256
14706
14578
15164
15183
15546
15417
15658
15274
15562
14895
14975
14137
14152
13310
13454
12857
13052
12621
12716
12505
12560
12560
12494
12651
12449
12796
12482
12862
12350
12770
12323
12769
12323
12783
12403
12730
12457
12694
12603
12685
12680
12541
12774
12567
13068
12811
13282
12896
13351
12942
13322
12839
13143
12678
12992
12707
12907
12800
12881
13075
13322
14198
15355
16936
15515
11584
10549
12017
12411
13154
12826
13317
13029
13406
13268
13464
13468
13837
13596
13965
13794
14037
13991
14127
14339
14330
14764
14665
15249
15015
15496
15038
15449
14859
15079
14391
14347
13580
13395
12824
12728
12491
12380
12405
12236
12495
12215
12621
12177
12614
12166
12711
12290
12830
12488
12872
12581
12864
12737
12912
12906
12880
12982
12826
13155
12905
13411
13075
13644
13258
13740
13231
13586
13102
13317
12963
13204
13080
13220
13263
13226
13541
13641
15238
16533
17508
16018
11684
10500
12132
12937
13680
13357
13913
13482
13898
13463
13918
13570
13983
13733
14063
13929
14083
14149
14235
14549
14545
15015
14830
15458
15201
15741
15299
15704
15114
15351
14656
14604
13937
13820
13273
13053
12896
12647
12711
12379
12698
12329
12786
12339
12836
12341
12857
12433
12853
12431
12784
12545
12726
12588
12677
12697
12635
12980
12778
13232
12923
13349
12843
13265
12694
13093
12655
13070
12697
13049
12870
13015
13077
13729
14879
16199
16048
13050
10181
11394
12398
12936
13319
13060
13505
13146
13581
13108
13634
13148
13731
13355
13817
13490
13896
13760
14129
14217
14384
14709
14817
15286
15110
15537
15115
15498
14916
15140
14287
14271
13404
13484
12814
12878
12500
12524
12409
12390
12502
12262
12607
12308
12759
12354
12826
12398
12921
12470
12945
12575
12927
12584
12827
12657
12849
12930
12992
13259
13017
13293
12813
13235
12766
13150
12663
13105
12649
13062
12707
13274
13241
14489
15381
17066
16193
12081
10930
12100
12684
13046
13120
13156
13349
13184
13490
13204
13626
13249
13743
13276
13840
13471
14000
13717
14200
14106
14567
14686
14942
15123
15114
15304
15048
15285
14755
14910
14049
14097
13255
13414
12748
12990
12464
12700
12410
12607
12585
12597
12655
12505
12749
12552
12866
12498
12942
12457
12949
12520
13012
12583
12889
12486
12815
12571
12853
12977
13054
13161
13029
13261
12930
13276
13036
13129
12974
13178
12889
13192
12842
13414
13353
14430
15751
17988
16697
12672
11661
12597
12953
13297
13299
13368
13483
13304
13537
13231
13601
13236
13714
13314
13832
13441
13971
13650
14148
14006
14497
14520
14893
15011
15077
15262
15036
15161
14677
14807
14002
14020
13188
13295
12581
12868
12356
12634
12314
12589
12387
12509
12524
12487
12739
12598
12899
12567
12961
12597
13085
12632
13091
12654
13026
12617
12947
12682
12852
13122
12730
13154
12896
13292
13204
13282
13103
13070
13160
12919
13042
12551
12834
12465
12893
12442
12943
12482
13143
13138
14100
14951
17039
16404
12790
11074
11859
12801
12846
13253
13045
13456
13084
13589
13170
13647
13276
13746
13462
13892
13688
14007
14016
14242
14330
14381
14694
14617
15107
14855
15328
14892
15299
14733
14909
14182
14219
13420
13413
12892
12909
12631
12576
12591
12486
12674
12466
12776
12486
12924
12459
12865
12516
12793
12451
12769
12354
12801
12353
12751
12331
12729
12428
12769
12531
12756
12600
12611
12612
12484
12750
12616
13128
12864
13339
12908
13378
13007
13393
12987
13291
12924
13266
13092
13304
13252
13348
13588
14202
15238
16486
16710
13309
11031
11386
12819
12979
13563
13307
13841
13547
13870
13596
13776
13749
13782
13939
13853
14145
13871
14283
14028
14569
14205
14846
14617
15236
14959
15382
15080
15297
15020
14972
14656
14270
13989
13532
13034
12959
12708
12583
12649
12473
12739
12450
12838
12458
12945
12524
13060
12645
13086
12700
13160
12880
13168
12989
13113
13047
12927
12956
12687
13005
12658
13120
12813
13421
13014
13570
13162
13598
13110
13386
12946
13193
13057
13172
13174
13141
13471
13423
14833
15769
17265
16343
12773
10210
11939
12487
13478
13244
13665
13487
13737
13580
13702
13809
13795
14048
13805
14228
13927
14449
14101
14679
14319
14965
14700
15299
15121
15713
15266
15618
14991
15206
14518
14489
13742
13574
13075
12883
12728
12535
12641
12335
12614
12202
12621
12218
12753
12362
12856
12433
12886
12552
12907
12674
12867
12698
12718
12724
12569
12848
12683
13127
12803
13290
12804
13236
12698
13074
12597
13024
12647
12985
12787
12983
13126
13663
14891
16238
16696
15152
10838
10482
12053
12441
13234
12857
13388
12991
13451
13227
13555
13433
13623
13610
13579
13795
13715
14081
13858
14328
14595
14919
14997
15416
15273
15685
15212
15525
14884
15018
14186
14150
13304
13320
12759
12831
12493
12493
12354
12295
12416
12253
12573
12311
12753
12396
12861
12428
12903
12518
12939
12554
12922
12571
12741
12552
12655
12696
12752
13012
12813
13167
12743
13109
12595
13028
12496
12906
12432
12920
12510
12945
12794
13279
13970
15195
16414
16214
12514
10504
11865
12395
13261
12856
13454
13017
13573
13103
13618
13224
13627
13365
13790
13346
13894
13531
13997
13819
14278
14331
14667
14889
14921
15239
14998
15326
14826
15169
14438
14582
13631
13782
13012
13281
12706
12941
12587
12779
12606
12685
12797
12674
12932
12641
13086
12637
13099
12641
13177
12691
13190
12658
13013
12596
12966
12726
12937
12938
13042
13162
13043
13250
12824
13191
12668
13104
12587
13137
12629
13109
12725
13350
13182
14298
15161
17032
17202
13686
11476
12075
13188
13194
13721
13247
13839
13562
13897
13591
14093
13592
14136
13556
14177
13668
14336
13869
14467
14201
14763
14752
15093
15155
15253
15354
15048
15245
14643
14841
13916
14091
13109
13335
12519
12907
12309
12810
12409
12704
12471
12650
12632
12577
12795
12546
12931
12501
13026
12538
13168
12554
13176
12650
13254
12757
13123
12697
12945
12742
12910
13123
13084
13355
13002
13387
12937
13421
12794
13296
12712
13272
12773
13320
12896
13341
13171
14119
14797
16446
16614
13484
11170
12210
12877
13396
13486
13461
13729
13462
13789
13402
13896
13417
13908
13390
13886
13394
13923
13608
14162
14058
14475
14500
14792
15014
14985
15257
14897
15167
14537
14762
13831
13977
13030
13234
12462
12690
12108
12322
12019
12258
12183
12213
12363
12193
12548
12234
12674
12232
12792
12282
12888
12406
12990
12499
12971
12554
12918
12697
12853
12863
12872
13022
12769
13097
12780
13348
12962
13643
13205
13763
13219
13768
13325
13819
13181
13712
13148
13692
13163
13624
13303
13845
14244
15128
16692
17005
14928
11265
12055
12521
13554
13131
13796
13302
13977
13362
13990
13492
13995
13625
14014
13820
13965
13963
13974
14256
14102
14705
14439
15172
14779
15559
14931
15542
14869
15294
14618
14739
13951
13799
13214
12965
12757
12464
12587
12222
12616
12128
12714
12239
12821
12264
12897
12358
12917
12483
12899
12639
12877
12764
12799
12832
12638
12849
12464
12615
12828
13003
13015
13252
12917
13328
12824
13228
12643
13140
12494
13031
12518
13082
12664
13095
12830
13237
13826
14742
16478
16721
14287
10858
11944
12275
13292
12768
13491
12898
13569
12972
13572
13116
13590
13272
13549
13470
13557
13744
13640
14094
13833
14567
14162
15017
14542
15329
14678
15331
14666
15151
14465
14513
13741
13483
13045
12769
12743
12328
12606
12143
12718
12140
12806
12128
12806
12193
12843
12300
12858
12488
13041
12471
13119
12579
13059
12644
12992
12726
12934
12930
12918
13069
12719
13017
12676
13213
12783
13475
12974
13546
12983
13553
13032
13438
12930
13156
12959
13091
13104
13064
13276
13100
13688
13991
15585
16469
16771
12825
11463
11690
13123
13330
13697
13274
13538
13429
13563
13667
13607
13914
13603
14054
13610
14173
13620
14339
13917
14808
14498
15312
15091
15691
15489
15904
15821
15811
15745
15298
15271
14453
14410
13410
13658
12918
13081
12696
13067
12650
13207
12662
13272
12598
13266
12694
13233
12735
13164
12819
13076
12965
13021
13091
12874
13132
12737
13212
12737
13313
12647
13235
12613
13099
12538
13133
12851
13354
13083
13276
13141
13148
13212
12838
13030
12542
13026
12485
12995
12317
12976
12518
13436
13608
15535
16143
15659
11115
10581
11517
12324
12934
12761
13267
12792
13403
12890
13700
13092
13630
12946
13548
13059
13624
13314
13740
13741
14110
14156
14997
14826
15443
15316
15589
15488
15375
15337
14794
14718
13883
14006
13091
13389
12541
13058
12342
12909
12367
12939
12540
12941
12708
12862
12812
12687
12893
12561
13002
12486
13069
12343
13013
12239
12992
12203
12825
12173
12775
12263
12554
12351
12549
12680
12702
13104
12728
13270
12720
13388
12701
13392
12651
13337
12670
13334
12749
13235
12940
13460
14213
15735
16951
15685
13040
9567
11292
11786
13280
12905
13718
13070
13945
13465
14235
13593
14408
13616
14474
13782
14623
14121
14872
14598
15041
15015
15259
15555
15456
15959
15487
16109
15276
15972
14871
15391
14056
14492
13352
13760
12862
13211
12712
12861
12648
12628
12807
12500
13003
12474
13202
12488
13389
12530
13370
12561
13363
12593
13266
12665
13147
12758
12862
12763
12688
12955
12704
13416
12914
13704
12931
13662
12745
13482
12556
13271
12534
13132
12650
13087
12854
13158
13678
14652
16385
16277
12956
10153
11267
12294
13165
13023
13561
13135
13791
13163
13888
13195
13928
13250
13988
13407
14087
13696
14188
14048
14346
14591
14659
15199
15017
15663
15074
15692
14880
15583
14499
14948
13700
13995
12883
13140
12439
12704
12397
12397
12449
12266
12617
12139
12737
12154
12927
12177
13034
12272
13059
12377
13046
12485
13047
12684
13004
12845
12919
12977
12761
13167
12745
13245
12564
13184
12542
13357
12780
13635
13017
13685
13157
13802
13060
13681
12868
13424
12872
13398
13036
13408
13368
13568
14335
14949
16918
16931
15471
11358
12355
12363
13604
13021
13815
13230
13847
13338
13793
13490
13708
13623
13669
13855
13637
14065
13622
14282
13837
14620
14202
15061
14603
15397
14869
15424
14917
15188
14687
14560
14097
13574
13331
12697
12870
12258
12708
12143
12777
12142
12760
12166
12808
12292
12756
12399
12759
12520
12646
12633
12537
12727
12430
12835
12358
12899
12579
12773
12538
12918
12482
12941
12314
12930
12385
13146
12693
13283
12763
13243
12889
13206
12936
12979
12919
12827
13146
12883
13277
12770
13399
13005
14381
14568
16896
16359
14109
10920
11941
12382
13081
13030
13202
13379
13294
13650
13406
14007
13551
14208
13651
14372
13780
14505
13982
14625
14273
14843
14754
15262
15352
15548
15691
15495
15737
15252
15419
14580
14676
13653
13808
12922
13285
12541
12899
12369
12660
12373
12544
12219
12755
12331
12729
12469
12660
12552
12563
12599
12434
12735
12423
12870
12339
12853
12330
12967
12464
13073
12585
13092
12720
13132
12909
13103
13043
13052
13195
12998
13243
12798
13280
12921
13604
13128
13739
13210
13798
13349
13774
13381
13588
13282
13332
13367
13365
13595
13543
14390
14582
16357
16505
15750
11359
11711
12154
13376
13109
13522
13266
13608
13481
13547
13656
13623
13839
13584
13918
13558
14075
13629
14269
13887
14533
14446
15135
14899
15547
15117
15573
15008
15411
14796
14860
14144
13933
13388
13173
12916
12598
12722
12414
12728
12357
12814
12398
12897
12412
12967
12589
13041
12644
13004
12713
12914
12749
12737
12789
12710
12934
12566
12928
12536
12985
12467
12996
12510
12963
12432
12848
12544
12953
12843
13200
13145
13166
13231
13073
13312
12917
13229
12675
13139
12614
13184
12761
13284
12972
13697
14527
16451
16172
15057
10687
10593
11981
13278
13348
13583
13607
13648
13750
13631
13941
13604
14061
13659
14225
13740
14289
13843
14416
14142
14674
14547
15052
15235
15617
15508
15628
15482
15398
15281
14918
14619
13937
13750
13092
13152
12688
12868
12481
12764
12491
12764
12482
12698
12586
12672
12691
12720
12817
12761
12965
12814
13031
12781
13106
12774
13084
12765
13045
12752
13005
12825
12927
12797
12858
12794
12716
12626
12424
12681
12486
12956
12466
12997
12739
13131
12763
13183
12708
13052
12681
13058
12801
13052
12942
13377
13790
14573
15983
16491
15604
11484
11746
12324
13370
13171
13623
13305
13744
13410
13739
13490
13759
13554
13709
13649
13778
13945
13920
14289
14116
14562
14390
15008
14792
15715
15224
15715
15474
15544
15073
15039
14348
14053
13690
13255
13159
12890
12840
12389
12900
12545
12763
12279
12797
12605
12962
12522
12884
12842
12861
12779
12896
12877
12871
13095
12886
12996
12772
14316
13939
14219
13677
13756
13402
13318
13164
13209
13040
13069
13392
13271
13363
12961
13308
12883
13156
12660
13019
12608
12998
12750
13039
12982
13744
14503
16122
17015
15546
11478
11085
12158
12515
13062
12819
13326
13200
13486
12829
13043
12902
13304
13152
13378
13537
13879
13764
13481
13764
13706
14267
14291
15058
14814
15017
14630
15054
14725
14905
14380
14313
13800
13368
13151
12809
12557
12283
12396
12181
12614
12322
12896
12236
12504
12346
12719
12570
12837
12341
12689
12421
12963
12451
12630
12110
12252
12170
12407
12406
12448
12654
12493
12575
12402
12840
12337
12592
12255
12618
12427
12956
12864
13428
13164
13221
13111
13177
13214
13183
13283
13038
13322
13094
13355
13090
13556
13268
14343
14913
16751
16736
15083
11196
11807
12668
13412
13682
13705
13970
13751
13959
13661
14024
13710
14115
13755
14082
13781
14173
13923
14192
14117
14439
14465
14840
15019
15533
15419
15708
15533
15642
15327
15148
14767
14341
14041
13598
13491
13074
13148
12809
13044
12725
12949
12595
12884
12711
12997
12823
12986
12899
12983
13008
12944
13017
12865
13062
12852
13068
12762
13028
12653
12916
12604
12895
12564
12794
12785
12857
13061
13012
13198
12905
13162
12737
13078
12610
13036
12645
13179
12905
13456
13421
14932
16377
16729
15575
11117
10468
11585
12818
13063
13561
13267
13817
13420
13876
13530
13938
13619
14156
13832
14330
13941
14425
14151
14699
14624
15090
15147
15494
15698
15766
15872
15640
15768
15244
15276
14437
14347
13523
13550
12847
12946
12493
12727
12333
12458
12348
12470
12510
12477
12638
12497
12839
12552
12917
12558
12958
12597
13005
12605
12919
12610
12840
12517
12659
12576
12598
12811
12904
13198
13044
13376
13062
13313
12881
13186
12841
13229
12867
13177
12888
13178
13141
13703
14600
16135
16986
15716
11363
10985
12335
12985
13196
13195
13486
13296
13586
13261
13649
13317
13696
13315
13734
13474
13896
13724
14083
14030
14310
14447
14708
15003
15020
15287
15011
15229
14781
14876
14147
14055
13218
13220
12615
12733
12315
12444
12273
12406
12384
12334
12447
12292
12530
12291
12652
12337
12729
12375
12757
12408
12828
12483
12752
12519
12681
12561
12610
12619
12533
12710
12477
12692
12344
12718
12447
13028
12799
13248
12925
13253
12925
13176
12942
13112
12813
13222
12923
13261
13101
13437
13531
14303
15147
16844
17260
14649
11928
12051
13173
13228
13710
13439
13857
13555
13927
13655
13946
13760
13955
13878
13955
14069
14049
14279
14146
14519
14330
14885
14736
15329
15104
15556
15233
15546
15158
15142
14602
14289
13774
13348
13071
12736
12761
12403
12587
12201
12568
12218
12634
12252
12572
12244
12590
12392
12652
12510
12621
12609
12603
12746
12585
12800
12532
12902
12533
12895
12652
12964
12765
13139
12814
13186
12774
13025
12630
13052
12811
13214
13043
13249
13111
13258
13206
13121
13152
12948
13171
12865
13214
12937
13446
13292
14125
14353
15924
16784
16285
12384
11638
12350
13091
13339
13306
13524
13316
13593
13296
13722
13388
13762
13372
13793
13485
13896
13695
14060
13951
14245
14385
14638
14914
14988
15337
15148
15447
15063
15280
14694
14726
13898
13837
13128
13215
12725
12834
12595
12698
12588
12529
12447
12719
12542
12745
12715
12781
12873
12783
12963
12771
13072
12720
13047
12660
13046
12708
13062
12747
13062
12743
12993
12873
13042
13028
13026
13127
13003
13269
13006
13309
12938
13296
12852
13089
12709
13093
12897
13283
13027
13279
13140
13241
13219
13147
13257
13005
13221
12937
13315
12978
13489
13333
14469
14636
16313
16106
14572
11315
11941
12686
13273
13402
13461
13673
13503
13808
13506
13853
13515
13895
13523
13964
13678
14070
13906
14449
14192
14748
14618
15225
15122
15558
15416
15589
15392
15311
15134
14703
14440
13767
13653
12989
13115
12537
12777
12270
12630
12229
12603
12314
12580
12396
12587
12559
12585
12687
12622
12860
12659
12978
12665
13053
12698
13016
12614
12961
12625
12970
12672
12886
12773
12923
12858
12872
13026
12860
13076
12807
13119
12722
13096
12772
13225
12986
13426
13150
13448
13196
13421
13208
13220
13097
12960
13127
13000
13292
13073
13645
14681
16093
16976
16301
13381
10594
11339
12766
13144
13736
13408
13893
13612
13911
13693
13947
13850
13940
13936
13966
14147
14061
14376
14149
14591
14377
14984
14826
15403
15252
15695
15392
15623
15308
15345
14919
14552
14173
13611
13401
12846
12925
12451
12690
12179
12492
12094
12483
12112
12502
12285
12603
12419
12579
12512
12579
12648
12570
12794
12523
12818
12521
12911
12545
12922
12535
12870
12547
12907
12675
12872
12743
12960
12586
12883
12693
13046
13094
13342
13347
13315
13410
13289
13423
13099
13292
12862
13195
12815
13242
12930
13452
13416
14634
15648
16577
15621
11803
10868
11807
12822
13032
13373
13220
13575
13241
13658
13375
13853
13559
13996
13722
14050
13886
14213
14159
14348
14530
14691
15067
15163
15604
15495
15900
15578
15861
15315
15440
14683
14534
13781
13657
13083
12998
12699
12594
12541
12416
12547
12370
12718
12405
12829
12446
12797
12499
12835
12608
12963
12588
12975
12601
12972
12600
12910
12601
12804
12599
12788
12754
12754
12830
12721
12943
12713
12965
12634
12887
12525
12984
12780
13249
12922
13239
12935
13201
13049
13134
13117
13008
13106
12995
13240
13030
13407
13314
14286
14592
16412
16510
15498
11469
11812
12410
13239
13288
13437
13486
13491
13655
13541
13826
13571
13944
13655
14012
13674
14106
13838
14271
14084
14507
14472
14942
15034
15291
15454
15433
15349
15520
15173
14933
14433
13890
13492
12986
12912
12471
12674
12249
12589
12138
12484
12121
12484
12180
12502
12312
12542
12409
12450
12490
12425
12618
12481
12758
12455
12762
12425
12809
12451
12779
12460
12810
12505
12747
12558
12762
12667
12691
12690
12527
12708
12529
12994
12891
13363
13074
13459
13115
13553
13199
13491
13201
13461
13303
13428
13395
13448
13766
14028
14965
15987
17079
15805
12359
11428
12710
13082
13730
13498
13950
13656
14009
13640
14051
13730
14092
13901
14173
14032
14171
14236
14281
14526
14533
14913
14885
15428
15243
15704
15328
15711
15314
15456
14774
14633
13968
13696
13187
12967
12732
12529
12494
12216
12466
12230
12517
12164
12521
12175
12572
12182
12506
12267
12569
12406
12619
12562
12535
12612
12479
12706
12444
12732
12353
12717
12347
12756
12416
12741
12458
12817
12653
12816
12711
12794
12768
12780
12995
12981
13418
13190
13594
13418
13649
13463
13598
13187
13455
13053
13414
13067
13524
13255
13856
14535
15938
16628
16356
12857
10793
11776
12735
13384
13285
13604
13386
13741
13354
13736
13379
13828
13525
13964
13697
14051
13934
14202
14218
14454
14659
14762
15139
15215
15673
15458
15829
15374
15663
15054
15161
14361
14304
13606
13484
12998
12971
12726
12642
12655
12540
12789
12511
12831
12464
12844
12524
12989
12556
12917
12579
12910
12631
12837
12597
12695
12655
12772
12494
12714
12550
12697
12688
12708
12750
12560
12794
12626
12988
12774
13215
12891
13317
12971
13347
13026
13306
12968
13187
13076
13197
13212
13215
13439
13385
14681
15862
17174
16144
13067
10103
11634
12273
13272
13158
13574
13478
13664
13534
13627
13722
13695
13860
13702
14053
13803
14253
13930
14384
14145
14714
14596
15179
15136
15543
15449
15592
15522
15401
15265
14717
14470
13741
13638
12923
13066
12548
12831
12395
12716
12413
12843
12529
12926
12565
12917
12592
12959
12673
12937
12715
12890
12774
12820
12879
12818
12996
12807
13088
12798
13182
12811
13216
12926
13150
12745
13049
12751
12978
12702
12881
12820
13039
13248
13196
13424
13175
13465
13140
13427
12999
13281
12890
13268
12939
13285
13050
13468
13989
15006
16598
16829
14736
11362
11951
12468
13258
13043
13456
13080
13473
13163
13567
13238
13581
13409
13714
13663
13851
13928
13985
14216
14170
14441
14814
14989
15249
15475
15403
15597
15323
15554
14957
14948
14100
14033
13220
13234
12649
12785
12405
12516
12275
12349
12382
12387
12458
12273
12535
12269
12568
12198
12596
12261
12713
12379
12773
12467
12770
12575
12742
12586
12620
12631
12551
12734
12548
12810
12481
12817
12414
12888
12559
13095
12923
13336
13081
13353
13174
13273
13123
13040
13025
12907
13105
12890
13306
13057
13626
13665
15137
16310
17024
15441
11403
11142
12890
13177
13721
13372
13773
13476
13700
13513
13757
13709
13741
13888
13817
13978
13812
14182
13960
14461
14226
14837
14705
15286
15109
15543
15250
