13334
13467
13660
13352
13447
13080
13185
12919
12983
12743
12934
12885
13068
13048
13141
13076
13007
13016
12832
12904
12757
12931
12839
13084
12909
13303
13652
15092
16390
16473
14618
10355
10723
11771
12430
12775
12899
12957
13173
13085
13268
13142
13416
13223
13492
13317
13627
13516
13724
13728
13981
14023
14320
14543
14758
14945
14898
14963
14811
14865
14388
14311
13758
13547
13008
12946
12604
12668
12437
12517
12426
12470
12534
12575
12584
12865
12842
12946
12937
12995
13083
13105
13256
13051
13115
12912
12970
12802
13085
12957
13270
13252
13462
13393
13564
13433
13478
13352
13311
13303
13225
13371
13282
13508
13378
13717
14282
15736
16816
17099
14468
10875
11418
12322
12769
12971
12967
13024
13073
13000
13163
13093
13299
13202
13500
13369
13562
13383
13640
13668
14000
13985
14302
14487
14710
14768
14804
14828
14583
14619
14313
14247
13793
13642
13150
13141
12813
12904
12683
12859
12668
12924
12725
12932
12835
13083
12990
13145
13027
13075
13067
13063
13100
13053
13207
13043
13139
12912
13086
12892
13148
13115
13441
13277
13420
13251
13357
13238
13187
13114
13025
13115
13112
13075
13126
13304
13415
14181
15392
17002
17075
13839
11356
12106
12663
13103
13119
13313
13310
13444
13452
13524
13535
13493
13500
13493
13558
13609
13732
13764
14022
14063
14311
14380
14592
14631
14769
14679
14647
14493
14314
14009
13681
13233
12963
12615
12410
12316
12311
12280
12284
12441
12453
12555
12498
12629
12601
12790
12735
12774
12672
12719
12674
12695
12662
12682
12694
12703
12719
12695
12748
12710
12764
12752
12921
13083
13259
13169
13255
13222
13298
13194
13189
13024
13023
12985
12988
13052
13114
13243
13456
13986
14789
16378
17457
16668
12534
11894
12437
13018
13134
13331
13481
13547
13451
13459
13572
13635
13727
13742
13854
13848
13993
14012
14148
14133
14290
14359
14539
14663
14823
14698
14669
14512
14414
14151
13904
13524
13279
12922
12694
12533
12395
12303
12190
12276
12221
12413
12442
12590
12566
12698
12704
12742
12673
12728
12714
12787
12801
12776
12812
12793
12824
12769
12892
12861
12936
12853
12870
12791
12937
12920
13181
13229
13366
13398
13464
13483
13496
13481
13403
13465
13429
13555
13480
13522
13452
13745
14111
14912
16395
17204
15848
12037
11879
12625
13236
13437
13496
13613
13620
13694
13728
13818
13880
13872
13888
13897
14033
14014
14134
14071
14224
14255
14468
14525
14751
14730
14859
14932
14843
14679
14456
14111
13709
13384
13101
12969
12801
12772
12632
12704
12643
12759
12675
12748
12803
12843
12778
12802
12746
12712
12712
12776
12838
12729
12830
12782
12898
12836
12935
12851
12970
12918
12961
12893
12945
12873
12836
12712
12705
12776
12850
13043
13005
13141
13080
13247
13200
13307
13157
13231
13212
13362
13323
13440
13457
13705
14183
15011
16373
16787
15098
11693
12025
12774
13312
13408
13522
13465
13520
13451
13533
13505
13577
13566
13707
13667
13771
13807
13937
14034
14192
14393
14578
14863
15021
15231
15184
15237
15066
14993
14672
14444
13983
13700
13396
13201
12926
12773
12589
12584
12626
12576
12614
12577
12704
12703
12795
12716
12829
12769
12867
12772
12850
12767
12819
12779
12867
12900
12878
12797
12783
12902
13021
13094
13090
13037
13010
13044
13091
13324
13329
13429
13373
13499
13434
13521
13403
13394
13345
13354
13292
13359
13429
13543
13744
14806
16391
16690
16063
11765
11002
11932
12725
13107
13297
13267
13436
13462
13552
13593
13631
13620
13685
13745
13778
13779
13785
13923
14022
14306
14379
14587
14702
15073
15086
15167
15084
15010
14725
14543
14190
13897
13597
13266
13083
12874
12834
12654
12642
12544
12663
12669
12843
12835
12968
12973
13134
13087
13320
13210
13005
12842
12888
12859
12843
12890
12885
12899
12888
12890
12870
12876
12814
13025
13055
13175
13109
13103
13028
13064
13019
12957
12975
13043
13109
13096
13177
13176
13314
13835
14970
16461
17016
15587
11395
11412
12289
12935
13247
13377
13581
13646
13694
13683
13764
13820
13854
13951
13881
13938
13936
14052
14070
14247
14357
14557
14729
14961
15071
15227
15116
15062
14966
14776
14511
14190
13848
13361
13011
12837
12695
12540
12394
12346
12421
12350
12371
12398
12511
12567
12654
12613
12654
12617
12614
12610
12605
12600
12538
12545
12482
12533
12591
12672
12633
12708
12618
12619
12635
12659
12706
12907
13007
13037
13043
13079
13117
13027
13025
12922
12961
12914
13048
13029
13101
13266
13826
14621
16029
16789
15779
11829
11586
12273
12806
13081
13176
13313
13235
13292
13264
13309
13262
13319
13294
13400
13417
13513
13617
13746
13896
14218
14401
14663
14803
14929
14959
14945
14876
14726
14526
14199
13889
13450
13181
12821
12720
12557
12505
12443
12486
12529
12607
12661
12741
12774
12876
12961
12956
13020
12947
12995
12911
13055
13104
13236
13158
13150
13082
13141
13091
13062
12959
12861
12915
12881
13005
13112
13191
13140
13211
13201
13276
13177
13205
13115
13249
13240
13294
13306
13383
13516
13751
14520
15768
17179
16943
13639
11729
12446
13064
13472
13536
13730
13720
13772
13731
13810
13787
13953
13917
13978
14006
14116
14111
14209
14273
14395
14587
14737
14948
14984
15106
15074
15038
14772
14653
14290
13954
13539
13319
12951
12824
12650
12591
12536
12520
12506
12503
12611
12652
12748
12707
12807
12772
12834
12777
12897
12841
12925
12855
12891
12802
12817
12795
12794
12760
12735
12823
12808
12807
12714
12851
12829
13049
13116
13244
13181
13218
13134
13128
13024
12961
12919
12936
12987
13047
13119
13317
13461
14328
15524
16575
16581
13425
11156
11920
12806
13173
13369
13459
13668
13651
13705
13691
13758
13726
13801
13829
13870
13921
13924
14048
14093
14229
14297
14581
14743
14925
14902
14966
14836
14783
14643
14458
14117
13850
13535
13185
12966
12866
12808
12620
12606
12563
12658
12645
12776
12805
12965
12919
12962
12911
12918
12837
12827
12822
12845
12844
12811
12845
12805
12878
12760
12816
12788
12900
12973
13190
13203
13383
13305
13382
13241
13236
13142
13174
13104
13113
13093
13120
13145
13355
14215
15542
16677
16316
13549
10252
11314
12148
12904
13108
13248
13258
13370
13361
13470
13513
13584
13611
13683
13714
13686
13789
13813
13956
14040
14327
14455
14713
14829
15001
14965
15022
14890
14837
14622
14292
13975
13655
13420
13156
12988
12784
12732
12613
12668
12602
12688
12653
12804
12736
12774
12749
12783
12787
12826
12883
12946
12963
12900
12943
12861
12870
12878
12887
12861
13016
13042
13216
13159
13151
13024
13112
12975
13090
12925
12875
12827
12892
12894
13101
13251
14187
15724
16699
16604
12713
10682
11562
12394
12844
13098
13132
13244
13234
13320
13296
13393
13445
13567
13609
13666
13780
13817
13904
13986
14262
14421
14759
14900
15118
15163
15197
15060
15028
14808
14534
14200
13827
13518
13229
13101
12885
12802
12698
12779
12732
12825
12809
12985
12926
12970
12917
12997
13033
13147
13018
13062
12999
13091
13000
12969
12886
12931
12906
12921
13020
13110
13198
13126
13149
13046
13039
12849
12863
12753
12795
12797
12885
12758
12903
12981
13527
14553
16176
17075
15423
11426
11577
12386
12785
13015
13106
13314
13299
13363
13299
13419
13403
13447
13476
13580
13633
13656
13785
13909
14153
14304
14620
14821
15064
15040
15143
15034
14923
14717
14528
14216
13858
13457
13124
12875
12652
12635
12552
12611
12647
12645
12712
12685
12707
12652
12693
12723
12713
12747
12732
12820
12782
12869
12786
12859
12770
12852
12731
12816
12811
12882
12906
13056
13054
13153
13176
13220
13270
13149
13121
13056
13120
13038
13096
13077
13212
13270
13469
14249
15900
17362
16840
12746
11708
12316
12836
13116
13190
13316
13340
13429
13396
13495
13475
13581
13527
13646
13722
13791
13794
13879
13999
14134
14345
14499
14666
14770
14889
14806
14841
14733
14617
14311
13882
13504
13258
12917
12803
12543
12525
12452
12588
12551
12594
12567
12575
12598
12639
12690
12639
12596
12605
12648
12616
12700
12734
12844
12815
12922
12964
13164
13075
12945
12859
12814
12859
12943
13157
13328
13396
13409
13415
13436
13455
13256
13140
13029
13055
12996
13012
13040
13130
13344
13502
14203
15473
17000
16818
13447
11407
12067
12712
13132
13255
13449
13471
13520
13500
13540
13569
13632
13664
13753
13878
13948
14097
16941
16334
15509
14775
14085
13618
13131
12806
12498
12313
12154
12084
11957
11843
11766
11768
11785
11684
11656
11587
11654
11607
11656
11634
11627
11587
11670
11660
11745
11744
11775
11709
11804
11865
11887
11938
11903
11990
12044
12245
12445
12605
12726
12884
12863
12906
12763
12772
12724
12802
12806
12793
12813
12819
13001
13150
13931
14835
16286
16279
13563
11096
11689
12442
12904
13001
13044
13064
13135
13151
13172
13216
13278
13375
13462
13520
13543
13580
13595
13745
13974
14148
14301
14625
14849
14984
14949
15012
14824
14751
14524
14216
13796
13506
13241
13015
12944
12858
12822
12809
12876
12832
12909
12908
13004
13031
13169
13161
13182
13110
13100
13161
13072
13064
13122
13159
13195
13295
13298
13417
13336
13436
13425
13501
13452
13422
13413
13467
13470
13583
13592
13613
13640
13645
13654
13594
13501
13394
13441
13386
13443
13422
13442
13409
13654
14320
16044
16663
16358
12596
10987
11998
12831
13332
13502
13575
13638
13677
13680
13700
13728
13768
13664
13710
13743
13887
13883
14006
14106
14266
14383
14581
14779
14935
15097
15143
15115
14922
14802
14485
14254
13916
13604
13341
13119
12892
12814
12653
12623
12571
12623
12624
12676
12789
12912
13021
13056
13108
13049
13107
13083
13080
13048
13071
12924
12966
12922
12939
12831
12745
12734
12786
12763
12896
13099
13169
13208
13184
13252
13163
13145
13053
13076
12985
13041
13068
13114
13152
13253
14061
15444
16591
16622
13823
10615
11544
12406
13011
13223
13293
13322
13347
13295
13293
13203
13186
13235
13342
13284
13375
13408
13574
13664
13886
14028
14230
14447
14589
14716
14805
14685
14569
14482
14150
13910
13523
13307
13046
12982
12884
12874
12711
12679
12621
12774
12739
12785
12887
13014
13054
13082
13148
13084
13195
13156
13214
13177
13288
13239
13259
13171
13218
13155
13221
13240
13334
13168
13196
13174
13196
13328
13449
13520
13498
13556
13477
13437
13343
13349
13262
13336
13293
13311
13288
13488
13546
14263
15429
16917
17028
14375
11538
11997
12681
13031
13212
13198
13267
13209
13327
13284
13399
13423
13470
13486
13646
13674
13722
13812
13865
14021
14316
14600
14724
14903
14882
14867
14843
14817
14653
14481
14087
13802
13411
13241
12925
12935
12853
12906
12834
12921
12926
12927
12935
12935
12923
12931
13011
12997
12939
12863
12842
12841
12849
12766
12793
12747
12875
12811
12783
12683
12733
12647
12650
12670
12809
12941
13032
13159
13181
13257
13210
13261
13166
13182
13145
13266
13262
13446
13488
13537
13664
14396
15759
17251
17041
13404
11584
11949
12554
12708
12834
12788
12931
12923
13062
13035
13160
13107
13282
13315
13404
13447
13591
13700
13768
13861
13975
14232
14402
14653
14627
14667
14502
14556
14308
14066
13662
13401
12967
12885
12586
12494
12327
12322
12201
12247
12269
12375
12444
12500
12635
12654
12739
12729
12858
12805
12940
12915
13062
13036
13086
13015
13101
13070
13155
13170
13211
13226
13151
13144
13130
13194
13253
13468
13472
13612
13529
13613
13527
13627
13569
13633
13619
13628
13554
13567
13612
13777
14369
15173
16749
17168
15568
11949
12155
12786
13301
13325
13471
13413
13467
13451
13565
13616
13644
13713
13756
13899
13924
14049
14122
14359
14521
14668
14796
14995
15106
15277
15199
15222
15066
14981
14697
14392
14022
13740
13361
13120
12888
12734
12644
12616
12667
12690
12808
12826
12983
12903
13000
12959
13037
12981
13065
13059
13154
13128
13225
13115
13140
13127
13069
13142
13118
13192
13124
13112
12977
13081
13066
13261
13321
13478
13477
13542
13492
13503
13450
13333
13236
13231
13328
13269
13266
13227
13452
13651
14667
16091
16795
15991
11721
11135
12029
12668
13051
13097
13273
13268
13338
13357
13446
13442
13503
13529
13546
13617
13696
13840
13840
14082
14173
14450
14580
14851
14887
14966
14843
14808
14708
14533
14287
13909
13561
13239
13018
12783
12742
12693
12800
12715
12708
12545
12651
12592
12611
12580
12641
12596
12639
12656
12714
12725
12727
12808
12843
12969
12995
13087
12965
13063
12941
13051
13092
13248
13244
13354
13300
13299
13290
13245
13320
13301
13334
13228
13291
13204
13365
13720
15003
16592
16847
15982
11499
10993
12022
12642
13104
13116
13282
13271
13314
13284
13327
13349
13384
13459
13511
13642
13739
13954
13980
14158
14268
14589
14773
15118
15111
15288
15186
15133
14943
14810
14555
14231
13851
13511
13262
12951
12842
12683
12748
12596
12627
12490
12542
12465
12611
12628
12714
12647
12745
12838
12878
12916
12902
12930
12874
12904
12827
12900
12785
12865
12792
12848
12824
13013
12951
13063
13076
13096
13045
13048
13030
13081
12960
13006
13062
13238
13796
14087
13973
14850
16387
16779
14350
11034
11801
12501
13163
13252
13383
13405
13558
13530
13573
13562
13562
13598
13566
13646
13637
13813
13785
13903
13920
14220
14250
14502
14575
14756
14765
14741
14628
14485
14236
13934
13628
13289
12971
12696
12675
12626
12609
12513
12608
12521
12537
12587
12769
12748
12790
12784
12802
12876
12874
12959
12984
13028
12923
12879
12795
12949
12877
12978
12888
12946
12805
12881
12837
12947
12984
13125
13127
13289
13240
13330
13234
13164
13108
13078
13138
13191
13311
13254
13395
13441
14159
15184
16817
17001
14698
11683
12088
12658
13016
13081
13178
13195
13246
13298
13316
13398
13402
13582
13625
13708
13680
13846
13887
14015
14078
14220
14362
14641
14814
14963
15061
14941
14852
14639
14519
14160
13910
13416
13223
12980
12940
12749
12825
12822
12823
12748
12771
12863
12936
12976
12913
13025
13149
13113
13093
13079
13011
13004
12940
13018
12897
12938
12826
12877
12777
12759
12678
12776
12812
12925
13037
13061
13167
13161
13216
13156
13202
13086
13114
12990
13048
12974
13091
13090
13306
13560
14373
15711
17211
16871
13113
11644
12229
12828
12995
13118
13214
13257
13148
13230
13187
13246
13170
13263
13218
13357
13318
13487
13597
13795
13941
14183
14410
14683
14876
14828
14929
14851
14801
14650
14468
14070
13775
13314
13033
12831
12788
12553
12579
12594
12666
12602
12735
12775
12842
12830
12880
12905
12930
12958
12896
12968
12929
13029
12988
13059
12984
13106
12991
13084
13072
13172
13178
13213
13180
13084
13129
13178
13427
13599
13689
13567
13597
13525
13534
13352
13353
13212
13256
13226
13308
13301
13339
13478
13798
14540
15705
16800
16280
12655
11459
12325
12981
13373
13379
13484
13481
13547
13533
13652
13607
13581
13589
13648
13690
13648
13749
13991
14117
14191
14293
14411
14615
14631
14796
14713
14752
14511
14398
14020
13786
13340
13045
12741
12671
12524
12505
12486
12496
12560
12523
12616
12564
12629
12524
12650
12626
12711
12575
12693
12595
12591
12766
12795
12903
12795
13020
12956
13247
13095
13248
13075
13273
13238
13565
13582
13718
13664
13676
13627
13570
13545
13396
13510
13389
13567
13371
13579
13463
13769
14566
16069
16941
17073
13797
11279
12133
12937
13388
13466
13638
13874
13815
13839
13792
13819
13863
13818
13961
13854
14089
13964
14229
14177
14523
14495
14859
14863
15175
15110
15151
14940
14789
14528
14144
13891
13447
13289
12863
12761
12360
12460
12264
12458
12286
12479
12410
12657
12655
12839
12890
12996
13029
13020
13121
13022
13206
13001
13154
13008
13254
13052
13257
13098
13288
13236
13459
13449
13561
13457
13395
13305
13160
13173
12973
13106
12975
13223
13155
13416
13476
14370
15474
17124
16725
13254
10823
12019
12569
13233
13241
13487
13449
13570
13553
13592
13552
13517
13614
13582
13788
13684
13881
13773
14079
14071
14469
14460
14802
14813
15048
14866
14712
14513
14337
14040
13664
13379
12915
12706
12342
12479
12309
12441
12176
12357
12207
12443
12399
12599
12574
12741
12721
12809
12909
12861
12937
12803
12950
12747
12900
12681
12748
12495
12726
12561
12782
12735
12975
12964
13102
13157
13192
13208
13127
13174
13067
13197
13299
13336
13352
13527
13533
14408
15418
16984
16982
14522
11036
11780
12258
12856
12843
13086
13067
13134
13144
13197
13252
13273
13452
13399
13525
13345
13624
13505
13812
13761
14088
14157
14557
14580
14828
14822
14916
14772
14611
14482
14093
13848
13383
13247
12820
12862
12559
12754
12489
12592
12466
12662
12449
12602
12582
12738
12732
12764
12850
12801
12948
12832
13040
12885
13055
12945
13222
13023
13199
13017
13137
13005
13164
13056
13340
13230
13406
13275
13373
13238
13275
13158
13123
13155
13103
13270
13201
13398
13270
13634
14010
15325
16853
17614
15858
12140
12013
12700
13101
13318
13364
13417
13481
13437
13559
13482
13684
13579
13828
13618
13855
13703
13978
13952
14168
14146
14422
14527
14751
14880
14850
14881
14707
14716
14460
14333
13851
13719
13244
13240
12922
12991
12791
12901
12783
12838
12785
12870
12918
12862
12993
12953
13092
12943
13082
12952
12993
12896
13007
12823
12936
12697
12882
12685
12874
12610
12770
12578
12723
12747
12980
13014
13137
13124
13087
13094
12874
12921
12798
12943
12712
12891
12675
12889
12897
13396
14075
15701
16805
16218
12205
11350
11986
12547
12847
12857
13062
12923
13125
13003
13265
13180
13485
13373
13541
13418
13671
13684
13886
13987
14124
14356
14529
14786
14819
15074
14963
15147
14911
14922
14438
14238
13692
13482
13007
12933
12760
12853
12851
13096
12940
13102
12946
13032
13011
13047
13015
12941
13085
12999
13086
12873
13068
12838
13098
12961
13174
13063
13245
13106
13165
12962
13086
13074
13242
13405
13380
13511
13361
13505
13347
13503
13213
13302
13100
13271
13103
13287
13182
13427
13526
14270
15428
16974
16812
13315
11336
11818
12636
12801
13003
12931
13227
13067
13246
13103
13263
13198
13428
13413
13496
13487
13580
13687
13752
13966
14011
14390
14395
14674
14590
14777
14738
14817
14469
14435
13851
13612
13059
13000
12531
12533
12330
12454
12332
12445
12482
12592
12699
12687
12833
12799
12994
12831
13048
12925
13124
12949
13220
13050
13113
12992
13125
13092
13163
13122
13096
13142
12956
12991
12866
13136
13128
13373
13234
13393
13184
13418
13267
13328
13109
13174
13070
13066
13127
13107
13259
13273
14418
15615
16619
16108
12525
10804
12019
12600
13301
13267
13537
13415
13493
13465
13643
13703
13895
13816
13960
13906
13992
13961
14032
14241
14325
14661
14746
15121
15102
15404
15233
15335
15013
15004
14546
14262
13830
13640
13254
13117
12942
12861
12785
12580
12686
12501
12613
12464
12681
12495
12726
12512
12826
12747
12937
12823
12936
12895
12902
12854
12899
13001
12911
13112
13125
13384
13254
13431
13146
13303
13043
13149
12915
13076
12996
13049
12989
13210
13460
14090
15370
16631
16715
14371
10537
11042
12122
12542
13041
13182
13454
13342
13408
13360
13464
13451
13611
13614
13838
13819
14016
14040
14309
14448
14649
14726
14858
14966
15071
15112
14959
14809
14582
14417
14042
13700
13199
12940
12637
12570
12414
12478
12447
12509
12434
12485
12550
12611
12678
12719
12821
12803
12873
12782
12848
12696
12743
12551
12645
12546
12579
12581
12709
12733
12753
12805
12772
12789
12767
12786
12786
12862
12848
12965
12913
13058
13103
13443
14361
15773
16585
16463
12372
11253
12023
12772
12955
13101
13126
13238
13296
13373
13487
13544
13656
13643
13781
13872
14108
14149
14363
14433
14725
14851
15020
15042
15148
15079
15033
14896
14693
14482
14094
13775
13356
13069
12778
12741
12539
12647
12558
12611
12597
12670
12689
12657
12800
12701
12832
12729
12953
12797
13022
12904
13124
12977
13102
12872
12976
12906
12994
13063
13146
13346
13348
13475
13304
13425
13147
13221
13071
13317
13085
13254
13119
13339
13431
14173
14895
16602
17210
15913
11742
11970
12588
13187
13366
13449
13585
13551
13660
13588
13751
13627
13846
13690
13935
13786
14060
13941
14160
14167
14460
14609
14852
14914
15001
15050
14913
14927
14658
14560
14014
13858
13334
13247
12838
12876
12644
12729
12513
12609
12572
12703
12719
12747
12828
12777
12907
12782
12960
12806
13105
12914
13145
12956
13093
12893
12992
12821
12909
12756
12802
12823
12809
12998
13012
13198
13060
13211
13200
13174
12978
13017
12832
12956
12794
13067
12984
13299
13285
14366
15506
17127
17021
13785
11515
12148
12792
13258
13427
13272
13405
13229
13361
13234
13440
13316
13399
13432
13651
13657
13856
13827
14079
14109
14333
14510
14725
14865
15039
14984
14913
14846
14689
14497
14045
13753
13369
13255
12968
12940
12761
12715
12565
12802
12723
12834
12851
12934
12913
12885
12892
12905
12995
12905
12964
12885
12937
12875
13008
12918
13012
13056
13148
12954
12791
12586
12559
12558
12868
12832
12933
12903
12905
12918
12817
12719
12578
12669
12666
12783
12766
12811
12872
13117
13678
14661
16283
16681
14217
11112
11552
12265
12683
12822
13015
13038
13099
13070
13204
13254
13361
13342
13413
13398
13558
13624
13774
13822
14017
14207
14437
14629
14801
14928
14907
14982
14882
14781
14539
14272
13777
13506
13094
12830
12571
12554
12502
12523
12480
12518
12611
12663
12724
12839
12924
12964
12809
12727
12735
12646
12705
12683
12769
12695
12812
12721
12920
12962
13052
12999
13078
13041
13066
12939
12939
12964
13034
13244
13354
13456
13424
13435
13427
13454
13296
13219
13179
13289
13227
13353
13349
13425
13600
14161
14926
16336
16948
15641
11824
11795
12614
13100
13358
13427
13621
13621
13748
13669
13733
13703
13792
13790
13811
13862
13957
14067
14167
14352
14496
14752
14871
15108
15162
15375
15244
15155
14756
14584
14185
13839
13266
13033
12768
12707
12632
12637
12599
12660
12734
12692
12695
12606
12641
12568
12592
12486
12539
12464
12515
12402
12472
12368
12483
12460
12566
12640
12612
12847
12742
12977
12818
13015
12931
13240
13263
13587
13661
13914
14042
14051
14004
13931
13959
13815
13957
13777
13961
13809
14023
13902
14238
15077
16742
17411
17152
13590
11536
12435
13180
13671
13723
13863
13773
13917
13805
14034
13827
14010
13792
14019
14027
14269
14207
14487
14435
14789
14816
15221
15250
15522
15456
15466
15288
15172
14965
14650
14287
13666
13359
12865
12808
12503
12573
12364
12513
12414
12717
12699
12868
12743
12856
12829
12867
12936
12830
12889
12732
12851
12705
12886
12719
12943
12759
12921
12760
12862
12692
12814
12759
12886
12954
13087
13191
13234
13364
13157
13201
12963
13057
12861
13056
12859
13099
13039
13242
13252
13577
14493
16068
16752
16047
11946
11223
12350
13012
13187
13225
13266
13211
13325
13171
13283
13324
13371
13417
13579
13562
13687
13658
13877
13971
14279
14456
14776
14800
14984
14939
14914
14784
14667
14467
14147
13792
13402
13169
12854
12726
12522
12540
12430
12438
12290
12359
12299
12429
12438
12510
12534
12579
12591
12617
12632
12678
12821
12815
12868
12813
12901
12811
12936
12934
12981
12895
12910
12890
12912
12914
12999
13089
13122
13277
13366
13434
13278
13288
13156
13242
13289
13275
13194
13239
13235
13428
13991
15117
16484
16872
14788
11509
11715
12370
12737
12869
12909
12912
12921
12862
12943
12963
13023
13029
13186
13172
13319
13289
13438
13452
13592
13755
14013
14161
14365
14495
14503
14449
14432
14369
14071
13837
13304
12921
12449
12302
12061
12085
11983
12025
12137
12314
12351
12393
12410
12493
12618
12622
12677
12596
12701
12659
12760
12764
12938
12910
12989
12891
12884
12802
12846
12883
12971
12867
12896
12884
12953
12996
13069
13117
13208
13240
13250
13305
13233
13309
13290
13392
13329
13427
13436
13618
13837
14711
16001
17103
16699
12966
11739
12418
13061
13349
13520
13623
13743
13732
13852
13825
13917
13817
13895
13871
13903
13954
14033
14135
14304
14465
14595
14716
14800
15019
14953
14961
14796
14603
14504
14280
14048
13900
13483
13212
13038
12925
12840
12807
12819
12958
13063
13183
13216
13131
13246
13147
13296
13269
13290
13197
13183
13022
13024
12971
12996
12911
12959
12932
12941
12912
12937
12908
12908
12943
12905
13001
13060
13221
13285
13328
13183
13183
13039
13039
12970
13007
12976
13061
13130
13294
13506
13749
14572
15810
16671
16139
12399
11578
12431
13051
13417
13480
13658
13712
13868
13843
13941
13926
13972
13896
13863
13905
13985
14154
14175
14305
14396
14644
14826
14983
15109
15209
15148
15150
15019
14877
14621
14314
13961
13642
13282
13157
13034
12914
12775
12744
12786
12882
12919
12943
13011
12976
13046
12960
12993
12911
13048
13028
13024
12977
12963
12940
12870
12801
12714
12727
12681
12736
12796
12951
12958
13030
12982
13020
12963
12977
12885
13016
13040
13096
13123
13170
13289
13471
14635
16232
16693
16036
11624
10583
11693
12397
12931
13083
13311
13375
13505
13606
13665
13694
13849
13881
13947
14006
14028
14164
14199
14454
14563
14774
14937
15170
15266
15378
15270
15225
15055
14888
14506
14207
13812
13572
13319
13165
13008
12868
12833
12771
12772
12798
12842
12803
12854
12939
13028
12968
13103
13156
13191
13136
13089
12981
13022
12987
12992
13013
12820
12754
12648
12714
12811
12937
12989
13140
13080
13081
12940
12828
12699
12737
12685
12764
12754
12771
12846
12954
13759
15035
16430
16531
13477
10677
11368
12008
12467
12610
12829
12845
12970
12972
13037
13055
13133
13224
13215
13241
13330
13464
13554
13656
13813
14031
14208
14431
14549
14713
14643
14584
14393
14332
14048
13753
13392
13090
12817
12705
12585
12596
12518
12368
12448
12438
12528
12632
12766
12820
12964
12900
12937
12932
13041
13012
12987
12904
12973
12941
12913
12981
12949
12891
12773
12837
12844
13000
13026
13164
13147
13180
13191
13254
13198
13201
13192
13149
13206
13305
13456
13450
13641
14260
15278
16790
17345
15040
11986
12359
13142
13470
13607
13660
13786
13714
13773
13821
13897
13836
13916
13931
14023
14006
14170
14274
14311
14527
14611
14806
14989
15147
15120
15134
14897
14845
14612
14462
14026
13717
13334
13013
12780
12728
12645
12576
12579
12624
12771
12860
13026
13132
13345
13373
13551
13572
13714
13763
13797
13771
13731
13657
13486
13425
13323
13266
13032
12851
12734
12708
12593
12700
12776
12793
12654
12693
12512
12394
12190
12167
12131
12161
12228
12195
12241
12325
12478
13354
14703
16017
15818
12148
10553
11298
12183
12419
12617
12653
12826
12855
13025
13077
13237
13325
13479
13560
13561
13623
13633
13737
13791
14024
14118
14487
14631
14882
14914
14993
14911
14916
14734
14543
14263
13982
13649
13364
13132
13003
12787
12797
12867
12865
13019
13003
13113
13102
13304
13326
13425
13336
13346
13316
13370
13338
13306
13258
13190
13156
13094
13131
13048
13030
12978
13107
13213
13375
13441
13604
13549
13619
13476
13466
13411
13403
13413
13335
13493
13413
13639
13693
14805
15932
16962
16509
12757
11433
12508
13172
13618
13628
13805
13813
13957
14158
14055
14210
14192
14465
14351
14496
14305
14521
14465
14759
14712
14991
15093
15352
15360
15410
15311
15232
15138
14854
14708
14349
14201
13608
13484
13060
13040
12674
12649
12312
12338
12045
12073
11923
11979
12093
12232
12436
12476
12722
12686
12878
12701
12882
12664
12749
12474
12637
12354
12557
12514
12861
12781
13082
12932
13202
13035
13077
12961
13048
13155
13205
13357
13342
13637
13668
14645
15977
17622
17142
14572
10364
11363
12022
12901
13065
13236
13243
13356
13363
13383
13523
13474
13736
13593
13875
13622
13877
13719
14017
13909
14299
14194
14465
14478
14591
14414
14238
14078
13790
13548
13024
12850
12367
12359
11976
12163
12047
12360
12266
12662
12689
12988
13000
13233
13245
13435
13564
13624
13688
13536
13722
13631
13608
13475
13576
13381
13499
13393
13670
13508
13811
13603
13762
13455
13553
13217
13347
13251
13243
13088
13125
13156
13221
13789
15229
17299
17235
15755
10415
10831
11658
12563
12779
13098
13034
13297
13334
13380
13351
13388
13487
13502
13654
13557
13740
13624
13898
13814
14157
14150
14508
14474
14774
14608
14693
14447
14394
14040
13657
13364
12998
12746
12350
12390
12079
12236
12055
12244
12033
12353
12225
12582
12543
12695
12657
13018
12852
13064
12914
13037
12949
13021
12939
12975
13079
13108
13213
13157
13248
13018
13147
12860
12965
12675
12974
12840
13049
12956
13291
13333
14621
16364
17197
17010
12920
10746
11652
12550
12873
13293
13177
13517
13435
13720
13490
13697
13584
13792
13704
13870
13897
13937
14120
14191
14544
14648
15020
15029
15315
15152
15344
15122
15203
14722
14567
14035
13761
13258
13054
12803
12603
12579
12470
12503
12310
12488
12371
12694
12750
12935
12845
12993
12798
13043
12853
13033
12757
12933
12645
12777
12593
12717
12596
12758
12891
12987
13105
13042
13093
12963
13089
12811
13006
12778
13041
12892
13156
13006
13261
13600
14899
16366
16950
15233
10701
11118
11870
12604
12746
13072
13008
13324
13176
13408
13244
13529
13423
13641
13586
13798
13808
13961
14081
14236
14459
14562
14870
14834
15066
14960
15121
14845
14896
14436
14318
13739
13510
13040
12916
12709
12710
12599
12805
12656
12757
12584
12636
12562
12562
12681
12644
12811
12711
12959
12746
12957
12794
13018
12859
13108
12918
13098
12929
12992
12749
12775
12775
12901
13139
13168
13363
13287
13478
13283
13415
13129
13325
13181
13354
13128
13275
13148
13391
13386
14293
15827
17059
17020
12615
11185
11739
12593
12716
13022
12935
13182
13014
13261
13122
13364
13310
13478
13432
13546
13590
13650
13868
13901
14295
14366
14811
14805
15164
15081
15144
15268
14869
14660
13988
13742
13157
13081
12659
12767
12552
12680
12600
12743
12712
12713
12797
12775
12904
12817
12973
12804
13031
12786
13028
12856
13042
12876
13045
12889
13046
12971
13060
13038
13032
13081
13062
13179
13009
13166
13045
13239
13059
13211
13016
13271
13126
13400
13274
13468
13387
13481
13450
13397
13411
13264
13270
13118
13260
13095
13333
13197
13484
13965
14933
16209
17112
14938
11560
11794
12575
13024
13216
13336
13557
13548
13662
13683
13708
13713
13632
13817
13780
14052
13956
14177
14050
14455
14417
14763
14759
15112
15113
15266
15076
15043
14815
14557
14207
13719
13415
12953
12882
12593
12690
12439
12665
12445
12643
12527
12760
12591
12328
11973
11976
11924
11899
11952
11822
11913
11823
12055
11870
12153
11970
12184
12043
12319
12196
12410
12361
12593
12540
12695
12736
12778
12901
12844
12960
12831
12988
12836
13058
12794
12991
12844
13218
13261
13583
13407
13609
13417
13607
13411
13506
13194
13243
13121
13218
13256
13341
13451
13914
14894
16602
17705
15474
12241
12168
12926
13181
13523
13497
13783
13754
13904
13852
13926
13928
13954
14063
14054
14199
14118
14345
14239
14518
14477
14871
14867
15289
15300
15565
15399
15538
15338
15259
14913
14456
14065
13618
13506
13205
13236
13015
13204
13013
13274
13045
13136
12954
13142
12980
13076
12974
13006
13000
12984
13008
13053
12980
13137
13102
13042
13043
12955
13000
12868
13026
12900
13158
12985
13215
13008
13225
13018
13161
13044
13122
12992
13064
13093
13075
13100
12932
13043
12859
13216
13244
13615
13581
13787
13587
13761
13539
13607
13266
13308
13223
13305
13349
13523
13822
14329
15606
17882
18607
15852
12902
12651
13266
13219
13392
13288
13458
13265
13362
13275
13401
13494
13494
13638
13585
13752
13612
13858
13733
14040
13912
14289
14189
14536
14520
14801
14523
14689
14392
14301
13695
13399
12833
12636
12306
12201
12089
12080
12204
12150
12301
12250
12489
12330
12597
12438
12663
12439
12670
12505
12730
12634
12811
12758
12810
12814
12755
12882
12804
12915
12747
13000
12776
12944
12717
12923
12718
12909
12696
12892
12778
12998
13088
13072
13054
13062
13055
12900
13056
13006
13325
13118
13352
13119
13334
13115
13282
13093
13195
13044
13139
13095
13204
13285
13477
14087
14553
17106
17723
15468
12190
12359
12889
13381
13328
13507
13339
13568
13319
13592
13367
13643
13497
13643
13607
13773
13782
13888
13998
14148
14399
14452
14859
14875
15192
15043
15292
15058
15127
14697
14562
13977
13682
13254
13052
12778
12714
12606
12481
12543
12502
12707
12508
12707
12530
12813
12573
12791
12554
12792
12579
12760
12637
12717
12695
12728
12848
12815
12924
12850
13033
12894
13055
12794
13107
12889
13126
13024
13209
13049
13244
13090
13342
13195
13443
13364
13550
13437
13575
13549
13598
13504
13431
13347
13124
13268
13157
13350
13257
13636
13979
15331
16504
16762
15184
11086
11186
12156
12774
13104
13263
13335
13534
13437
13615
13539
13771
13546
13842
13724
14002
13774
14028
13994
14267
14357
14688
14832
15045
15245
15289
15358
15126
15097
14806
14720
14153
14007
13452
13298
12856
12877
12604
12694
12540
12556
12579
12581
12650
12667
12829
12755
12968
12809
12992
13007
13119
13020
13179
13084
13263
13015
13202
12974
13199
12951
13120
12861
12892
12687
12776
12870
13067
13241
13288
13358
13202
13300
13095
13197
12953
13189
12963
13128
13028
13377
13278
14199
15434
16913
17083
14608
10841
11472
12448
12990
13451
13347
13647
13462
13686
13542
13870
13694
13907
13748
13907
13889
14074
14150
14295
14455
14577
14935
15080
15441
15357
15606
15440
15587
15217
15216
14631
14369
13807
13560
13160
13018
12638
12742
12521
12637
12511
12600
12593
12593
12634
12685
12792
12636
12799
12652
12861
12699
12952
12708
13006
12770
12945
12769
12815
12615
12691
12670
12848
12929
12845
12983
12904
13044
12784
12968
12643
12764
12561
12812
12641
12855
12756
13063
13232
14390
15972
17004
16791
12198
11213
11783
12643
12853
13168
13077
13335
13160
13428
13282
13468
13412
13617
13550
13673
13727
13798
13964
14055
14358
14380
14752
14856
15247
15162
15252
15063
15087
14646
14446
13800
13622
13043
13001
12634
12756
12496
12517
12383
12409
12395
12435
12548
12610
12819
12770
12976
12826
13057
12876
13101
12792
13052
12889
13066
12869
13000
12875
12814
12790
12801
12820
12831
13010
12986
13285
13107
13283
13093
13300
12966
13134
12965
13219
13062
13254
13280
13522
13905
14799
16473
17406
16655
11867
11589
12109
12901
12957
13252
13106
13333
13172
13334
13151
13405
13340
13388
13325
13590
13541
13751
13798
14056
14199
14431
14708
14854
15014
14906
15033
14761
14819
14389
14271
13689
13525
12998
12936
12569
12630
12487
12513
12522
12585
12572
12477
12587
12544
12780
12592
12837
12663
13021
12874
13080
12831
13030
12887
12995
12873
12918
12981
13026
13038
12908
13119
13011
13272
13221
13565
13464
13726
13474
13637
13377
13453
13257
13323
13265
13332
13257
13298
13524
13529
14434
15500
17108
17232
14292
11272
12303
12938
13438
13312
13605
13410
13562
13404
13656
13472
13653
13488
13753
13739
13865
13894
14021
14152
14237
14569
14630
15003
14982
15256
14983
15096
14789
14751
14242
14076
13538
13378
13072
12888
12759
12712
12668
12562
12692
12528
12679
12512
12775
12615
12863
12697
12976
12838
12990
12782
12898
12806
12835
12872
12917
13041
13001
13071
12915
13146
12937
13060
12806
13014
12757
12977
12956
13266
13189
13391
13275
13343
13301
13312
13169
13293
13138
13196
13167
13152
13252
13275
14195
15341
16842
16863
13945
11225
11966
12462
13116
13008
13276
13110
13278
13208
13257
13241
13328
13391
13382
13557
13441
13685
13584
13937
13913
14311
14341
14823
14836
15176
15007
15086
14902
14837
14592
14232
13930
13550
13322
12853
12818
12507
12607
12369
12579
12404
12672
12492
12697
12655
12873
12888
12954
12925
12888
12959
12899
13036
12894
13075
12876
13079
12865
13028
12838
13106
12979
13154
12954
13141
12856
12976
12797
13029
13011
13243
13226
13364
13277
13246
13282
13225
13316
13086
13232
12992
13181
12954
13243
13283
13811
14445
16072
16970
16636
12408
11520
12223
12856
13144
13151
13303
13211
13410
13265
13488
13335
13617
13459
13722
13562
13736
13618
13810
13783
13991
14082
14311
14566
14593
14769
14613
14736
14537
14622
14197
14088
13493
13354
12867
12810
12571
12611
12497
12620
12602
12652
12779
12873
12840
12967
12929
12922
12969
12943
13061
12954
13160
13068
13289
13058
13247
13023
13281
13147
13347
13197
13339
13232
13334
13240
13169
13224
13128
13333
13382
13630
13491
13633
13352
13594
13329
13485
13215
13316
13083
13203
13060
13126
13193
13340
14297
15488
16921
16851
13639
11255
12018
12535
13095
13020
13373
13215
13419
13259
13395
13365
13491
13496
13514
13663
13681
13908
13892
14174
14175
14648
14625
15034
15007
15350
15258
15437
15109
15161
14682
14510
13897
13708
13265
13164
12889
12857
12754
12745
12803
12793
12906
12734
12863
12681
12849
12614
12838
12617
12873
12726
12915
12695
12873
12748
12871
12796
12722
12765
12712
12814
12698
12888
12724
12935
12721
12919
12674
12864
12705
12988
12935
13255
13113
13159
13138
13167
13195
13076
13190
12954
13086
12924
13157
12966
13247
13134
13600
14185
15309
16517
16755
14040
11195
11751
12525
13022
13012
13213
13398
13321
13360
13436
13365
13547
13546
13777
13654
13977
13890
14243
14135
14504
14554
14918
14953
15225
15241
15390
15253
15120
14999
14791
14535
14001
13850
13293
13219
12938
13096
12763
12900
12726
12885
12751
12912
12811
12848
12834
12857
12935
12899
12992
12878
13059
12803
12979
12776
13052
12819
13018
12807
13076
12902
13013
12929
13002
12934
12881
12899
12855
13106
13134
13396
13225
13401
13227
13470
13126
13147
12970
13147
13050
13381
13111
13341
13344
13911
14892
16615
16588
15729
11122
10970
12042
12818
13333
13262
13541
13400
13765
13568
13841
13622
13854
13656
13812
13750
14028
13957
14089
14227
14446
14691
14826
15199
15192
15470
15300
15410
14979
15077
14695
14487
13912
13701
13118
13008
12689
12634
12491
12393
12417
12386
12523
12428
12636
12505
12753
12564
12882
12740
12908
12644
12936
12882
12990
12922
12952
12925
12901
12884
12683
12879
12908
12857
13008
13227
13274
13381
13263
13408
13135
13289
13056
13254
13009
13219
13086
13318
13207
13490
14267
15735
16787
16732
13814
10577
11557
12274
13057
13065
13396
13280
13584
13389
13548
13350
13620
13531
13730
13680
13832
13839
13893
14069
14109
14354
14409
14736
14711
15104
14803
14931
14614
14706
14245
14062
13503
13292
12890
12803
12676
12530
12514
12356
12495
12394
12620
12475
12735
12568
12813
12594
12813
12743
12947
12779
13126
12879
13069
12823
12987
12749
12926
12855
12926
12843
12835
12818
12732
12818
12755
13030
12982
13261
13110
13309
13056
13138
12953
13135
12905
13014
12969
13088
13097
13219
13379
14015
15192
16521
17048
15168
11301
11503
12385
12938
13405
13231
13534
13450
13586
13517
13571
13635
13671
13646
13655
13844
13837
14020
13952
14218
14233
14657
14777
15067
15032
15249
15048
15088
14906
14709
14360
13971
13582
13219
12972
12676
12692
12542
12620
12598
12682
12571
12728
12665
12864
12732
12951
12793
12965
12859
13061
12947
13095
13075
13135
13097
13052
13013
12942
12984
12879
13031
12874
13025
12784
12916
12766
12965
12995
13256
13165
13298
13254
13282
13188
13150
13114
13065
13162
13083
13239
13161
13323
13313
14094
14814
16415
16892
15746
11520
11778
12439
13102
13326
13432
13548
13591
13740
13702
13898
13751
13934
13848
14039
13930
14173
14093
14304
14323
14602
14783
15153
15183
15406
15321
15392
15219
15193
14936
14621
14311
13885
13621
13290
13239
12950
12970
12763
12889
12716
12834
12680
12844
12728
12828
12700
12820
12835
12789
12723
12636
12672
12569
12666
12495
12599
12378
12560
12434
12627
12514
12711
12574
12683
12609
12655
12627
12643
12674
12716
12863
12916
13121
13115
13349
13157
13314
13124
13225
13043
13151
13010
13115
13025
13074
13139
13290
13997
14785
16156
16501
14681
11055
11902
12679
13157
13137
13297
13265
13513
13360
13522
13377
13526
13409
13642
13569
13747
13843
14049
14166
14348
14548
14691
14984
15061
15291
15176
15294
14988
14948
14526
14316
13798
13596
13169
13024
12808
12762
12659
12684
12675
12626
12747
12662
12821
12752
13015
12928
13138
12977
13136
12925
13101
13010
13122
13014
13076
13077
13140
13177
13154
13227
13164
13254
13109
13262
13111
13335
13276
13452
13280
13458
13330
13393
13331
13485
13473
13651
13595
13722
13635
13727
13688
13621
13527
13414
13447
13376
13491
13331
13565
13610
14613
15352
16665
16793
14231
11566
12276
12870
13320
13313
13342
13421
13429
13579
13527
13683
13547
13692
13547
13747
13629
13851
13764
13964
13989
14256
14345
14594
14767
14946
14971
14897
14873
14604
14520
14089
13899
13353
13280
12916
12806
12494
12585
12427
12516
12416
12483
12475
12533
12608
12564
12705
12658
12841
12718
12889
12773
12929
12789
12880
12737
12849
12642
12811
12691
12878
12711
12867
12777
12922
12899
13004
12986
13006
13075
13036
13172
13120
13299
13162
13284
13178
13397
13398
13654
13566
13737
13584
13632
13509
13481
13381
13308
13292
13223
13342
13249
13487
13663
14567
15486
16547
16266
12858
11533
12433
12939
13319
13321
13473
13478
13529
13537
13465
13616
13605
13778
13678
13888
13759
13971
13948
14234
14223
14476
14533
14842
14917
15067
15017
15189
14962
14946
14589
14301
13873
13539
13228
12943
12860
12676
12698
12520
12632
12458
12668
12507
12716
12630
12840
12705
12782
12682
12782
12739
12797
12813
12810
12875
12784
12896
12811
12978
12815
12944
12809
12967
12850
12998
12901
13050
12933
12989
12952
12965
12995
13035
13059
12892
13081
12966
13277
13237
13400
13255
13403
13247
13422
13280
13323
13169
13275
13298
13279
13335
13458
13740
14408
15469
16403
16666
13530
11756
12427
13207
13306
13498
13383
13539
13408
13549
13384
13570
13504
13666
13622
13810
13845
13972
14079
14183
14401
14433
14712
14796
15111
15054
15238
15017
15155
14796
14655
14133
13854
13388
13101
12731
12513
12460
12349
12444
12373
12474
12359
12524
12443
12666
12560
12776
12618
12782
12664
12774
12666
12699
12752
12776
12825
12852
12991
12930
13082
12986
13204
13065
13243
13075
13322
13168
13276
13116
13224
13157
13301
13297
13339
13327
13461
13396
13427
13413
13509
13541
13524
13563
13495
13636
13512
13566
13321
13438
13287
13461
13352
13565
13603
14482
15204
16401
16646
14598
11493
11887
12644
13037
13322
13256
13509
13374
13554
13424
13588
13493
13683
13584
13759
13695
13797
13833
13969
14091
14263
14540
14627
14937
14955
15200
15077
15173
14943
14953
14558
14323
13741
13472
13088
12906
12700
12596
12613
12549
12597
12538
12700
12575
12708
12607
12832
12751
13018
12972
13143
13019
13215
13056
13156
12949
13095
12954
13072
12972
13051
13036
13034
13057
13042
13087
13000
13092
12986
13141
12994
13176
13038
13208
13000
13080
12991
13116
13119
13262
13246
13243
13230
13207
13224
13092
13117
12923
13067
12928
13080
12989
13333
13650
14661
15781
16369
15508
11593
11324
12156
12900
13131
13280
13274
13406
13329
13555
13448
13694
13559
13772
13689
13891
13864
14077
14102
14280
14373
14633
14883
15217
15324
15414
15257
15221
15088
14869
14584
14072
13785
13325
13207
12876
12936
12682
12757
12518
12614
12480
12618
12498
12651
12681
12755
12780
12774
12794
12696
12883
12814
12957
12797
12940
12805
12949
12809
12947
12803
12952
12843
12903
12886
12955
12992
12993
13041
12903
12958
12863
13032
13098
13379
13275
13452
13331
13500
13359
13442
13231
13272
13292
13341
13386
13380
13557
13657
14844
16023
16778
16245
12557
10860
11971
12915
13424
13407
13644
13511
13667
13516
13737
13636
13841
13810
13924
13848
13946
14030
14151
14329
14412
14724
14777
15074
15064
15319
15209
15258
14998
14974
14544
14299
13766
13499
13157
12922
12730
12619
12674
12563
12656
12573
12738
12575
12725
12635
12826
12704
12894
12715
12806
12759
12893
12912
12954
13011
12963
13008
12922
13012
12850
12977
12837
13000
12843
12962
12821
12961
12811
12869
12811
12891
12982
13126
13167
13156
13201
13385
13341
13328
13216
13108
13118
13038
13180
13072
13343
13367
14513
15761
16834
16309
12594
11038
11973
12653
13138
13139
13221
13278
13292
13390
13352
13496
13442
13639
13564
13743
13611
13858
13749
14028
14005
14265
14373
14632
14755
14922
14973
14911
14929
14750
14677
14240
13977
13480
13272
12797
12755
12496
12519
12305
12416
12383
12504
12532
12593
12631
12636
12762
12748
12891
12746
12924
12780
12989
12809
12931
12753
12960
12841
13005
12827
13025
12884
13064
12977
13173
13080
13193
13068
13128
13175
13349
13555
13554
13625
13491
13596
13393
13514
13240
13356
13222
13432
13319
13450
13528
13893
14699
15987
17140
16776
12966
11426
12272
12954
13425
13286
13464
13334
13502
13421
13554
13437
13598
13559
13692
13699
13786
13916
13999
14138
14184
14459
14540
14959
15067
15314
15168
15296
15040
15012
14690
14504
14047
13787
13427
13129
12900
12756
12758
12724
12712
12788
12786
12735
12814
12799
12922
12804
12956
12833
12992
12762
12929
12745
12867
12753
12934
12892
12970
12845
12893
12908
12860
12763
12690
12861
12809
13129
13087
13234
13085
13257
13044
13102
12879
12898
12783
12896
12852
12973
13040
13196
13467
14465
15993
16859
16767
12516
11101
11802
12763
13026
13325
13316
13450
13332
13418
13502
13621
13703
13732
13817
13754
13900
13812
14052
13997
14322
14348
14712
14743
15049
15067
15129
14894
14939
14620
14506
13974
13727
13288
13109
12777
12598
12480
12422
12473
12409
12577
12540
12699
12542
12670
12513
12723
12600
12793
12642
12780
12688
12778
12737
12768
12618
12596
12713
12644
12730
12771
13061
12990
13205
13051
13162
12984
13014
12861
12993
12879
12958
12934
13009
13139
13260
14354
15731
17021
17010
13663
10540
11665
12416
13138
13135
13395
13357
13542
13418
13533
13602
13717
13770
13762
13890
13907
14139
14278
14411
14527
14805
14956
15241
15226
15424
15242
15291
14993
14957
14517
14354
13870
13690
13322
13158
12875
12822
12768
12760
12717
12633
12772
12628
12748
12660
12882
12740
12939
12781
12922
12783
12904
12791
12834
12739
12670
12649
12608
12692
12731
12959
12918
13151
12983
13114
12940
13100
12918
13092
12948
13098
12977
13097
13122
13344
13927
14848
16447
17384
16127
11602
11758
12293
13020
12989
13219
13123
13301
13169
13324
13331
13628
13535
13716
13633
13793
13738
13913
13934
14116
14331
14490
14665
14752
14881
14728
14807
14589
14533
14140
13985
13464
13249
12793
12668
12390
12348
12201
12165
12155
12179
12275
12210
12322
12229
12438
12413
12665
12538
12682
12579
12737
12602
12702
12601
12623
12578
12650
12715
12881
13075
13108
13242
13102
13234
13060
13182
12974
13097
12950
13108
13034
13209
13223
13506
13975
14893
16418
17592
16428
11950
11900
12542
13256
13355
13523
13501
13573
13457
13557
13467
13668
13524
13739
13642
13884
13824
14065
14070
14304
14426
14646
14821
14970
15084
15057
15111
14926
14877
14409
14229
13748
13552
13123
13068
12802
12825
12644
12695
12631
12656
12666
12709
12782
12776
12939
12825
12928
12771
12904
12719
12921
12773
12896
12731
12865
12747
12806
12812
12916
12960
13059
13237
13150
13261
13179
13331
13206
13363
13147
13222
13069
13230
13154
13311
13223
13482
13806
14888
16319
17633
16477
12080
11692
12443
13025
13136
13206
13236
13387
13295
13425
13250
13466
13350
13556
13516
13728
13691
13913
13918
14085
14169
14414
14622
14821
14999
14960
14994
14818
14889
14584
14474
13957
13786
13307
13204
12863
12827
12654
12728
12613
12624
12681
12666
12749
12736
12911
12845
12987
12807
12988
12841
13024
12912
13047
12918
13008
12868
12957
12957
13005
13021
12989
13022
12863
12989
12876
13170
13317
13551
13491
13497
13362
13383
13141
13210
13014
13205
13141
13383
13314
13546
13526
14407
15584
17066
17343
14208
11466
12012
12856
13154
13331
