13593
13577
13759
13501
13777
13305
13898
13287
14022
13406
14196
13677
14561
14067
14805
14350
14810
14446
14558
14249
13908
13715
13094
13228
12483
12960
12230
12836
12073
12729
12015
12733
12169
12723
12284
12764
12557
12652
12698
12653
12847
12458
12933
12391
13010
12292
12946
12228
12911
12284
12988
12457
12997
12682
13009
12815
12898
13032
12956
13427
13179
13809
13228
13948
13339
14119
13275
13868
13073
13627
13092
13568
13207
13503
13336
14429
14630
16847
17578
17097
13289
12821
13383
13568
13926
13510
14037
13431
13973
13263
13959
13195
13868
13273
13863
13496
13888
13726
14005
14026
14187
14390
14534
14880
14781
15158
14763
15097
14486
14790
13910
14025
13104
13212
12398
12595
12179
12362
12122
12300
12375
12371
12699
12511
12872
12407
12876
12333
12862
12324
12907
12482
13012
12596
12981
12759
12983
12832
12847
12935
12825
13091
12814
13288
12868
13249
12742
13293
13111
13685
13396
13947
13563
14118
13641
14156
13674
14092
13645
13964
13653
13814
13719
13613
13865
14140
14818
16204
17704
16446
13295
12308
13409
13308
13878
13517
14000
13588
13907
13631
13744
13708
13690
13870
13682
14016
13689
14228
13919
14638
14310
15026
14771
15559
15347
15878
15620
15911
15696
15711
15396
14911
14608
13920
13934
13166
13390
12752
13221
12634
13037
12544
13034
12606
12941
12586
12769
12661
12674
12672
12713
12477
12747
12507
12596
12645
12492
12605
12378
12651
12295
12750
12256
12773
12321
12847
12465
12930
12609
12937
12590
12754
12695
12850
13014
12938
13233
12931
13267
12843
13143
12655
13072
12624
13165
12786
13271
12931
13424
13725
14473
15878
16843
16081
12189
12045
12469
13341
13052
13549
13142
13689
13162
13586
13167
13618
13297
13636
13502
13639
13695
13709
13948
13952
14495
14364
15015
14816
15579
15189
15821
15262
15780
15045
15209
14277
14343
13356
13535
12826
13052
12557
12745
12449
12480
12396
12310
12545
12232
12540
12136
12583
12077
12570
12047
12633
12143
12652
12225
12659
12346
12587
12368
12403
12483
12328
12631
12382
12786
12445
12953
12383
12914
12286
12907
12409
13059
12761
13226
13014
13271
13209
13111
13114
12938
13113
12814
13268
12842
13399
13006
13985
14309
16255
17165
16855
14072
10952
11664
12897
13660
13912
14124
14019
14343
13964
14201
14328
14441
14254
14656
14406
14872
14488
15115
14672
15400
14976
15670
15379
16073
15766
16106
15819
15854
15698
15427
15271
14590
14500
13712
13719
12878
13132
12367
12815
12130
12566
12106
12514
12136
12368
12206
12354
12401
12225
12448
12173
12567
12189
12655
12124
12684
12050
12501
11927
12423
12003
12395
12245
12640
12632
12737
12902
12800
13066
12612
13008
12568
13085
12617
13256
12728
13377
13090
14320
15012
16832
16725
12769
11018
12429
12801
13458
13213
13497
13402
13350
13338
13132
13410
13054
13453
13018
13565
13101
13764
13373
14091
13819
14526
14428
14983
14949
15251
15242
15134
15131
14786
14886
14104
14082
13148
13265
12508
12752
12019
12484
12065
12579
12334
12613
12431
12652
12720
12700
12966
12799
13149
12751
13273
12767
13255
12783
13292
12783
13247
12815
13267
12948
13106
12989
12951
12855
12731
12944
12720
13181
12916
13434
13016
13484
12931
13358
12970
13467
13001
13565
13113
13701
13222
13868
14041
14968
16261
16996
15179
11850
12045
12654
13258
12996
13401
12983
13447
13019
13544
12980
13471
13006
13581
13198
13561
13331
13600
13608
13809
14132
14237
14828
14806
15440
15138
15680
15151
15631
14931
15168
14298
14355
13568
13561
13069
13021
12841
12685
12764
12557
12937
12519
13004
12493
12985
12454
12980
12382
12901
12513
12984
12699
13026
12924
12995
13079
13040
13304
13351
13175
13259
13193
13023
13019
12717
13022
12676
13210
12757
13326
12911
13454
12880
13352
12837
13233
12817
12995
12951
12999
13043
12965
13537
14183
16386
17256
16802
11431
11190
11482
12787
12630
13151
12834
13179
12860
13083
12995
13076
13288
13172
13649
13437
13896
13560
14175
13802
14439
14095
14896
14699
15267
14948
15310
15153
15266
15007
14759
14707
14109
14064
13343
13434
12780
13145
12542
13010
12420
12923
12499
12940
12429
12991
12363
12932
12382
12829
12457
12713
12547
12854
12816
12826
13159
13082
13384
13073
13478
12926
13354
12685
13160
12587
13123
12623
13046
12752
13097
13146
13326
14655
16699
16699
15696
12391
10351
11963
12336
13457
13088
13647
13217
13781
13418
13817
13621
13854
13869
13894
13989
13891
14293
14024
14663
14450
15183
14949
15760
15499
16138
15724
16161
15730
15852
15324
15088
14488
14114
13861
13368
13304
12685
13022
12428
12779
12657
12927
12597
12947
12468
12990
12523
12994
12488
12948
12499
12982
12522
12826
12589
12807
12795
12767
12953
12694
12970
12610
12886
12340
12857
12240
12870
12347
12915
12654
13187
13077
14698
16329
16210
15802
11839
10853
11654
12724
12877
13487
12988
13610
13127
13610
13063
13681
13321
13725
13466
13819
13806
13954
14066
14090
14450
14472
14991
14739
15432
15015
15703
15134
15528
14980
15201
14299
14215
13658
13584
13185
13228
12523
12811
12390
12501
12238
12325
12331
12318
12367
12161
12465
12066
12594
12169
12511
11968
12599
12167
12462
12081
12546
12341
12663
12682
12833
13027
12984
13117
12659
13018
12697
13108
12567
12976
12636
13093
12778
13414
13923
15676
15936
15698
13038
10967
11942
12568
13507
13356
13844
13651
14196
13763
14273
13896
14462
14018
14463
14115
14436
14275
14496
14549
14708
14949
15034
15499
15280
15775
15336
15721
15103
15353
14575
14486
13663
13716
12967
13187
12451
12835
12298
12695
12224
12479
12269
12330
12292
12272
12386
12269
12581
12289
12683
12236
12682
12185
12730
12281
12788
12358
12762
12396
12689
12509
12677
12617
12613
12725
12489
12810
12444
12923
12530
13040
12645
13177
12690
13113
12783
13162
12850
13085
12972
13100
13142
13021
13295
13061
13403
13067
13541
13097
13597
13117
13675
13172
13618
13230
13591
13338
13558
13518
13550
13648
13467
13519
13820
13672
13778
13799
13734
13913
13652
13991
13657
14110
13619
14180
13731
14204
13741
14152
13675
13884
13654
13910
13895
14057
14143
14083
14268
13992
14374
13906
14246
13664
14038
13490
14044
13711
14601
14985
16317
16723
14621
12424
12606
12981
13000
13234
12911
13319
12899
13328
12764
13196
12743
13339
12965
13455
13195
13573
13462
13762
13839
13951
14230
14217
14708
14465
14945
14497
14961
14332
14719
14097
14324
13629
13723
13074
13498
12923
13360
12842
13147
12764
13000
12775
12911
12806
12731
12844
12590
12876
12525
13011
12689
12967
12300
12821
12382
12861
12451
12855
12527
12763
12646
12800
12800
12724
12902
12637
12924
12607
13091
12650
13152
12640
13163
12756
13179
12787
13144
12878
13165
13092
13191
13248
13144
13375
13104
13470
13113
13590
13201
13730
13271
13825
13355
13751
13374
13769
13603
13765
13732
13734
13839
13732
13952
13562
13885
13477
13891
13852
14165
13969
14369
13988
14390
13889
14279
13684
14135
13704
14176
13985
14546
14918
16129
16936
17446
14522
12682
13175
13215
13779
13367
13877
13452
13937
13410
13839
13417
13864
13521
13807
13626
13718
13700
13706
13837
13703
14104
13931
14506
14201
14832
14433
14888
14343
14722
14206
14411
13729
13551
13020
12838
12565
12309
12386
12095
12346
12014
12465
11998
12500
12013
12551
12053
12501
12146
12541
12258
12525
12401
12735
12347
12699
12405
12692
12494
12651
12716
12661
12822
12554
12944
12568
13036
12592
13102
12643
13200
12646
13139
12793
13210
12967
13234
13204
13326
13391
13247
13497
13258
13630
13242
13703
13231
13794
13345
13820
13318
13700
13328
13582
13290
13445
13337
13325
13477
13433
13725
13396
13757
13303
13764
13286
13728
13186
13603
13213
13704
13525
14132
14442
15844
17186
17421
14206
12947
13438
13361
13813
13411
13949
13486
13956
13582
13949
13502
13923
13345
13811
13346
13844
13483
13963
13696
14057
14007
14378
14601
14847
15164
15081
15339
14956
15260
14574
14698
13810
13941
13091
13301
12641
12859
12469
12637
12364
12407
12421
12360
12583
12294
12591
12236
12697
12300
12845
12429
13016
12648
13171
12837
13270
13023
13278
13159
13168
13150
12926
13135
12789
13167
12787
13227
12774
13299
12829
13411
12964
13396
13005
13295
13046
13211
13212
13182
13294
13162
13248
13511
13465
13480
13552
13393
13626
13232
13657
13238
13786
13388
13954
13500
13981
13557
13943
13533
13761
13403
13538
13478
13491
13805
13759
14622
14868
16637
17018
16193
12704
13292
13312
14071
13689
14060
13713
13909
13631
13662
13660
13561
13664
13449
13770
13410
13863
13491
13993
13596
14128
13814
14487
14379
14952
14860
15143
15014
14945
14847
14463
14231
13580
13471
12657
12774
12083
12402
11829
12302
11895
12318
11979
12437
12086
12597
12204
12672
12362
12697
12414
12633
12535
12616
12654
12503
12644
12350
12621
12234
12648
12261
12759
12297
12762
12369
12770
12393
12765
12535
12739
12626
12645
12692
12571
12747
12490
12922
12592
13122
12690
13218
12663
13138
12755
13342
13125
13565
13450
13677
13706
13780
13870
13691
13875
13511
13879
13460
14019
13723
14685
14566
16226
16639
16543
12873
13002
13424
14007
14060
14042
14199
13985
14305
13934
14309
14075
14216
14096
14452
14140
14565
14188
14757
14375
15014
14675
15327
15070
15697
15463
15848
15642
15697
15511
15171
14912
14154
13905
13089
13140
12403
12705
12063
12473
11908
12371
11916
12347
12027
12331
12185
12358
12379
12310
12475
12226
12531
12143
12575
12086
12606
12076
12612
12170
12681
12238
12671
12430
12675
12532
12655
12766
12704
12930
12683
13122
12770
13254
12776
13315
12847
13288
12767
13354
13057
13536
13332
13605
13483
14394
14721
14104
14469
13842
14284
13792
14780
15064
16822
16562
14080
11484
12101
12704
13015
13191
13007
13267
12870
13229
12792
13251
12805
13382
12920
13430
13020
13533
13251
13638
13604
13931
14175
14396
14824
14855
15322
15009
15413
14876
15217
14438
14519
13557
13571
12733
12813
12263
12337
12030
12091
12108
12054
12225
11975
12336
11983
12506
12103
12740
12250
12816
12386
12870
12397
12823
12511
12790
12674
12745
12754
12650
12619
12987
12803
12926
12975
12947
13139
12941
13281
12984
13498
13021
13442
12876
13491
13015
13611
13230
13722
13448
13708
13573
13672
13654
13411
13563
13266
13670
13305
13903
13539
14783
15214
17493
17282
15443
11861
12658
13110
13709
13607
13690
13777
13630
13943
13666
14075
13567
14093
13534
14083
13574
14181
13766
14360
14113
14660
14591
15006
15227
15475
15760
15696
16028
15636
15915
15220
15313
14242
14289
13402
13572
12804
12977
12336
12786
12153
12616
12116
12531
12171
12494
12276
12449
12359
12247
12304
12052
12384
11970
12352
11842
12364
11840
12459
11938
12447
11991
12462
12209
12547
12364
12342
12352
12256
12497
12405
12953
12675
13277
12813
13433
12954
13516
12901
13350
12919
13211
12866
13040
13067
13332
14653
16456
17004
15606
11274
10211
11862
12149
13154
12674
13284
12845
13358
12874
13304
13084
13334
13227
13297
13496
13568
13967
13673
14184
14198
14467
14549
15013
14884
15385
15032
15476
14813
15122
14257
14372
13429
13417
12642
12690
12153
12188
11863
11704
11666
11491
11763
11436
11875
11511
12098
11618
12238
11796
12350
11932
12377
11898
12171
11934
12087
12010
12105
12390
12232
12614
12222
12597
12082
12511
11958
12559
12104
12682
12403
12917
12716
13151
14017
16080
17237
16384
13517
10331
11792
12328
13381
13102
13716
13267
13852
13362
13787
13336
13743
13489
13681
13422
14094
13803
14294
14068
14509
14539
14854
15176
15325
15665
15490
15791
15264
15560
14803
14880
13857
13929
13079
13397
12859
13065
12628
12749
12519
12482
12527
12448
12690
12434
12891
12527
13043
12558
13051
12479
12971
12419
12846
12373
12787
12390
12551
12388
12425
12498
12443
12810
12548
13007
12510
12931
12329
12786
12173
12775
12392
12879
12524
12973
12883
13504
14274
16105
17210
15494
11675
11441
12571
12541
13205
12741
13318
13076
13513
13074
13588
13194
13818
13300
13830
13354
13953
13697
14203
14148
14532
14700
14940
15279
15337
15757
15413
15782
15192
15469
14563
14622
13667
13782
13048
13284
12817
13056
12781
12884
12899
12871
13110
12917
13298
13015
13619
13196
13775
13235
13738
13107
13542
13046
13379
12960
13117
12906
12966
12957
12931
13245
13046
13481
13085
13504
12936
13376
12719
13162
12624
13100
12624
12977
12729
13097
13167
13854
15542
17669
15523
11822
11758
12560
12979
12959
13216
13020
13350
13010
13583
13157
13731
13283
13873
13415
14013
13635
14081
13856
14257
14302
14665
14983
15170
15610
15461
15890
15479
15869
15151
15316
14292
14372
13353
13424
12625
12769
12349
12518
12382
12445
12456
12266
12444
12051
12439
12037
12602
12127
12662
12135
12735
12266
12778
12447
12833
12611
12810
12734
12760
12834
12637
12920
12568
12954
12449
12982
12529
13201
12721
13238
12733
13297
12798
13307
12708
13179
12672
13110
12715
13058
12844
13119
13247
14009
16011
17398
16960
12194
11827
12069
13214
12885
13443
12995
13535
13081
13549
13210
13543
13341
13467
13486
13516
13792
13683
14116
13870
14455
14153
14868
14580
15352
15026
15691
15374
15881
15508
15572
15002
14622
14116
13630
13442
12981
13162
12645
12998
12481
12982
12468
12974
12490
12929
12442
12891
12564
12827
12630
12757
12766
12674
12881
12644
13030
12898
12897
12850
13057
12870
13236
12958
13417
12970
13519
13004
13554
13028
13565
13049
13505
13214
13515
13333
13410
13348
13346
13682
13603
13952
13600
14029
13557
14034
13402
13805
13194
13644
13152
13529
13212
13509
13582
14154
14680
16406
17892
16616
13136
12315
13403
13274
13837
13313
13849
13354
13804
13427
13794
13511
13731
13648
13724
13886
13877
14198
13957
14417
14106
14780
14469
15179
14866
15537
15148
15596
15176
15422
14677
14841
13833
13802
12978
13052
12506
12565
12400
12379
12390
12261
12598
12276
12684
12230
12717
12217
12739
12187
12676
12214
12732
12390
12866
12650
12869
12762
12819
12928
12724
13010
12707
13097
12676
13200
12731
13257
12770
13354
12907
13370
13006
13336
13011
13124
13102
13141
13387
13272
13575
13240
13670
13240
13733
13140
13591
12935
13435
13004
13405
13077
13464
13435
14123
14765
16484
17218
15102
12003
11744
13128
13113
13485
13360
13670
13304
13744
13203
13733
13248
13821
13352
13930
13553
14058
13834
14287
14306
14682
14944
15141
15561
15536
15995
15620
15984
15355
15633
14781
14714
13638
13605
12736
12811
12230
12274
12002
11998
11998
11851
12126
11917
12391
12091
12675
12214
12775
12279
12806
12294
12714
12273
12618
12330
12554
12488
12562
12731
12657
12925
12669
13177
12814
13355
12907
13493
12968
13481
12980
13416
12915
13167
12802
12870
12689
12921
12519
12985
12718
12960
12915
12939
13050
12831
13011
12676
13010
12557
13079
12686
13475
13174
14658
15223
16920
16291
14050
10728
11672
12547
13125
13298
13175
13498
13244
13689
13196
13722
13339
13932
13501
14182
13919
14517
14303
14778
14839
15288
15487
15789
16270
16181
16413
15932
16180
15473
15663
14830
14884
13896
13866
13025
13172
12790
13073
12859
12910
12951
12883
13029
12844
13173
12819
13313
12893
13444
12885
13394
12852
13249
12770
12984
12447
12671
12191
12407
12016
12289
12045
12183
11824
11927
11877
11854
12091
12166
12478
12495
12879
12679
12997
12706
12996
12743
13174
12895
13164
13050
13329
13393
14771
16622
16259
15381
11234
10544
11639
12916
13236
13620
13199
13906
13626
14225
13969
14199
14042
14226
14270
14265
14463
14231
14681
14359
15025
14756
15561
15326
16129
15798
16429
16034
16392
15957
15981
15413
14946
14455
13854
13627
12991
12762
12780
12595
12353
12398
12120
12417
12026
12474
11932
12428
11836
12371
11848
12336
11838
12233
11839
12110
11913
11973
11935
11814
12031
11718
12107
11694
12242
11842
12630
12174
12849
12347
12898
12441
12794
12383
12589
12405
12491
12530
12433
12781
12685
13516
14047
16326
16614
16459
11639
11619
11789
13007
12783
13327
13153
13415
13285
13354
13530
13402
13782
13510
14079
13684
14405
13846
14607
14207
14985
14635
15442
15295
15948
15670
16393
15861
16350
15719
15850
15136
14942
14318
13939
13681
13284
13302
12743
13053
12420
12846
12183
12782
12127
12697
12138
12688
12213
12566
12220
12451
12336
12338
12453
12177
12443
12082
12606
12097
12695
12078
12593
11982
12620
12113
12748
12423
12886
12745
13045
12973
12916
13112
12870
13235
12833
13429
12916
13570
13106
14028
14055
16032
16986
17207
13047
11960
12382
13154
13320
13289
13479
13226
13597
13094
13611
13046
13490
13336
13755
13396
14015
13569
14288
13811
14674
14236
15105
14767
15469
15144
15619
15317
15420
15200
14834
14544
13788
13734
12915
13126
12255
12750
11881
12555
11832
12479
11897
12528
12132
12587
12314
12341
12171
12043
12220
11848
12288
11834
12523
11946
12665
11996
12723
12003
12627
12079
12653
12217
12560
12290
12385
12435
12466
12861
12672
13220
12720
13334
12739
13455
12748
13370
12679
13333
12781
13296
12964
13422
13467
14696
15431
17117
16184
12837
11455
12437
13206
13407
13712
13496
14015
13598
14173
13574
14294
13700
14399
13810
14447
13993
14577
14274
14715
14648
14960
15237
15361
15881
15701
16224
15678
16210
15482
15874
14818
14995
13880
13990
13094
13274
12674
12763
12481
12447
12456
12297
12589
12189
12707
12168
12796
12202
12768
12123
12723
12145
12711
12218
12603
12197
12434
12430
12478
12608
12471
12809
12376
12821
12252
12792
12161
12834
12408
13061
12692
13343
12765
13440
12844
13436
12798
13280
12786
13217
12873
13164
13050
13141
13409
14070
15521
16489
16760
13044
11368
11537
13142
13031
13762
13240
13809
13355
13767
13489
13724
13694
13696
13881
13692
14100
13765
14417
14013
14755
14262
15118
14781
15616
15256
15859
15443
15772
15413
15427
15054
14626
14336
13664
13631
12821
13070
12301
12771
11996
12658
12045
12729
12173
12737
12302
12716
12493
12633
12591
12553
12479
13027
12770
13034
12938
12920
13069
12800
13167
12610
13149
12524
13155
12387
13066
12323
13000
12382
13064
12636
13151
12840
13025
12913
12802
12996
12675
13166
12629
13281
12681
13501
12872
14370
14630
16866
16326
14482
10576
11601
12319
13114
13302
13250
13572
13231
13761
13266
13946
13292
14063
13383
14192
13521
14332
13848
14566
14288
14863
14882
15252
15497
15548
15896
15558
16051
15328
15833
14781
15165
13915
14282
13140
13453
12488
13139
12189
12979
12135
12842
12147
12777
12236
12681
12429
12521
12524
12370
12705
12308
12898
12336
13053
12225
13035
12208
13074
12339
13098
12433
13013
12540
12954
12600
12661
12782
12620
13135
12753
13472
12835
13672
12845
13693
12779
13564
12792
13578
12945
13561
13142
13548
13551
14434
15678
16782
17006
13490
11326
11323
13127
12829
13812
12979
13821
13048
13756
13141
13735
13380
13717
13620
13627
13864
13578
14153
14223
14201
14502
14871
14901
15593
15179
15848
15082
15837
14876
15514
14339
14776
13524
13866
12932
13262
12686
12843
12605
12585
12752
12442
12872
12355
13081
12306
13097
12208
13081
12272
13139
12379
13109
12503
13014
12608
12858
12700
12637
12859
12464
12944
12278
12979
12224
13092
12303
13323
12564
13464
12804
13504
12864
13244
12817
12963
12945
12885
13147
12764
13339
12864
13959
14385
17029
16337
15648
10269
11168
11580
13113
12928
13744
13054
13929
13234
13959
13407
13893
13656
13943
13950
13845
14187
13906
14611
14138
15083
14507
15633
15012
16034
15268
16093
15329
15885
15216
15359
14654
14347
13932
13391
13408
12739
13110
12324
13014
12204
13070
12210
13127
12337
13195
12545
13245
12732
13121
12927
13047
13099
12839
13193
12716
13329
12621
13413
12631
13580
12720
13589
12775
13558
12860
13418
12932
13286
13188
13439
13721
13534
13940
13370
14058
13317
13974
13217
13468
12927
13494
12708
13500
12727
13745
13558
15427
16210
17067
14065
11097
11194
12632
13057
13284
13510
13341
13763
13334
13973
13339
14207
13295
14193
13378
14321
13597
14442
13876
14568
14243
14728
14763
14968
15227
15035
15479
14924
15584
14731
15242
13990
14418
13233
13745
12678
13169
12440
12858
12487
12820
12782
12748
12824
12559
13107
12471
12992
12244
13053
12132
13049
12258
13043
12279
12865
12278
12795
12429
12622
12072
12738
12142
12708
12347
12794
12853
12972
13314
13178
13583
13127
13776
12953
13683
12879
13673
12750
13491
12799
13579
13590
15370
16673
16834
15220
10904
11407
12144
13416
13162
13877
13183
13950
13117
13851
13008
13764
13126
13768
13273
13754
13545
13887
13997
14075
14533
14422
15182
14890
15802
15223
16023
15177
15823
14923
15236
14203
14296
13450
13351
12759
12568
12449
12179
12356
11877
12302
11672
12394
11764
12575
11902
12678
12258
12911
12242
13032
12306
13074
12393
13134
12560
13201
12817
13199
13002
13117
13135
12989
13383
13071
13700
13072
13748
12884
13616
12747
13586
12882
13646
13089
13714
13328
13731
13650
14564
16174
17323
17455
12860
11693
11741
13215
12803
13720
13044
13828
13057
13754
13173
13721
13321
13599
13528
13612
13779
13588
14088
13619
14348
13806
14720
14149
15190
14529
15381
14680
15351
14667
14940
14321
14195
13728
13361
13306
13199
12768
13030
12848
12769
12826
12507
12831
12254
12877
12099
12769
11957
12784
11954
12681
12017
12729
12084
12611
12449
12752
12527
12602
12912
12585
13046
12486
13134
12355
13145
12464
13359
12682
13568
12849
13446
12888
13085
12864
13141
13065
12932
13137
12844
13332
13128
14647
15551
17148
15380
12139
10886
12539
12812
13732
13340
13841
13698
13892
13835
13721
13918
13476
13924
13376
14131
13513
14434
13820
14885
14411
15377
15212
16118
15388
16250
15464
16199
15418
15875
15126
15222
14579
14535
14215
13852
13934
13328
13743
13222
13762
13022
13729
12905
13578
12799
13635
12769
13102
12498
12756
12425
12548
12402
12076
12269
11877
12474
12006
12650
11995
12552
11846
12581
12026
12635
12184
12777
12360
12556
12313
12288
12241
11953
12157
11940
12324
11806
12479
12064
13137
13457
15436
15278
14872
10120
10386
11060
12151
12326
12491
12611
12547
12957
12552
12794
13057
13148
13064
13401
13041
13663
13139
13974
13409
14424
13877
14927
14445
15391
14794
15465
14980
15206
14764
14654
14284
13668
13615
12942
13182
12377
12988
12104
12805
11931
12671
11945
12692
12093
12703
12323
12768
12611
12735
12803
12590
12928
12508
13115
12504
13241
12495
13313
12598
13430
12726
13446
12835
13501
13171
13552
13521
13591
13714
13631
14009
13525
14046
13281
14044
13308
14105
13523
14535
14782
16903
17076
16971
11319
12070
12472
13921
13554
14149
13750
14189
13991
14070
14197
13980
14366
13925
14515
13897
14700
13951
14807
14100
15009
14408
15345
14917
15630
15290
15547
15333
15254
15257
14833
14842
13990
14337
13247
13717
12713
13344
12325
12945
12113
12778
12156
12605
12236
12466
12356
12422
12705
12448
12890
12362
12979
12225
12999
12228
13035
12228
12972
12214
12856
12336
12737
12484
12871
12866
12882
13201
12942
13390
12717
13253
12469
13033
12886
13338
12875
13478
12971
14361
14772
16979
16048
14984
10449
11741
12075
13129
13021
13320
13278
13297
13479
13217
13670
13146
13813
13146
13966
13241
14083
13423
14297
13696
14525
14137
14801
14681
15009
14995
14918
15112
14759
15091
14264
14535
13427
13853
12797
13342
12351
12919
12170
12744
12177
12525
12203
12381
12376
12288
12558
12204
12748
12199
12923
12254
13063
12243
13038
12240
12917
12274
12830
12356
12765
12525
13044
12347
12882
12420
12917
12654
13016
13042
13030
13307
12983
13476
12856
13440
12699
13469
12708
13572
12840
13608
13119
14071
14492
16252
16726
16269
12674
11542
12640
12946
13732
13114
13837
13089
13885
13110
13965
13174
13934
13295
13971
13551
13963
13775
14035
14184
14149
14633
14486
15291
14854
15735
15044
15803
14929
15611
14580
14948
13893
14058
13162
13161
12666
12635
12595
12386
12667
12192
12749
12131
12846
12060
12897
12370
12900
12277
12968
12288
13100
12292
13069
12313
13061
12479
13121
12625
13032
12825
12961
12972
12785
13043
12623
13187
12674
13489
12764
13589
12860
13628
12836
13484
12757
13223
12822
13155
12991
13080
13205
13193
14256
14569
16421
15903
14812
10745
11891
11861
13193
12564
13305
12714
13263
12925
13276
13212
13289
13433
13275
13676
13235
13917
13296
14090
13388
14269
13566
14536
13966
14747
14188
14741
14261
14454
14146
13859
13102
13310
12469
12503
12017
11899
11849
11575
11839
11312
11820
11069
11700
10783
11422
10456
11076
10174
10717
10011
10543
10133
10456
10261
10278
10315
9980
10257
9701
10128
9250
9775
8726
9242
8158
8774
7987
8754
8157
8560
8137
8269
8070
7865
7915
7405
7811
7235
7868
7097
7700
6789
7715
7571
9004
9423
9797
6689
3798
3671
4390
4727
4570
4931
4484
4981
4289
4953
4077
4710
3716
4285
3278
3484
1988
1571
422
218
18
14
14
15
13
15
160
1731
3046
3674
4908
5137
6491
6394
7882
7910
9782
10362
12979
14670
18778
22828
26162
26235
26273
26285
26296
26302
26301
26302
26305
26304
26302
26301
26301
26301
26301
26305
26302
26307
26304
26304
26306
26302
26306
26300
26305
26304
26302
26303
26302
26294
26294
26298
26296
26297
26293
26287
26283
26277
26275
26265
26258
26248
26234
26216
26195
26195
26191
26185
25746
22107
20275
20971
19862
19912
18598
18408
17156
16694
15090
15205
13780
13611
12356
12047
11101
10723
10267
9794
9752
9147
9566
8915
9573
8716
9348
8373
8997
7992
8341
7202
7191
5961
5218
3789
3081
2781
2394
2711
2240
2880
2301
3142
2456
3387
2741
3604
2975
3717
3313
3875
3690
4095
4133
4205
4466
4301
4857
4577
5384
4885
5717
5099
5925
5322
6112
5584
6161
5846
6330
6291
6658
6784
6755
7046
6805
7355
6805
7524
6861
7698
7009
7771
7101
7891
7527
8898
9184
10515
10060
7695
5208
5522
6432
7139
7030
7253
7406
7283
7710
7365
8027
7534
8424
7831
8805
8217
9175
8637
9563
9197
9961
9831
10375
10497
10684
10927
10735
11124
10579
11075
10163
10644
9618
10121
9203
9888
9172
9838
9422
10003
9879
10291
10450
10554
10905
10753
11307
10909
11641
11079
11972
11393
12262
11568
12386
11842
12543
12147
12678
12510
12755
12826
12823
13128
12838
13379
12834
13491
12876
13742
13235
14198
13607
14441
13960
14676
14270
14693
14495
18431
20965
23367
26173
26244
26276
26288
26294
26296
26298
26301
26305
26302
26305
26302
26305
26305
26306
26304
26304
26305
26304
26299
26302
26298
26298
26302
26301
26303
26301
26303
26300
26302
26301
26303
26302
26301
26305
26302
26302
26302
26300
26295
26295
26290
26292
26283
26282
26276
26264
26254
26240
26216
26173
26060
24921
23850
22229
21990
20307
20161
18490
18391
16678
16561
15112
14820
13527
13157
12145
11584
10963
10238
9482
9671
9100
8892
8561
8110
8128
7451
7714
6721
7126
6167
6790
5842
6531
5641
6420
6271
7848
8766
8350
6087
2342
2976
4018
5077
5249
5760
5420
6003
5480
5979
5432
6059
5523
6088
5582
6065
5803
6136
6131
6329
6551
6600
7087
6962
7559
7168
7664
7092
7660
6952
7340
6552
6687
6021
6151
5710
5826
5699
5716
5926
5717
6091
5835
6362
6008
6727
6382
7106
6726
7335
6972
7587
7366
7735
7752
7929
7895
7757
8016
7849
8230
7856
8492
8398
8702
8542
8949
8543
8997
8612
9266
8869
9490
9099
9657
9430
10140
11155
13068
12962
12023
7800
6984
8401
9040
9949
9691
10358
9982
10661
10291
10915
10456
11010
10685
11189
11070
11373
11425
11614
11920
11951
12432
12374
13044
12731
13359
12854
13293
12642
13048
12289
12460
11732
11765
11193
11219
11081
11012
11087
10878
11232
10895
11395
11014
11667
11158
11852
11358
11987
11624
12191
11874
12262
12051
12275
12251
12214
12347
12467
12276
12415
12415
12529
12731
12625
12998
12607
12960
12359
12743
12134
12728
12191
12820
12366
12976
12820
13910
14675
16165
16453
14361
11068
11461
12544
12653
13256
12756
13360
12831
13424
12902
13510
13093
13564
13223
13619
13426
13585
13680
13715
14060
13994
14596
14378
15059
14654
15288
14767
15308
14633
14981
14190
14273
13534
13446
12970
12828
12729
12524
12700
12384
12757
12321
12796
12296
12846
12305
12893
12278
12891
12511
13176
12565
13133
12538
13066
12490
12921
12562
12845
12670
12894
12990
12909
13140
12882
13193
12691
13036
12465
13025
12486
13099
12606
13187
12917
13828
14267
15976
16942
16324
12221
11681
12597
12862
13368
12989
13554
13135
13706
13200
13765
13261
13753
13404
13779
13514
13778
13770
13922
14094
14112
14606
14533
15177
14971
15566
15088
15650
15021
15343
14515
14572
13710
13647
13056
13060
12772
12649
12662
12429
12746
12443
12608
12753
12865
12805
13105
12861
13345
12981
13543
13076
13690
13153
13662
13196
13728
13225
13512
13183
13356
13214
13321
13582
13429
13799
13497
13913
13418
13842
13236
13775
13233
13763
13248
13804
13586
14209
14646
16070
17353
17163
13488
12011
12856
12978
13578
13123
13639
13065
13618
13044
13628
13196
13708
13402
13831
13666
13912
13954
14002
14259
14137
14649
14430
15086
14755
15460
15024
15306
14704
15181
14306
14345
13611
13503
12684
13091
12478
12768
12307
12578
12410
12504
12512
12579
12773
12726
13111
12782
13275
12928
13481
13101
13615
13237
13786
13507
13844
13613
14078
14007
14061
13988
13894
13913
13603
14060
13646
13922
13476
13782
13285
13623
13172
13510
13072
13410
13052
13262
13106
13265
13537
14191
15620
16438
16235
12033
11466
11768
12935
12650
13249
12843
13317
12974
13394
13177
13479
13374
13486
13635
13602
13990
13828
14357
14072
14824
14519
15659
16219
15896
16337
15777
16201
15442
15593
14606
14680
13763
13876
13279
13445
13067
13140
13076
13055
13216
12934
13281
12977
13489
13072
13607
13063
13586
13012
13532
13139
13587
13296
13618
13489
13597
13546
13459
13730
13612
14037
13630
14095
13710
14317
13806
14349
13883
14334
13968
14440
14278
14676
14671
14951
15250
15966
17350
18627
19125
15513
14135
14249
15384
15145
15668
15276
15831
15416
15811
15567
15838
15782
15978
15791
16320
16013
16319
16273
16474
16643
16710
17096
17056
17476
17211
17707
17229
17730
17109
17470
16683
16885
16238
16419
16013
16196
16039
16160
16288
16309
16671
16519
17027
16827
17467
17135
17800
17480
18152
17873
18567
18398
18954
18948
19418
19555
19892
20199
20180
20555
20450
21123
21069
21807
21541
22242
21839
22478
22080
22497
21990
22136
21731
21830
21652
21472
21407
21149
21432
21678
22979
23703
23979
19966
18316
18063
18954
18490
18763
18007
18298
17538
17832
17214
17491
16916
17113
16665
16634
16446
16317
16291
16099
16380
15959
16353
15894
16357
15758
16116
15317
15551
14751
14817
13899
13676
12918
12609
12225
11945
11982
11672
11940
11618
12165
11785
12278
11857
12471
12059
12681
12301
12808
12503
12815
12644
12712
12815
12734
12911
12662
13023
12651
13107
12699
13191
12674
13233
12854
13450
13257
13675
13461
13735
13749
13925
13911
13727
13800
13729
13598
13674
13652
13521
13792
13972
15026
15950
16837
15011
11730
11186
12476
12570
13151
12738
13092
12753
12905
12730
12735
12706
12476
12568
12225
12538
12080
12585
12080
12602
12147
12787
12440
12965
12611
12968
12674
12677
12329
12148
11861
11300
11165
10499
10567
9933
10233
9623
10003
9504
9929
9451
9890
9621
9900
9653
9820
9797
9759
9932
9656
9939
9609
10030
9562
10037
9535
10062
9652
10087
9735
10076
9777
10017
9864
10190
9999
10440
10340
10656
10587
10763
10795
10748
10834
10546
10757
10386
10793
10362
10849
10425
11055
11114
12469
13448
14329
13039
9316
9060
10032
10793
11008
11336
11126
11433
11118
11674
11387
11913
11476
11949
11568
12057
11796
12307
12248
12628
12734
12948
13262
13340
13774
13592
13940
13476
13779
13164
13465
12619
12712
11908
12078
11529
11753
11444
11586
11534
11571
11643
11441
11770
11515
11971
11541
12046
11668
12257
11872
12510
12144
12618
12129
12579
12072
12552
12112
12524
12067
12337
12095
12320
12237
12365
12703
12596
12949
12738
13207
12753
13160
12556
12970
12475
12965
12493
12956
12737
13250
13633
15226
16722
16312
14445
10183
11211
11857
12986
12843
13444
12956
13536
13064
13619
13229
13662
13441
13821
13621
13742
13786
13791
14054
13938
14465
14365
15152
14956
15636
15177
15684
15065
15385
14683
14655
13942
13786
13268
12978
12777
12432
12527
12417
12221
12370
12305
12170
12343
12089
12453
12069
12552
12104
12676
12197
12712
12235
12747
12297
12673
12375
12550
12311
12363
12415
12328
12609
12445
12922
12631
13178
12676
13186
12646
13099
12590
13085
12667
13022
12702
12964
13068
13849
15045
16097
16402
13400
10453
10808
12201
12311
13000
12580
13153
12725
13204
12880
13274
13077
13367
13297
13311
13504
13361
13706
13414
13917
13609
14347
14022
14772
14379
15031
14514
14938
14337
14686
13768
13863
12941
13078
12411
12579
12246
12361
12185
12118
12199
11977
12349
12051
12488
12066
12579
12038
12711
12233
12776
12246
12698
12312
12660
12452
12641
12601
12466
12543
12285
12713
12323
12877
12576
13256
12801
13441
12928
13399
12892
13241
12861
13099
12927
13027
13062
13113
13519
14026
15431
16629
17482
14505
12178
12097
13296
13178
13749
13356
13748
13545
13829
13741
13879
14045
14007
14370
14217
14745
14472
14990
15071
15488
15527
16179
16047
16754
16434
17058
16634
17173
16625
16878
16175
16178
15496
15376
14999
14900
14865
14668
14856
14558
14868
14474
15036
14578
15197
14784
15386
14918
15416
15091
15581
15441
15774
15716
15734
15877
15743
16136
15851
16371
16131
16852
16681
17470
17170
17893
17614
18232
17983
18363
18185
18465
18568
18666
19042
19062
19627
19687
21082
21945
24175
23973
21389
19185
20499
20899
21812
21706
22198
22251
22612
22626
23308
23175
23627
23510
23754
23728
23695
23838
23705
24080
23792
24326
24013
24472
23929
24261
23619
23860
23162
23092
22215
21830
20955
20295
19666
19046
18709
18101
18022
17355
17480
16853
17053
16298
16465
15908
16112
15493
15657
15252
15305
15081
14950
14843
14561
14647
14126
14328
13765
13920
13410
13793
13341
13752
13177
13482
12966
13095
12784
12803
12519
12361
12331
12104
12315
11930
12226
11915
13017
13227
14886
14606
10782
9278
10508
10724
11435
10918
11451
11062
11404
10944
11283
11131
11332
11228
11280
11427
11304
11642
11422
11916
11507
12092
11833
12489
12121
12611
12158
12429
11902
11994
11504
11269
10741
10345
10168
9691
9865
9442
9767
9285
9794
9323
9859
9390
9895
9493
9943
9652
9886
9677
9721
9730
9594
9807
9459
9832
9397
9879
9319
9849
9353
9885
9472
10006
9807
10214
9985
10183
10135
10118
10151
9891
10037
9628
10049
9621
10164
9614
10318
10501
11638
12518
13715
11904
8383
7878
9349
9539
10351
10067
10511
10323
10617
10598
10641
10881
10778
11185
10886
11439
11038
11712
11200
11907
11563
12220
11902
12621
12334
12695
12406
12503
12427
12231
12092
11153
11420
10549
11046
10264
10796
10037
10698
10102
10794
10311
10819
10551
10828
10821
10858
11122
10900
11384
10971
11473
10808
11656
10906
11791
11033
11810
11032
11739
11219
11606
11199
11433
11344
11450
11787
11526
11662
12085
12053
11990
12092
11672
12064
11598
12327
11630
12444
11764
13048
13350
15579
15227
14813
9834
10258
10899
11924
12213
12137
12426
12118
12741
12161
12892
12194
13010
12167
12987
12252
13147
12573
13295
12996
13485
13496
13899
14132
14145
14567
14114
14575
13862
14405
13397
13850
12665
13016
11941
12434
11626
12066
11578
11897
11623
11664
11831
11650
12070
11632
12240
11568
12355
11599
12480
11732
12524
11780
12467
11870
12534
11707
12479
11695
12395
11802
12497
12154
12536
12426
12436
12499
12196
12507
11979
12620
11974
12827
12142
12984
12379
13480
14112
16509
16318
15954
11261
10180
11322
12139
12836
12643
13173
12734
13422
12731
13530
12825
13654
12911
13732
13160
13898
13502
14015
13909
14263
14431
14568
15043
14888
15488
14901
15581
14783
15393
14338
14758
13591
13955
12896
13179
12506
12777
12402
12436
12446
12234
12489
12146
12774
12195
12901
12519
12834
12425
12935
12316
13010
12271
12985
12128
12876
12104
12739
12130
12771
12389
12797
12679
12811
12826
12653
12896
12419
12958
12344
13037
12357
13209
12535
13477
13907
16249
16256
16362
11832
10626
11457
12197
12747
12649
13122
12700
13297
12674
13479
12747
13629
12874
13698
13067
13865
13475
14118
13910
14361
14421
14601
14971
14895
15482
14965
15553
14768
15360
14329
14723
13470
13795
12702
13041
12301
12609
12228
12321
11859
12533
11987
12475
12173
12473
12451
12441
12667
12348
12845
12366
13016
12282
13089
12350
13169
12306
12995
12266
12882
12352
12936
12757
12976
13016
12959
13166
12775
13196
12530
13180
12426
13275
12528
13370
12760
13709
13979
16111
16787
16882
12533
11505
12256
12670
13255
12851
13446
12878
13592
12879
13710
12921
13718
12943
13677
13101
13756
13429
13830
13765
14008
14275
14382
14971
14663
15379
14757
15494
14582
15214
14131
14343
13293
13617
12543
13121
12177
12898
12093
12784
12047
12497
12076
12464
12264
12369
12489
12279
12683
12198
12786
12176
12962
12231
13115
12385
13200
12492
13150
12543
13031
12592
12880
12700
12737
13018
12825
13345
12862
13495
12781
13502
12651
13452
12617
13329
12619
13309
12837
13451
13376
14285
15548
16792
16703
12501
11677
11752
13017
12502
13334
12525
13375
12615
13394
12721
13344
12894
13356
13138
13397
13489
13396
13741
13974
13868
14263
14384
14460
14848
14615
15094
14487
15056
14182
14657
13435
13794
12700
13239
12310
12786
12196
12514
12248
12378
12422
12305
12600
12171
12746
12184
12952
12208
13024
12265
13064
12326
13053
12456
13080
12677
13011
12768
12842
12956
12768
13119
12626
13185
12517
13255
12418
13134
12312
13158
12475
13272
12785
13328
12935
13202
13085
13074
13193
12879
13230
12670
13347
12647
13429
12727
13773
13520
14808
15406
16837
15335
12035
11727
13146
12747
13487
12920
13447
13084
13380
13268
13268
13479
13194
13677
13177
13927
13273
14055
13321
14253
13660
14583
14076
15039
14696
15260
14948
15085
14992
14766
14658
13885
13930
12935
13244
12254
12851
11996
12771
11946
12661
12020
12620
12107
12555
12284
12402
12450
12327
12660
12297
12821
12228
12958
12236
13068
12270
13049
12305
13064
12397
13015
12554
12929
12778
12804
12881
12672
13058
12630
13221
12576
13328
12878
13239
12803
13405
12798
13459
12698
13526
12830
13775
13063
13847
13126
13678
13191
13567
13314
13270
13303
13049
13392
12948
13627
13142
14532
14218
16374
15967
15053
11457
12417
12454
13279
12946
13288
13150
13168
13330
13099
13583
13086
13802
13163
13977
13219
14129
13394
14246
13609
14414
14010
14656
14505
14917
14954
14950
15150
14768
15065
14239
14516
13345
13672
12476
12994
12001
12653
11924
12578
12015
12400
12128
12276
11920
12683
12131
12623
12320
12565
12447
12377
12643
12347
12841
12282
12948
12229
12980
12214
13034
12267
13060
12358
13026
12521
12983
12756
12952
12977
12840
13116
12708
13231
12653
13417
12663
13472
12672
13485
12640
13368
12720
13488
13162
13579
13362
13424
13488
13290
13545
13047
13493
12786
13467
12732
13595
12921
14064
13980
15413
16003
16615
13722
12216
12614
13236
13694
13491
13905
13412
14001
13331
14153
13404
14230
13414
14185
13578
14318
13561
14360
13598
14463
13888
14755
14363
15130
14878
15264
15124
15131
15180
14713
14804
13851
14072
13031
13453
12383
13060
12191
12892
12169
12792
12255
12753
12429
12733
12688
12719
12965
12681
13190
12645
13300
12620
13426
12690
13510
12739
13461
12737
13332
12829
13277
13007
13123
13051
12893
13124
12669
13178
12534
13228
12477
13357
12573
13379
12606
13397
12799
13452
13005
13383
13120
13290
13394
13341
13740
13810
13526
13635
13557
13393
13641
13173
13576
12910
13572
12839
13682
13101
14621
14337
16180
15697
14773
11298
12020
12498
13112
13325
13220
13556
13113
13634
13004
13803
13004
13811
13033
13924
13231
14020
13451
14043
13683
14135
14065
14348
14628
14547
15081
14613
15243
14425
15129
13980
14518
13394
13774
12596
12987
12165
12429
12235
12466
12196
12239
12197
12134
12376
12166
12574
12311
12859
12510
13059
12684
13225
12775
13159
12683
13019
12455
12814
12377
12793
12313
12661
12361
12630
12528
12660
12716
12682
12908
12727
13010
12696
13138
12734
13177
12638
13075
12684
13159
12932
13320
13096
13399
13327
13376
13378
13223
13274
12958
13306
12938
13408
12976
13679
13877
14976
15738
16458
14745
11804
11849
12859
13323
13546
13696
13559
13835
13502
13863
13435
13935
13497
13995
13555
14155
13826
14354
14094
14488
14370
14708
14907
15208
15587
15547
15908
15573
15703
15565
15356
14802
14615
13938
13931
13213
13347
12686
13024
12431
12797
12363
12763
12427
12643
12489
12700
12645
12645
12752
12576
12825
12509
12928
12452
12927
12444
12890
12391
12846
12416
12802
12506
12812
12673
12876
12874
12792
12952
12735
12979
12551
13024
12615
13172
12805
13401
13006
13453
13072
13448
13069
13214
12990
13076
13146
13067
13332
13173
13671
14381
16186
16108
15916
11948
10938
11546
12742
12933
13488
13366
13661
13438
13970
13625
13991
13687
13943
13847
13928
13991
13949
14162
13969
14424
14138
14691
14430
15079
14787
15323
14890
15266
14838
14969
14357
14097
13550
13128
12779
12395
12347
11964
12233
11712
12153
11741
12240
11892
12483
12179
12576
12262
12588
12389
12517
12461
12456
12575
12403
12632
12362
12727
12309
12750
12262
12781
12279
12757
12344
12722
12403
12645
12463
12587
12615
12661
12872
12778
13133
12747
13160
12747
13182
12600
12899
12639
13054
12682
13222
12958
13787
14163
15971
16393
16218
12197
11698
12248
12955
13174
13187
13353
13135
13522
13246
13695
13298
13801
13412
13915
13450
13915
13589
14081
13915
14279
14296
14611
14846
14994
15396
15272
15629
15267
15599
14873
15012
14106
14109
13284
13392
12754
12892
12500
12654
12472
12488
12562
12423
12644
12440
12770
12383
12843
12440
12899
12447
12941
12559
12976
12582
12822
12536
12701
12615
12598
12691
13859
14231
13538
13877
13347
13725
13253
13570
13124
13269
12987
13043
12950
12883
12958
12786
13077
12829
13372
13428
14667
15558
16741
15357
12039
11270
12397
12663
13145
13107
13362
13388
13362
13503
13340
13699
13337
13759
13397
13807
13354
13917
13566
14117
13815
14353
14290
14729
14756
14970
15071
15004
15091
14743
14872
14215
14228
13363
13484
12738
12971
12376
12735
12324
12662
12363
12586
12543
12524
12560
12473
12758
12497
12695
12826
12881
12745
12867
12640
12992
12648
13095
12618
13029
12516
12979
12504
12826
12514
12891
12527
12627
12549
12649
12836
12850
13198
12975
13340
12884
13241
12717
13082
12560
13046
12704
13222
12943
13265
13293
14038
14655
15887
16371
15010
11657
11406
12647
12838
13463
13025
13539
13135
13616
13261
13701
13382
13766
13608
13746
13787
13837
14058
13919
14318
14157
14734
14435
15074
14759
15423
14977
15427
14962
15292
14728
14733
13949
14013
13208
13332
12815
12866
12533
12602
12469
12348
12517
12325
12642
12319
12798
12381
12859
12303
12766
12230
12636
12213
12643
12362
12606
12455
12557
12582
12504
12705
12478
12876
12498
12921
12520
13089
12662
13266
12895
13444
13085
13418
13155
13309
13104
13114
13202
13075
13304
12999
13461
13189
13814
14336
16249
16754
16946
12975
11781
12161
13132
13266
13503
13452
13426
13513
13331
13620
13338
13757
13374
13929
13699
14043
13807
14241
13907
14521
14294
14977
14695
15309
14883
15306
14835
15036
14645
14601
14220
13823
13501
13024
13024
12497
12742
12215
12637
12236
12726
12270
12743
12285
12749
12460
12687
12500
12643
12634
12658
12790
12541
12779
12386
12754
12369
12889
12413
12870
12433
12900
12553
13020
12841
13182
13079
13088
13057
12897
12965
12673
12971
12678
13103
12716
13236
12778
13457
13560
15332
16456
16744
14619
10806
11249
12220
12806
13436
13236
13586
13396
13521
13574
13548
13778
13517
13858
13500
13976
13587
14168
13795
14464
14100
14680
14492
15083
15006
15289
15158
15092
14966
14649
14547
13836
13775
12988
13161
12524
12879
12196
12659
12173
12578
12229
12626
12387
12570
12556
12581
12718
12547
12760
12479
12898
12483
12953
12521
13027
12498
12953
12482
12897
12585
12868
12680
12819
12720
12562
12698
12453
12782
12574
13095
12679
13232
12763
13355
12880
13312
12739
13324
12956
13497
12977
13502
13225
14173
14727
16548
17044
16068
12303
12003
12773
13027
13399
13142
13593
13119
13664
13183
13769
13368
13906
13511
13921
13666
13956
13885
13992
14130
14101
14464
14350
14878
14614
15209
14789
15256
14584
14955
14184
14294
13488
13394
12779
12666
12399
12243
12250
12123
12414
12145
12594
12201
12694
12158
12742
12308
12891
12437
12948
12605
12998
12759
12923
12885
12956
13081
12864
13138
12820
13032
13141
13128
12881
13055
12720
13185
12848
13390
12906
13366
12877
13379
12773
13126
12784
13121
12898
13104
13024
13000
13286
13572
14574
15670
16893
15583
12242
11283
12526
12542
13180
12757
13201
12831
13109
12859
13035
13047
13123
13307
13200
13575
13372
13836
13509
14094
13745
14381
14146
14745
14513
15011
14757
15022
14762
14794
14547
14209
13959
13407
13330
12673
12817
12307
12702
12199
12678
12222
12675
12319
12677
12395
12858
12543
13014
12624
13006
12719
12966
12795
12914
12860
12813
12927
12720
12947
12691
13051
12662
13066
12589
12946
12580
13021
12741
13180
13012
13284
13175
13257
13264
13078
13196
12969
13247
12950
13337
12988
13470
13189
13930
14277
15836
16423
16263
12384
11551
12289
13078
13455
13322
13588
13261
13591
13185
13598
13123
13603
13046
13533
13139
13650
13386
13817
13740
14029
14150
14283
14617
14659
15091
14792
15148
14660
15013
14391
14317
13682
13655
12907
13112
12469
12828
12307
12802
12280
12643
12322
12683
12554
12729
12698
12628
12728
12588
12853
12550
12985
12586
13036
12589
13077
12542
12992
12598
13009
12677
12895
12660
12753
12791
12786
13057
12966
13307
13051
13557
13067
13449
12918
13282
12818
13325
12938
13311
13034
13245
13219
13548
14698
16168
16847
15906
12059
10859
12243
12606
13506
13138
13698
13295
13733
13368
13720
13511
13712
13594
13595
13434
13886
13704
14021
13992
14077
14306
14355
14830
14668
15137
14744
15190
14577
14992
14236
14379
13473
13455
12734
12818
12409
12528
12344
12362
12412
12301
12541
12287
12661
12356
12887
12459
13005
12569
13076
12582
13019
12653
12961
12735
12915
12767
12727
12791
12641
12857
12552
12902
12453
12874
12450
13057
12740
13322
12957
13425
12976
13120
12772
12888
12829
12816
12966
12766
13032
12838
13502
14025
15966
16608
16789
12579
11860
12315
13440
13168
13682
13276
13821
13398
13817
13453
13780
13524
13707
13707
13714
13843
13688
14035
13825
14390
14038
14649
14413
15128
14721
15275
14807
15158
14692
14742
14205
13954
13604
13240
13150
12699
12746
12287
12659
12215
12770
12252
12739
12167
12682
12347
12760
12425
12693
12547
12648
12712
12623
12854
12527
12820
12452
12909
12495
13078
12627
13184
12767
13140
12649
13002
12718
12961
12981
13104
13267
13159
13338
13323
13161
13190
13242
13132
13304
13029
13428
13143
13700
13810
15160
16063
16942
14793
11824
11670
12727
12993
13384
13380
13417
13419
13279
13504
13210
13561
13199
13698
13330
13899
13499
14069
13652
14198
14021
14547
14485
14871
14956
14991
15076
14851
14959
14523
14645
13884
13933
13112
13315
