13288
14847
15155
14437
14460
13997
13912
13645
13609
13884
14254
15448
16085
16218
11931
10694
11284
12655
12524
12960
12595
12953
12726
12938
12872
13166
13149
13059
13312
13201
13489
13347
13778
13497
14115
13925
14699
14555
15048
14845
15018
14616
14684
14243
13934
13591
13230
13093
12697
12904
12540
12975
12473
12985
12498
12984
12479
12967
12639
13077
12827
12978
12770
12656
12576
12418
12507
12155
12514
12224
12650
12292
12700
12352
12948
12948
13324
12939
13225
12796
13150
12676
12908
12558
12853
12722
12859
12856
12953
13225
13655
14560
15758
16388
13063
11234
11804
13311
13413
13992
13822
14208
14051
14242
14086
14440
14570
14603
14755
14610
14821
14543
15008
14899
15439
15183
15864
15651
16053
15760
16079
15708
15708
15335
15021
14555
14058
13841
13339
13291
12794
12933
12458
12726
12245
12594
12365
12815
12457
12816
12547
12679
12550
12573
12597
12570
12695
12676
12450
12495
12576
12593
12684
12607
12896
12699
12958
12581
12863
12354
12527
12325
12754
12474
12773
12636
13005
13638
14586
15960
16306
13347
10504
11561
12323
13080
12801
13216
12840
13210
12849
13236
13009
13360
13221
13539
13511
13706
13728
13685
13938
13896
14323
14339
14858
14668
15110
14697
15016
14581
14716
14126
14015
13389
13199
12729
12545
12307
12164
12369
12200
12549
12400
12779
12415
12826
12435
12732
12332
12672
12292
12664
12278
12587
12195
12520
12260
12611
12558
12900
12912
13148
13262
13243
13362
13149
13360
13108
13413
13074
13456
13145
13648
14200
16067
17114
17513
13378
10705
11628
12648
13293
13381
13619
13543
13791
13572
13929
13628
14045
13766
14275
14035
14470
14326
14795
14747
15118
15230
15504
15785
15846
16013
15756
15992
15566
15597
14938
14924
14140
14117
13463
13563
13041
13148
12905
12924
12778
12844
12923
12855
13097
12840
12992
13131
13114
12999
13106
12906
13120
12791
13178
12960
13325
12965
13400
13035
13351
12988
13164
12888
13014
12885
12942
12992
13063
13418
14407
16404
16773
16711
11976
10851
11538
12774
12823
13275
13135
13459
13334
13543
13511
13561
13645
13602
13709
13529
13850
13615
14085
13908
14497
14391
14994
14804
15235
15001
15172
14791
14747
14339
13980
13655
13188
13073
12682
12823
12335
12646
12239
12609
12253
12687
12379
12714
12468
12869
12564
12948
12641
12966
12599
12758
12558
12675
12567
12697
12800
12782
12982
12843
13073
12697
12989
12613
12940
12572
12958
12686
13048
12921
13502
14414
16074
16500
15900
11360
10886
12003
12564
13095
12884
13360
13064
13516
13170
13573
13281
13639
13422
13659
13511
13734
13802
14018
14249
14313
14718
14677
15098
14882
15325
14927
15145
14506
14532
13762
13661
13039
12986
12605
12537
12322
12237
12302
12150
12334
12154
12492
12480
12608
12581
12751
12570
12870
12638
12955
12545
12893
12460
12858
12546
12986
12790
13130
12981
13157
13042
12984
12897
12737
12858
12637
12932
12693
13137
13056
14021
14688
16631
16411
12831
11162
12206
12770
13110
13073
13149
13235
13172
13383
13253
13588
13337
13731
13482
13910
13586
14056
13819
14288
14174
14636
14661
14971
14973
14995
15022
14851
14887
14382
14264
13526
13515
12858
12978
12453
12726
12304
12540
12241
12504
12373
12674
12418
12762
12463
12752
12540
12708
12644
12696
12763
12639
12822
12650
13013
12780
13273
12963
13348
12946
13247
12807
13074
12730
12979
12816
12970
12961
13084
13327
13706
14357
15600
17177
15969
12192
11593
12916
13093
13570
13299
13633
13388
13653
13505
13658
13636
13622
13644
13521
13758
13634
14076
13872
14425
14275
14913
14834
15386
15127
15474
15166
15298
14913
14718
14306
13912
13615
13193
13148
12746
12923
12554
12905
12698
12953
12762
13059
12769
13120
12740
13101
12637
13024
12679
12951
12544
12781
12659
12796
12798
12919
13020
12917
13155
12944
13204
12844
13113
12712
13104
12744
13128
12825
13275
13194
14317
15642
16990
16635
11957
11193
11956
12908
12919
13279
13115
13511
13135
13606
13280
13734
13446
13790
13516
13833
13768
14021
14111
14301
14592
14675
15089
15061
15501
15114
15368
14887
15048
14340
14265
13504
13381
12810
12853
12578
12582
12366
12722
12492
12758
12589
12757
12746
12797
12844
12725
12908
12637
12888
12594
12966
12559
12995
12804
13267
13023
13380
13068
13225
12994
13019
12922
12959
13041
12928
13113
13005
13449
14129
15970
16751
17367
13117
11164
11803
12963
13224
13570
13421
13610
13635
13717
13820
13774
14016
13770
14074
13805
14231
13922
14391
14208
14789
14724
15256
15186
15517
15378
15467
15389
15188
14962
14479
14300
13640
13672
13122
13297
12741
13020
12822
13136
12805
13125
12726
13132
12761
13151
12773
13087
12825
13041
12766
12883
12781
12716
12865
12804
13002
12858
13158
12761
13052
12614
12846
12420
12774
12484
12789
12572
12847
12879
13967
15328
16398
16601
12256
10779
11458
12568
12564
13028
12721
13130
12794
13179
12909
13231
13055
13342
13289
13485
13521
13611
13776
13779
14202
14150
14663
14501
14968
14622
14928
14431
14592
13981
13894
13299
13190
12800
12725
12601
12739
12524
12730
12592
12730
12674
12665
12715
12579
12760
12534
12826
12526
12938
12515
12919
12591
12998
12720
13174
12965
13252
13152
13262
13118
13008
12949
12796
13048
12855
13235
12944
13434
13234
14412
15376
17051
16845
12802
11241
12214
12783
13142
13134
13134
13248
13115
13372
13129
13514
13230
13620
13306
13769
13438
13899
13728
14220
14238
14741
14893
15190
15265
15240
15308
15061
15065
14448
14317
13541
13598
12982
13211
12846
13101
12696
13013
12617
12959
12551
12974
12563
12805
12517
12738
12571
12660
12632
12647
12697
12552
12748
12488
12884
12704
13155
12864
13296
12883
13189
12782
13014
12730
12929
12833
13013
13049
13186
13478
14027
15510
16958
17495
13026
11805
12149
13243
13065
13448
13186
13494
13295
13534
13415
13577
13575
13630
13785
13754
14085
13901
14319
14105
14690
14554
15173
14999
15435
15089
15320
14930
14915
14428
14056
13617
13213
12821
12953
12685
12731
12606
12518
12552
12382
12505
12270
12581
12284
12650
12225
12634
12297
12692
12369
12740
12551
12776
12621
12740
12703
12788
12893
12938
13274
13088
13366
13022
13356
12996
13314
12851
13128
12770
13086
12863
13057
12968
13190
13749
14615
16597
17079
14104
11240
12134
12577
13283
13030
13451
13082
13461
13152
13529
13330
13559
13494
13634
13651
13734
13965
13909
14278
14222
14804
14750
15329
15121
15575
15181
15425
14880
14964
14160
14041
13228
13253
12653
12798
12410
12556
12425
12526
12446
12422
12468
12328
12536
12311
12618
12263
12618
12274
12672
12319
12597
12269
12593
12385
12603
12460
12533
12561
12658
12887
12932
13157
12925
13246
12937
13286
12869
13208
12752
13121
12836
13136
12916
13202
13235
13986
14866
16615
17206
14063
11452
11839
12994
13000
13431
13150
13567
13240
13620
13398
13753
13584
13792
13692
13796
13826
13922
14189
14231
14572
15027
15307
15515
15725
15622
15747
15381
15491
14840
14794
13961
13895
13210
13300
12827
12955
12692
12853
12669
12749
12749
12688
12783
12635
12845
12584
12859
12539
12857
12511
12917
12577
12900
12588
12919
12702
12893
12726
12778
12785
12897
13132
13078
13320
13042
13313
12972
13329
12837
13175
12858
13214
12874
13177
13088
13291
14207
15885
17139
17149
12683
10830
12044
12705
13459
13223
13650
13390
13825
13508
13954
13780
14190
13945
14335
14051
14477
14234
14590
14475
14868
14946
15284
15458
15584
15641
15422
15417
14910
14887
14118
14060
13301
13324
12732
12879
12413
12644
12263
12392
12256
12395
12346
12372
12500
12417
12631
12421
12730
12363
12678
12254
12673
12267
12597
12395
12810
12642
12904
12783
12873
12843
12772
12796
12658
12890
12601
12907
12710
13192
12907
14386
15773
17211
16735
12548
10358
11696
12499
13121
13232
13346
13533
13414
13674
13666
13669
13763
13878
13820
14169
14081
14476
14253
14792
14595
15223
15083
15684
15428
15723
15338
15399
14960
14695
14180
13789
13453
12979
12957
12539
12708
12261
12500
12101
12469
12148
12601
12341
12649
12397
12657
12566
12764
12811
12836
12890
12772
12911
12635
12906
12514
12915
12663
13167
12817
13173
12790
13126
12818
12962
12827
12961
12921
12880
12966
12974
13281
14107
16146
16846
17121
12155
11228
11864
13085
13175
13573
13426
13986
13644
14053
13704
14025
13732
13950
13790
14013
14008
14120
14329
14438
14805
14836
15372
15253
15685
15294
15580
15077
15210
14525
14413
13646
13534
13107
12982
12741
12669
12686
12480
12654
12401
12705
12443
12788
12371
12714
12295
12743
12450
12764
12522
12748
12465
12476
12382
12386
12475
12396
12748
12639
13024
12756
13140
12685
13054
12616
12959
12645
12988
12754
13033
12986
13242
13965
15418
16979
17031
12753
11053
12174
12898
13162
13134
13367
13215
13500
13141
13461
13179
13650
13304
13730
13421
13867
13749
14149
14142
14542
14693
14942
15157
15180
15326
15041
15203
14617
14603
13806
13765
13002
13154
12636
12840
12477
12696
12451
12623
12553
12601
12691
12640
12847
12642
12881
12629
13064
12716
13144
12753
13091
12721
13008
12681
12854
12584
12676
12623
12715
12816
12760
13011
12848
13132
12804
13099
12724
13120
12759
13146
12847
13193
13041
13761
14261
16509
17644
17031
12194
12074
12632
13367
13440
13545
13667
13620
13778
13618
13885
13657
14071
13722
14067
13723
14148
13881
14316
14129
14635
14705
15104
15250
15392
15375
15305
15401
15011
14920
14199
14069
13293
13339
12626
12744
12264
12606
12301
12549
12308
12472
12297
12273
12297
12236
12410
12242
12567
12311
12709
12405
12769
12347
12718
12392
12752
12497
12823
12594
12779
12653
12720
12785
12750
13044
12929
13211
12914
13066
13094
13189
12928
13044
12704
12983
12581
13033
12755
13297
13573
14837
16367
17604
15114
11794
11861
12717
13080
13093
13353
13275
13517
13288
13618
13337
13774
13494
13957
13594
14022
13762
14179
14042
14385
14467
14839
15086
15215
15434
15269
15434
15031
15147
14423
14367
13579
13596
12987
13084
12619
12832
12516
12640
12538
12672
12698
12636
12746
12584
12797
12533
12807
12508
12899
12549
12948
12685
13068
12764
13129
12924
13232
12899
13208
12851
13141
12829
13071
12917
13134
13188
13192
13267
13083
13268
13077
13291
12887
13187
12820
13193
12789
13149
12914
13396
13724
14733
16358
17213
14887
11462
11863
12558
13118
12939
13300
13032
13418
13125
13582
13215
13595
13298
13603
13443
13762
13724
13934
14049
14228
14528
14647
15072
15059
15507
15235
15579
15067
15254
14523
14427
13737
13644
13076
13058
12738
12763
12667
12624
12666
12536
12729
12415
12740
12579
12649
12530
12734
12568
12874
12540
12872
12432
12761
12400
12763
12411
12736
12497
12666
12482
12625
12537
12546
12614
12513
12752
12667
13087
12845
13245
12963
13362
12991
13225
12808
13049
12722
13039
12923
13186
13224
13455
14114
14721
16496
17110
15463
11684
12338
12759
13647
13356
13822
13512
13861
13580
13899
13757
13879
13826
13909
14000
13963
14195
14028
14472
14338
14860
14757
15388
15176
15675
15356
15707
15301
15379
14628
14665
13894
13885
13256
13331
12883
12869
12604
12565
12549
12435
12470
12296
12601
12310
12619
12244
12656
12267
12685
12311
12666
12396
12732
12545
12740
12666
12746
12756
12671
12824
12636
13008
12882
13343
13022
13403
12990
13295
12855
13153
12833
13098
12879
13076
12975
13043
13075
13897
15573
16857
17464
13637
11048
11536
12772
12931
13422
13123
13618
13362
13649
13405
13577
13485
13579
13653
13654
13895
13814
14260
14141
14615
14874
15217
15255
15656
15463
15775
15366
15611
14937
14831
13954
13903
13268
13216
12721
12830
12584
12564
12461
12382
12503
12410
12724
12471
12881
12600
13073
12780
13175
12794
13166
12839
13113
12849
13036
12889
12927
12827
12771
12818
12646
12984
12774
13088
12783
13089
12650
12946
12470
12754
12409
12755
12526
12698
12534
12717
12985
14137
16022
16507
15767
10663
10883
11555
12733
12728
13293
13042
13458
13118
13466
13260
13652
13356
13778
13467
13868
13680
14011
14081
14423
14611
14842
15167
15254
15580
15372
15593
15112
15242
14474
14471
13644
13616
12996
13064
12630
12706
12475
12517
12418
12403
12522
12385
12635
12453
12830
12531
12960
12587
13001
12648
13013
12652
12985
12679
12905
12737
12864
12807
12773
12877
12733
12912
12605
12891
12511
12967
12647
13250
12996
13428
13093
13380
13070
13268
13079
13101
12989
12989
13056
12922
13146
12982
13687
15091
17052
17375
14566
11494
12190
12648
13457
13127
13616
13292
13777
13534
13918
13597
13816
13667
13664
13630
13742
13718
13755
13895
14011
14351
14556
14941
15105
15391
15260
15344
15074
14909
14350
13987
13333
12987
12440
12193
11974
11870
11853
11759
11882
11781
12007
12064
12374
12318
12541
12498
12757
12728
12957
12902
12985
12814
12881
12806
12859
12839
12835
12952
12807
12952
12975
13247
13275
13530
13518
13771
13674
13748
13550
13544
13400
13514
13300
13403
13247
13402
13398
13925
14582
16428
17890
16358
12324
12259
13086
13519
13786
13698
13820
13668
13663
13510
13543
13497
13572
13542
13688
13765
13879
14014
14133
14411
14655
14904
15098
15388
15450
15585
15491
15500
15309
14996
14482
14034
13542
13223
13039
13058
13048
12952
12980
12923
12989
13035
13091
13041
12983
12972
13107
13021
13078
13084
13092
13118
13128
13087
13021
13132
13302
13441
13434
13557
13752
13906
14036
14203
14238
14397
14353
14279
14051
13904
13668
13595
13445
13352
13227
13199
13052
13081
13731
14770
16254
16712
13360
10528
11258
12058
12592
12626
12752
12868
12967
12977
13032
13074
13246
13305
13396
13423
13510
13553
13653
13797
13947
14202
14432
14610
14783
14875
14903
14947
14857
14616
14190
13741
13288
12961
12629
12453
12299
12271
12214
12241
12315
12446
12458
12566
12652
12759
12878
12944
13006
13017
12973
12947
12916
12831
12762
12677
12607
12680
12810
12845
12898
12854
12888
12758
12718
12586
12640
12576
12646
12696
12740
12853
13042
13912
15362
16922
17211
14162
10654
11649
12543
13220
13355
13463
13629
13812
13663
13848
13864
13850
13932
13989
14040
14086
14250
14280
14483
14632
14849
14927
15028
14974
14751
14462
14250
13968
13693
13380
12963
12774
12453
12323
12162
12216
12139
12210
12167
12213
12152
12208
12149
12125
12125
12182
12210
12375
12412
12475
12576
12561
12600
12735
12816
12842
13026
12948
13131
13148
13337
13099
13206
13026
13036
13124
13051
13241
13123
13419
13326
14403
15247
17082
16995
15058
10947
11950
12530
13465
13466
13673
13697
13902
13994
13929
14088
13971
14316
14120
14555
14243
14697
14433
14839
14589
15059
15024
15445
15432
15661
15580
15596
15460
15171
14915
14224
14043
13371
13391
12762
12931
12496
12741
12349
12663
12374
12588
12427
12716
12485
12822
12537
12822
12642
12813
12662
12646
12676
12636
12709
12592
12981
12717
13003
12646
12932
12530
12845
12471
12753
12511
12828
12688
12972
13019
13253
13984
14949
16589
17161
14817
10997
11880
12369
13206
12949
13301
13021
13419
13180
13406
13219
13422
13335
13442
13528
13551
13754
13654
13963
13918
14503
14473
15075
14930
15449
15115
15342
14877
14844
14221
13942
13368
13098
12846
12604
12642
12442
12619
12323
12603
12532
12703
12602
12819
12590
12846
12540
12924
12601
12996
12591
12833
12553
12774
12611
12938
12979
13109
13103
13072
13075
12863
13033
12707
12979
12641
13017
12814
13239
13045
13541
13998
15673
16977
17200
13005
11488
12135
12946
13190
13339
13424
13545
13586
13636
13707
13784
13858
13934
14071
14007
14121
14139
14355
14414
14644
14818
15156
15364
15549
15561
15615
15511
15255
14911
14477
14008
13557
13293
13041
12920
12674
12668
12628
12694
12657
12757
12696
12781
12731
12792
12772
12794
12720
12697
12620
12611
12513
12411
12439
12460
12439
12535
12676
12666
12762
12832
12945
12865
12859
12777
12784
12698
12783
12740
12810
12872
13068
13739
14677
16446
17204
14552
11490
11986
12738
13120
13121
13232
13269
13311
13313
13359
13351
13350
13285
13362
13386
13399
13474
13595
13798
13948
14182
14424
14638
14780
15005
15027
15035
14907
14783
14379
13992
13589
13218
12950
12820
12714
12668
12572
12535
12498
12476
12496
12523
12621
12551
12591
12611
12736
12702
12805
12796
12859
12760
12793
12763
12777
12798
12784
12748
12750
12844
12904
13118
13230
13352
13308
13400
13313
13317
13174
13132
13046
13093
13015
13098
13118
13113
13560
14214
15535
16812
16454
12400
11824
12433
13229
13303
13442
13457
13450
13468
13341
13566
13362
13652
13408
13817
13646
14108
13881
14364
14267
14731
14717
15205
15345
15605
16987
16461
16125
15322
15130
14356
14301
13659
13702
13177
13295
12880
12906
12695
12684
12596
12553
12653
12428
12577
12317
12546
12226
12581
12225
12528
12106
12371
11985
12266
12116
12401
12444
12556
12534
12533
12619
12494
12651
12351
12569
12251
12627
12331
12712
12405
12916
13157
13753
14860
15992
14773
11184
11112
11991
12644
12674
12975
12766
13070
12784
13112
12816
13183
12933
13333
13053
13360
13182
13477
13475
13760
13946
14468
14565
14998
14947
15094
15014
14949
14869
14468
14223
13596
13580
13019
13151
12711
13062
12710
13045
12785
13089
12863
13123
12989
13092
13084
13080
13136
13039
13220
13019
13274
12945
13241
12814
13143
12805
13051
12734
13065
12932
13244
13125
13283
13230
13186
13266
13114
13270
12993
13280
12966
13288
12924
13323
13190
14232
14688
16428
16821
14906
11225
11840
12703
13223
13471
13356
13604
13434
13725
13456
13854
13521
13858
13683
14055
13846
14310
14143
14673
14499
15069
15012
15511
15381
15624
15402
15439
15207
14950
14627
14080
13882
13262
13276
12756
12950
12529
12826
12412
12738
12434
12734
12541
12808
12719
12865
12829
12800
12899
12767
12929
12617
12778
12552
12882
12548
12975
12823
13263
13062
13348
13106
13282
13091
13144
13069
13084
13224
13137
13379
13220
13673
14475
16459
16984
17077
12204
10974
11735
12873
13075
13406
13359
13502
13496
13493
13425
13749
13564
13708
13722
13810
13873
13862
14152
14148
14686
14678
15250
15061
15523
15158
15458
15003
15089
14420
14219
13675
13479
13116
12899
12806
12552
12628
12359
12607
12321
12710
12417
12801
12457
12827
12512
12801
12551
12769
12580
12653
12581
12560
12621
12542
12772
12704
13088
12861
13205
12762
13095
12686
12913
12554
12815
12574
12793
12678
12880
13024
13738
14831
15817
16145
12880
10282
11127
12043
12649
12871
12974
13298
13547
13581
13674
13749
13836
13926
13892
13926
13901
14052
14129
14388
14495
14878
15127
15460
15574
15598
15526
15440
15214
14884
14453
14054
13667
13315
13162
12934
12890
12715
12790
12721
12805
12740
12908
12867
12946
12953
12974
12928
12908
12912
12786
12843
12835
12960
12898
12903
12755
12698
12557
12634
12482
12564
12559
12728
12814
12871
12836
12899
13001
12942
12890
12791
12812
12815
12907
12943
13209
13375
14020
14793
17043
17327
14419
11873
12484
13144
13505
13452
13586
13580
13602
13593
13663
13697
13730
13755
13789
13853
13771
13924
14015
14229
14427
14843
15079
15453
15530
15648
15626
15596
15394
15143
14753
14326
13984
13534
13276
13055
12886
12775
12797
12672
12666
12591
12683
12702
12754
12653
12663
12596
12594
12544
12626
12667
12684
12637
12609
12697
12650
12760
12860
12991
12980
13040
12958
12872
12792
12718
12601
12552
12539
12579
12606
12682
13256
13960
15304
16472
15593
11572
11334
12140
12804
12948
13090
13105
13258
13284
13361
13308
13424
13399
13465
13510
13593
13638
13771
13881
14040
14270
14493
14796
14951
15200
15135
15181
15004
14918
14561
14235
13697
13411
13124
12997
12834
12730
12613
12505
12516
12421
12485
12462
12554
12479
12604
12549
12676
12637
12750
12737
12867
12851
12860
12733
12591
12588
12616
12766
12881
12960
12830
12919
12836
12926
12771
12821
12721
12819
12848
13016
12940
13038
13144
13847
14409
15874
16514
14692
11328
11799
12823
13373
13558
13564
13715
13634
13687
13619
13737
13709
13839
13767
13542
13827
13665
14108
13999
14502
14296
14843
14825
15251
15158
15395
15216
15169
14828
14459
14128
13556
13392
12872
12954
12529
12826
12500
12828
12525
12855
12599
12870
12623
12859
12742
12868
12864
12841
12909
12721
12819
12525
12832
12533
12921
12744
13196
12902
13302
13014
13304
13004
13336
12991
13344
13159
13531
13368
13789
13830
14862
15749
17062
17509
14036
11908
12498
13564
13684
14030
13752
14144
13784
14093
13768
14131
13814
13971
13871
14057
14012
14084
14210
14231
14579
14597
15082
15053
15502
15230
15527
15067
15209
14647
14515
13822
13697
13234
13047
12677
12624
12665
12533
12703
12517
12809
12506
12810
12520
12881
12533
12880
12565
12837
12564
12699
12555
12718
12620
12651
12814
12740
12977
12757
12847
12893
12845
12706
12842
12678
12959
12707
13014
12815
13422
14320
16411
16464
15987
10911
10712
11647
12654
13041
13228
13419
13409
13585
13421
13687
13425
13750
13456
13855
13566
13954
13784
14250
14183
14617
14731
15200
15331
15462
15528
15406
15479
14997
14862
14117
14031
13302
13343
12721
12827
12334
12517
12227
12423
12273
12393
12449
12602
12626
12537
12739
12581
12886
12619
12895
12540
12886
12506
12937
12781
13113
12910
13202
12840
13116
12649
12848
12492
12698
12545
12756
12705
12963
13560
14809
16701
16622
15487
10566
11104
11625
12659
12594
12986
12792
13217
12959
13290
13173
13418
13445
13577
13719
13674
13917
13871
14325
14245
14835
14837
15464
15270
15697
15407
15624
15169
15178
14607
14325
13864
13461
13269
12986
13062
12774
12984
12645
12965
12655
13037
12709
13053
12764
13097
12829
13056
12927
13071
12965
12887
12954
12808
12973
12848
13218
13249
13326
13202
13326
13031
13132
12781
13119
12816
13182
12822
13248
13053
14251
15259
16812
16896
13409
10948
11783
12590
12960
13152
13004
13318
13077
13457
13152
13538
13185
13516
13156
13560
13370
13729
13689
13976
14174
14430
14686
14796
15044
14845
15068
14725
14896
14199
14033
13244
13228
12624
12722
12268
12431
12228
12304
12209
12185
12232
12158
12398
12278
12577
12339
12733
12445
12828
12548
12890
12579
12875
12602
12808
12602
13163
12956
13303
13123
13339
13099
13193
12943
12812
12810
12708
12878
12713
13127
13126
14143
14690
16901
17075
14351
11575
12425
12860
13393
13242
13500
13483
13539
13606
13576
13760
13586
13907
13645
14107
13849
14290
14045
14532
14358
14914
14931
15560
15452
15500
15374
15322
15143
14692
14391
13653
13457
12811
12869
12343
12621
12261
12636
12335
12663
12406
12671
12511
12648
12583
12602
12693
12622
12805
12540
12849
12577
12919
12682
12823
12615
12894
12731
13195
12878
13242
12849
13125
12746
12956
12628
12752
12512
12652
12583
12653
12799
12919
13548
13623
15344
16035
15108
11195
11660
12262
13154
12871
13223
13024
13262
13072
13221
13173
13235
13356
13310
13561
13488
13914
13783
14259
14070
14657
14574
15156
14970
15425
15250
15486
15217
15166
14706
14326
13952
13487
13374
12964
13087
12757
13048
12709
13057
12699
13022
12731
13049
12837
13041
12846
12949
12726
13075
12772
13067
12915
13081
12952
12948
12907
12796
12917
12709
12983
12838
13230
12904
13312
12940
13306
12882
13138
12796
13026
12865
13089
13046
13197
13411
13738
14324
15277
16733
15755
12171
11414
12722
13163
13783
13512
13917
13695
13937
13785
13980
13927
13981
14077
14035
14230
14101
14448
14262
14766
14643
15296
15213
15772
15540
15912
15641
15818
15475
15267
14795
14376
14050
13587
13463
13090
13216
12802
13071
12642
12853
12681
12863
12559
12866
12496
12835
12456
12759
12408
12705
12384
12577
12336
12518
12374
12435
12459
12394
12527
12395
12870
12721
13060
12749
13157
12784
13103
12703
12940
12679
12996
12820
13045
12983
13214
13552
14143
15280
16355
16302
12065
11419
12102
13312
13256
13707
13394
13767
13497
13775
13607
13782
13699
13758
13763
13736
13948
13844
14218
14050
14573
14429
15025
14814
15279
14993
15301
14996
15120
14670
14501
14011
13683
13125
13164
12728
12748
12548
12517
12500
12440
12576
12353
12589
12375
12723
12446
12821
12422
12779
12455
12776
12392
12540
12280
12446
12356
12540
12700
12739
12968
12824
13063
12771
13007
12634
13039
12698
13087
12737
13103
13001
13909
14836
16487
16743
14785
10613
11197
12353
12909
13344
13154
13631
13374
13762
13394
13782
13521
13897
13653
13922
13845
14148
14191
14434
14622
14755
15144
15200
15644
15473
15831
15425
15572
14865
14680
13943
13779
13067
13113
12524
12679
12241
12498
12125
12351
12202
12415
12339
12468
12532
12488
12607
12436
12626
12407
12652
12334
12660
12256
12641
12431
12901
12732
13101
12905
13008
12845
12841
12800
12717
12855
12671
12988
12876
13450
14030
15625
16547
17075
13611
10833
11444
12509
12824
13120
13151
13311
13347
13336
13555
13457
13799
13624
14034
13777
14195
13912
14412
14189
14722
14637
15132
15198
15521
15487
15521
15278
15426
14848
14621
14035
13724
13348
13001
12958
12659
12780
12484
12721
12363
12718
12383
12737
12398
12769
12481
12732
12543
12734
12599
12605
12535
12495
12593
12438
12744
12527
12853
12553
12895
12543
12853
12422
12675
12441
12768
12620
12863
12907
13205
14115
15264
16601
16705
13042
10973
12097
12518
13204
12919
13377
13125
13520
13270
13582
13444
13648
13554
13699
13733
13731
13941
13943
14351
14266
14831
14742
15311
15078
15422
15155
15332
14789
14829
14033
13979
13353
13497
12998
13130
12770
12797
12575
12653
12643
12577
12696
12525
12767
12530
12827
12526
12936
12631
13007
12609
12934
12714
13013
12925
13269
13146
13256
13268
13180
13177
12981
13075
12735
13044
12781
13169
12781
13246
13089
14086
14872
16551
16669
13068
11177
12033
12759
13020
13217
13094
13343
13124
13421
13107
13446
13089
13442
13118
13505
13290
13604
13513
13883
13984
14292
14612
14855
15055
15422
15283
15257
14954
14528
14175
13568
13373
12848
12922
12451
12733
12356
12721
12366
12712
12406
12703
12468
12646
12514
12631
12678
12730
12877
12793
13025
12753
13008
12685
13057
12700
13176
13001
13371
13117
13422
13217
13341
13167
13179
13161
13179
13290
13131
13383
13277
13999
14303
16108
17001
16294
11730
11970
12481
13332
13233
13456
13401
13520
13550
13563
13696
13551
13784
13601
13956
13734
14151
13896
14391
14241
14964
14974
15501
15336
15664
15300
15542
15040
14976
14273
13978
13411
13201
12930
12772
12783
12620
12733
12512
12685
12330
12645
12286
12630
12287
12603
12294
12607
12441
12680
12595
12703
12683
12729
12844
12735
12930
12621
12756
12448
12894
12631
13170
12938
13344
13060
13374
13145
13287
12997
13001
12974
12983
13088
13014
13301
13226
14040
14405
16158
16413
14911
11219
11841
12418
13203
13075
13272
13166
13252
13250
13244
13375
13470
13408
13678
13713
13816
13959
13966
14250
14233
14681
14610
15170
14982
15326
14924
15182
14728
14743
14090
13859
13302
13094
12803
12645
12590
12450
12667
12474
12670
12391
12725
12339
12750
12441
12787
12505
12765
12540
12755
12548
12709
12688
12692
12706
12581
12707
12443
12617
12311
12690
12390
12956
12702
13060
12787
13163
12849
13057
12836
12869
12762
12911
13095
13097
13225
13184
13860
14026
15462
15829
15183
11303
11596
12796
13606
13387
13809
13601
13954
13683
14053
13925
14257
14160
14399
14420
14470
14512
14505
14784
14805
15252
15206
15755
15552
15952
15532
15734
15171
15183
14477
14220
13584
13344
12969
12790
12803
12645
12832
12606
12909
12560
12848
12380
12668
12223
12560
12143
12424
12173
12472
12331
12372
12277
12392
12502
12444
12704
12578
12887
12535
12967
12688
13268
12938
13359
13125
13462
13127
13246
12979
12925
12859
12845
13069
13040
13251
13591
14360
15654
17306
17660
14562
11473
12466
12909
13660
13265
13785
13406
13765
13421
13874
13605
13874
13746
13976
14004
14114
14264
14267
14702
14650
15168
14955
15541
15201
15682
15214
15535
15011
15117
14447
14291
13755
13576
13287
13107
13080
12801
12936
12637
12985
12594
13005
12613
13057
12724
13098
12755
13143
12868
13069
12869
13033
12963
12833
12805
12682
12997
12817
13171
12804
13327
13018
13477
13181
13618
13236
13525
13118
13476
13047
13458
13164
14426
15843
17253
16992
13162
10940
11793
12541
12857
13232
13190
13569
13299
13676
13349
13777
13395
13797
13417
13866
13631
13864
13717
13979
14011
14208
14495
14619
15013
14805
15055
14731
14938
14298
14398
13632
13739
13085
13101
12672
12860
12649
12720
12674
12582
12732
12591
12836
12547
12880
12521
12966
12618
13035
12708
13028
12657
12976
12648
12780
12681
12763
12677
12670
12833
12723
13004
12994
12972
12959
12986
12785
12982
12681
13085
12787
13332
13173
14707
16022
16753
16149
12219
11354
12351
12955
13353
13353
13438
13598
13490
13743
13475
13814
13406
13827
13524
14092
13781
14351
14110
14544
14449
14719
14891
15204
15251
15143
15226
14997
15080
14420
14227
13385
13450
12769
12871
12370
12787
12482
12729
12538
12817
12709
12842
12787
12637
12849
12623
12799
12575
12874
12384
12817
12331
12805
12283
12724
12295
12578
12357
12812
12523
13033
12584
12910
12668
12904
12773
12805
12688
12639
12728
12592
12896
12740
13249
13428
15121
16154
16598
14800
11443
11340
12356
12753
13198
13109
13316
13344
13421
13557
13418
13723
13526
13846
13544
14003
13662
14135
13904
14464
14306
14881
14924
15388
15343
15476
15372
15175
15036
14555
14354
13719
13706
13115
13336
12790
13167
12700
13006
12599
12884
12605
12782
12648
12720
12738
12726
12852
12722
12947
12672
13082
13145
13115
13231
13002
13241
12849
13134
12692
13153
12796
13332
13070
13495
13241
13507
13181
13247
13035
13076
13019
12943
13088
12890
13288
13153
14137
14772
16606
16426
14530
11458
12113
12524
13167
13034
13319
13226
13220
13215
13218
13381
13131
13464
13159
13560
13291
13788
13521
14097
13919
14552
14438
15016
14968
15261
15135
15148
14979
14667
14413
13724
13665
13050
13180
12673
13039
12629
13042
12634
13067
12787
13006
12747
13106
12735
13106
12773
13161
12886
13096
12912
13019
12994
12982
13062
12828
13034
12749
13150
12841
13368
13030
13584
13239
13580
13109
13346
12997
13201
13084
13225
13172
13150
13394
13381
14414
15594
16602
16052
12703
11092
12256
12615
13404
13045
13439
13314
13595
13481
13717
13783
13761
13880
13710
13985
13801
14298
14060
14563
14278
14993
14860
15486
15269
15617
15330
15474
15118
14894
14438
13946
13665
13207
13209
12719
13026
12833
12901
12722
12908
12649
12906
12480
12866
12484
12914
12480
12859
12508
12888
12612
12903
12634
12756
12668
12636
12670
12544
12766
12567
12967
12721
13130
12696
13115
12658
13057
12650
13039
12811
13176
12932
13154
13290
13486
14552
16035
16497
15814
12514
10878
12112
12414
13286
12975
13439
13074
13521
13272
13558
13369
13547
13522
13542
13688
13677
14016
13895
14379
14305
14938
14782
15477
15230
15679
15242
15516
15035
14968
14106
14157
13399
13496
12965
13073
12738
12800
12630
12605
12674
12572
12736
12575
12812
12503
12923
12624
13080
12675
13104
12735
13089
12711
12920
12694
12882
12784
12785
12780
12675
12816
12646
13083
12811
13209
12928
13382
12906
13175
12790
13135
12817
13094
12861
13030
13063
13326
14238
15588
16302
15708
12372
11113
12185
12548
13293
13015
13515
13231
13636
13389
13713
13490
13643
13617
13707
13811
13811
14001
13922
14355
14298
14845
15098
15390
15263
15521
15170
15415
14833
14837
14009
13981
13238
13375
12867
12996
12644
12802
12596
12620
12515
12449
12576
12353
12566
12318
12762
12448
12904
12552
12941
12650
13031
12697
12987
12742
12895
12700
12692
12741
12738
12958
12886
13192
13002
13392
12940
13231
12755
13031
12564
12908
12623
12963
12821
13188
13514
14486
15998
16522
15644
11822
11829
12311
13245
13071
13505
13225
13702
13371
13762
13484
13764
13527
13975
13739
14154
13884
14262
14132
14516
14557
14883
15032
15145
15297
15113
15171
14702
14711
13919
13859
13166
13275
12632
12904
12455
12667
12306
12515
12313
12394
12378
12380
12442
12302
12536
12322
12652
12361
12797
12496
12904
12530
12936
12663
12966
12689
12870
12633
12758
12735
12747
12921
12834
13130
12975
13320
12954
13282
12855
13189
12804
13167
12863
13203
13014
13481
13980
15237
16686
16599
14442
11807
12367
12869
13526
13265
15508
15320
15532
15166
15158
14878
14824
14744
14584
14714
14603
14971
14832
15316
15084
15492
15045
15319
14763
14847
14125
13956
13277
13097
12658
12454
12352
12241
12316
12128
12349
12096
12454
12084
12444
12108
12500
12187
12531
12216
12511
12329
12561
12465
12505
12490
12458
12587
12443
12666
12351
12653
12283
12659
12344
12874
12595
13004
12674
13039
12883
13085
12946
12931
12866
12804
12973
12841
13160
13030
13640
14095
15877
16448
15312
11410
11741
12238
13275
13092
13579
13288
13713
13366
13679
13456
13720
13593
13731
13728
13743
13885
13798
14119
14048
14521
14388
14977
14822
15313
14959
15295
14899
14981
14350
14158
13614
13329
13035
12803
12776
12549
12727
12456
12771
12467
12843
12436
12812
12452
12800
12457
12767
12479
12682
12626
12753
12710
12661
12721
12524
12726
12455
12808
12612
13050
12684
13120
12789
13098
12708
12942
12606
12795
12698
12840
12840
13336
13320
14199
15015
16906
17043
13850
11477
12074
13099
13256
13595
13317
13739
13475
13969
13636
13950
13677
14013
13775
14117
14041
14280
14310
14365
14611
14709
15139
15161
15546
15225
15484
15040
15325
14654
14651
13824
13783
13125
13002
12608
12620
12432
12422
12424
12382
12578
12405
12637
12278
12594
12178
12611
12346
12698
12393
12692
12430
12616
12353
12529
12525
12626
12596
12369
12553
12441
12798
12613
13133
12890
13209
13081
13361
13078
13031
12873
13067
12958
13075
13087
13495
13918
14737
16181
16916
15603
11908
12142
13156
13902
14058
14206
14076
14198
14127
14195
14090
14331
14370
14588
14578
14717
14793
14920
14945
15021
15109
15221
15534
15598
15691
15564
15547
15278
15180
14841
14664
14124
13818
13495
13360
13192
13250
13270
13318
13408
13305
13424
13377
13356
13195
13181
12978
13021
12904
12880
12652
12544
12244
12272
12372
12422
12448
12601
12665
12827
12812
12913
12877
12849
12800
12760
12879
12787
12871
12816
13215
13857
15307
16592
16182
13410
10445
11429
12369
12957
13183
13254
13369
13448
13530
13550
13472
13542
13447
13595
13677
13809
13745
13986
14004
14173
14214
14272
14352
14524
14665
14666
14753
14558
14306
13882
13634
13138
12974
12763
12768
12597
12649
12630
12760
12808
12923
12914
12945
13046
13042
13109
13056
13255
13242
13245
13009
12942
12739
12764
12507
12579
12592
12866
12887
12919
12733
12716
12580
12495
12459
12513
12573
12599
12811
13081
14103
15537
16416
15717
13282
10579
11653
12356
13026
13145
13304
13368
13472
13373
13394
13497
13575
13650
13658
13803
13828
14082
14133
14359
14534
14913
15041
15348
15372
15475
15383
15289
15118
14900
14544
14183
13817
13391
13200
13017
12909
12724
12747
12609
12642
12530
12698
12650
12797
12772
12828
12858
12858
12864
12793
12835
12697
12754
12792
12814
12848
12994
12975
13149
13118
13191
13079
13034
12840
12892
12872
12997
12976
13013
13238
13665
14796
16267
16240
15106
11250
11292
12206
12871
13209
13215
13379
13404
13540
13594
13697
13724
13824
13934
14024
14168
14289
14446
14534
14819
14918
15200
15337
15501
15478
15524
15362
15271
14991
14631
14218
13880
13603
13383
13220
13037
12984
12850
12843
12760
12801
12745
12897
12890
13039
12949
12995
12901
12942
12919
12858
12742
12773
12590
12608
12566
12494
12519
12607
12670
12767
12851
12811
12822
12713
12671
12555
12599
12540
12645
12615
12869
13108
14059
15456
16011
15165
11290
11018
11796
12477
12681
12875
12971
13148
13103
13143
13135
13303
13302
13376
13344
13477
13494
13613
13750
13946
14224
14458
14661
14756
14913
14906
14941
14750
14578
14146
13897
13433
13214
12884
12780
12634
12609
12529
12483
12554
12655
12757
12762
12885
12846
12935
12871
12960
13034
13145
13053
13111
13035
13118
12985
13091
13002
13112
12960
13028
13025
13150
13232
13325
13377
13382
13454
13383
13385
13193
13137
13061
13093
13009
13200
13236
13561
14308
15703
16800
16544
13389
11777
12316
12983
13262
13343
13426
13411
13483
13474
13536
13530
13655
13688
13860
13800
13938
13975
14156
14298
14485
14733
14998
15179
15221
15324
15302
15063
14840
14810
14369
14170
13547
13090
12653
12611
12700
12739
12698
12839
12884
12871
12740
12799
12862
12934
12867
12811
12835
12842
12943
12853
12920
12857
13008
12932
12989
12828
12941
12899
13109
13170
13280
13277
13287
13248
13168
13227
13116
13088
13054
13148
13092
13185
13199
13496
14051
15286
16888
16878
13421
11360
11998
12688
12953
12971
13080
13073
13147
13102
13258
13279
13383
13414
13572
13533
13644
13656
13846
13980
14212
14441
14718
14975
15108
15220
15218
15205
15016
14803
14320
13944
13393
13214
12982
12965
12852
12865
12797
12899
12831
12902
12842
12928
12887
12915
12913
12966
12921
12872
12937
13010
13023
12932
12986
12905
12915
12800
12935
12795
12802
12735
12823
12832
12936
12918
13006
13044
13038
13079
13012
12994
12872
12945
12893
12993
13037
13288
13523
14274
15480
16557
15754
11931
11284
12187
12923
13226
13371
13413
13485
13558
13697
13665
13848
13805
13943
13955
14104
14058
14206
14204
14356
14496
14766
15012
15304
15329
15361
15247
15167
14812
14534
13891
13715
13166
13150
12899
12825
12690
12661
12698
12636
12914
12818
13080
12917
13206
13009
13112
12801
12925
12618
12818
12570
12705
12534
12677
12683
12731
12743
12658
12737
12611
12893
12762
13087
12787
13157
12936
13221
12904
13154
12810
12970
12839
12993
12944
13049
13343
14040
15008
16047
16084
13370
10883
11386
12696
12927
13348
13237
13585
13431
13663
13542
13649
13602
13706
13737
14072
13979
14206
14229
14389
14618
14839
15158
15237
15600
15422
15583
15160
15238
14625
14554
13854
13745
13171
13165
12786
12811
12644
12676
12608
12570
12650
12537
12741
12577
12919
12708
13056
12755
13054
12792
13063
12765
12990
12800
12835
12628
12640
12626
12549
12718
12720
12894
12720
13034
12789
13097
12758
13021
12775
13052
12828
13089
13080
13590
14396
15592
16341
15479
11579
10936
12223
12882
13451
13259
13662
13402
13785
13672
13932
13674
14060
13800
14126
13844
14178
13976
14435
14463
14822
14914
15232
15330
15363
15442
15318
15355
14973
14864
14178
14080
13461
13485
13033
13236
12835
12980
12765
12933
12895
13029
13038
13006
13052
12921
13081
12866
13041
12745
12976
12652
12941
12491
12727
12493
12733
12634
12948
12948
13055
13127
13122
13145
12915
12948
12716
13003
12760
13037
12792
13292
13473
15152
16581
16666
14818
10674
10953
12082
12865
13130
13229
13584
13475
13604
13599
13684
13782
13831
14059
13953
14267
14127
14517
14356
14837
14809
15334
15305
15715
15595
15691
15445
15413
15096
14722
14374
13861
13670
13202
13263
12853
13033
12607
12805
12485
12769
12584
12779
12579
12798
12641
12780
12760
12681
12643
12480
12644
12450
12576
12367
12791
12533
12922
12668
12932
12599
12767
12522
12672
12522
12637
12666
12674
12967
13396
14791
16224
16103
14796
10868
10666
12006
12502
13347
13291
13654
13439
13861
13566
13853
13620
13906
13741
13969
13860
14104
14142
14286
14550
14737
15060
15108
15431
15160
15347
14921
15014
14362
14190
13472
13360
12791
12788
12541
12514
12406
12397
12440
12318
12479
12358
12596
12417
12668
12385
12771
12530
12870
12600
12819
12574
12761
12655
12790
12881
13008
13123
13110
13271
13095
13295
13006
13225
12877
13188
12931
13252
13134
13717
14509
16069
16488
16124
12487
11051
11965
13030
13218
13385
13418
13505
13591
13570
13664
13547
13858
13704
14018
13815
14193
13973
14369
14284
14782
14763
15155
15184
15368
15264
15169
15005
14611
14281
13644
13406
12794
12866
12448
12627
12234
12465
12138
12382
12226
12408
12293
12446
12465
12511
12499
12422
12628
12460
12690
12332
12606
12334
12633
12423
12886
12716
13022
12848
13011
12797
12879
12758
12768
12808
12779
12948
12891
13325
13720
14870
16004
16526
13886
11744
12304
13312
13211
13477
13230
13585
13362
13604
13390
13658
13537
13690
13675
13750
13888
13973
14265
14327
14753
14791
15251
15196
15617
15349
15592
15198
15173
14537
14278
13668
13430
13103
12951
12869
12710
12769
12589
12774
12578
12825
12631
12932
12640
12926
12613
12870
12662
12870
12693
12766
12692
12723
12771
12685
12804
12666
12873
12618
12869
12641
13022
12811
13117
12929
13166
12996
13179
13029
13105
13060
13077
13035
12939
13000
13322
13621
14199
15004
16483
16580
13878
11795
12084
12973
12994
13337
13083
13411
13171
13485
13317
13497
13399
13587
13606
13709
13778
13825
14101
14088
14453
14483
14969
14885
15301
15079
15335
14999
15134
14657
14461
13850
13565
13147
12892
12751
12541
12610
12446
12571
12364
12602
12343
12615
12309
12578
12251
12466
12249
12441
12338
12475
12442
12422
12385
12375
12562
12572
12911
12768
13033
12818
13125
12838
13098
12740
12908
12651
12948
12702
13036
12929
13582
13959
15506
16465
16059
12288
11593
12425
13072
13375
13338
13615
13500
13828
13626
13964
13731
13989
13724
14098
13901
14139
14056
14291
14328
14588
14859
15007
15317
15312
15514
15227
15387
14929
14893
14155
14056
13465
13477
13088
13191
12900
12916
12767
12836
12852
12707
12783
12588
12800
12484
12718
12638
12777
12782
12817
12772
12853
12941
12982
13047
12983
13069
13050
13162
13122
13327
13380
13540
13513
13567
13370
13412
13239
13340
13265
13354
13290
13391
13540
14133
14922
16423
16815
14875
11467
11857
12781
13194
13416
13432
13624
13571
13697
13641
13711
13715
13875
13828
13845
13864
13885
14055
14155
14401
14466
14810
14964
15299
15262
15351
15171
15166
14802
14484
14001
13611
13214
12940
12784
12667
12710
12664
12680
12597
12689
12555
12696
12598
12848
12756
12823
12701
12786
12752
12806
12789
12829
12844
12901
12980
12968
12941
12911
12880
12840
12937
12981
13073
12945
13087
12939
13084
12943
13026
12827
12996
12893
13103
13067
13320
13444
14291
15497
16660
16425
12917
11397
12065
13038
13278
13411
13285
13490
13354
13525
13463
13608
13607
13765
13768
13911
13999
14057
14206
14270
14528
14675
15070
15171
15448
15296
15360
15092
14966
14516
14139
13617
13263
12913
12702
12486
12295
12339
12282
12428
12360
12467
12393
12520
12500
12689
12534
12664
12700
12938
12841
13061
12940
13110
13063
13184
13133
13178
13115
13133
13040
13027
13060
13051
13288
13194
13302
13263
13406
13244
13318
13148
13268
13236
13432
13385
13438
13574
13999
15120
16655
16717
15314
11233
11406
12557
13216
13570
13493
13705
13578
13685
13585
13693
13688
13807
13792
13865
13927
14009
14155
14252
14461
14655
14942
15077
15300
15264
15361
15125
15099
14765
14532
13950
13638
13267
12994
12702
12461
12356
12221
12154
12303
12343
12395
12447
12435
12271
12390
12407
12502
12583
12627
12762
12580
12792
12537
12790
12448
12716
12509
13023
12877
13210
13018
13282
13179
13225
13108
13116
13123
13097
13259
13215
13492
13527
14276
15323
17267
16629
15519
11020
11612
12334
13180
13353
13570
13597
13614
13639
13577
13747
13576
13856
13573
13845
13639
13931
13643
14125
14055
14497
14528
15022
15099
15332
15328
15249
15075
14665
14383
13771
13450
12821
12670
12532
12536
12295
12437
12144
12410
12108
12505
12314
12688
12431
12706
12439
12663
12545
12682
12641
12618
12595
12552
12682
12539
12777
12625
12915
12628
12922
12662
12865
12548
12920
12822
13144
13060
13222
13247
13293
13277
13146
13193
12981
13156
12978
13268
13018
13305
13203
14119
14853
16408
16172
14572
11222
11813
12504
13105
13334
13366
13521
13429
13634
13492
13810
13595
13945
13747
14094
13852
14139
13988
14422
14428
14839
14854
15351
15214
15438
15236
15195
14888
14582
14251
13728
13438
12994
12877
12487
12648
12327
12566
12264
12574
12384
12714
12571
12795
12688
12812
12763
12828
12873
12754
12879
12666
12832
12574
12811
12512
12748
12377
12626
12438
12732
12498
12795
12740
13026
13051
13057
13079
12962
13060
12904
13081
12909
13188
12958
13447
13938
15215
16277
16494
13116
11166
11761
12730
13091
13223
13399
13416
13546
13386
13614
13429
13690
13617
13836
13812
14089
14036
14371
14222
14681
14599
15141
15117
15548
15334
15525
15278
15268
14718
14337
13903
13418
13195
12835
12878
12578
12731
12362
12607
12329
12631
12304
12561
12364
12545
12400
12728
12756
12793
12783
12856
13052
12956
13073
12775
12966
12677
12780
12546
12873
12693
12946
12811
13049
13183
13218
13376
13336
13436
13368
13307
13087
13077
12831
12944
12956
13011
13035
13274
13683
14430
15675
16820
16261
12630
12113
12928
13535
13693
13828
13865
14015
13964
14075
14032
14167
14068
14189
14132
14242
14212
14388
14448
14594
14823
15051
15409
15579
15690
15615
15646
15337
15252
14796
14466
13930
13638
13182
13038
12756
12716
12608
12547
12580
12521
12612
12549
12709
12435
12348
12229
12411
12429
12699
12513
12557
12460
12598
12492
12610
12531
12457
12424
12446
12619
12780
12940
12903
13073
12945
12954
12719
12702
12589
12678
12550
12812
12870
13122
13859
15086
16371
16750
13808
11365
12090
12891
13333
13488
13628
13657
13743
13716
13844
13720
13913
13834
14017
13962
14198
14139
14340
14376
14639
14833
15164
15425
15586
15753
15736
15772
15485
15262
14754
14365
13852
13656
13265
13177
12943
12946
12868
12853
12760
12815
12884
12854
12882
12872
13031
12922
13080
12938
13067
12961
13049
12894
12967
12697
12708
12574
12667
12671
12719
12790
12755
12930
12872
12900
12707
12755
12574
12687
12717
12954
12951
13324
13444
14698
16265
17176
16613
12870
11020
12083
12597
13067
13108
13207
13255
13256
13420
13400
13533
13460
13689
13663
13863
13813
14134
14184
14472
14505
14842
15011
15290
15292
15132
15227
15267
15099
14651
14269
13693
13433
12969
12892
12576
12650
12393
12419
12289
12402
12293
12358
12354
12462
12531
12474
12564
12530
12626
12553
12615
12466
12583
12415
12464
12380
12457
12307
12427
12412
12601
12690
13033
13119
13374
13237
13237
13116
13069
13007
12899
12921
12842
12959
13070
13687
14493
16116
16453
15096
11164
11540
12161
12826
12857
13014
13065
13140
13115
13127
13175
13192
13364
13312
13551
13579
13850
13840
14150
14185
14590
14742
15130
15196
15389
15372
15389
15362
15103
14792
14264
13942
13474
13303
12970
12983
12803
12915
12698
12801
12629
12701
12596
12661
12669
12708
12709
12692
12716
12676
12864
12775
12895
12774
13001
12885
13023
12869
12939
12754
12851
12747
12998
12907
13112
13022
13204
13146
13187
13062
13096
13108
13032
13028
12960
13174
13340
14111
15299
16661
15996
12514
11485
12325
12837
13174
13150
13268
13243
13350
13425
13433
13550
13563
13643
13587
13787
13748
13986
13949
14256
14335
14781
14917
15246
15359
15454
15356
15320
15178
14854
14489
14005
13710
13322
13242
12946
13034
12851
12930
12763
12910
12796
12880
12811
12937
12926
12942
12932
13115
12957
13100
12999
13024
12934
12869
12869
12783
12817
12697
12695
12467
12617
12572
12853
12807
12980
12922
13106
12983
13100
13013
13004
13032
12993
13083
13096
13238
13288
13874
14313
15632
16177
15274
11569
11666
12423
13220
13346
13511
13512
13646
13664
13611
13706
13652
13766
13765
13984
13885
14049
13969
14220
14160
14502
14697
14974
14982
15049
14969
14915
14876
14632
14393
13912
13593
13102
12935
12605
12647
12448
12579
12492
12685
12650
12848
12713
12944
12832
13064
12992
13104
13010
13085
13065
13094
13102
13019
13029
12826
12937
12831
13008
12910
13080
12927
13036
