14380
14875
14899
15326
15291
15769
15569
15983
15756
16038
15730
15881
15308
15071
14428
14012
13490
13086
12807
12418
12350
12031
12198
11923
12172
11862
12183
11873
12170
11895
12145
11902
12099
11984
12141
12215
12319
12438
12334
12515
12321
12580
12299
12563
12262
12562
12315
12680
12416
12621
12373
12569
12486
12761
12780
12864
12979
12878
13085
12810
12972
12595
12891
12563
12879
12623
12951
12691
13132
13282
14339
15815
17435
17009
12234
12212
13207
13544
13794
13742
13806
13816
13726
13886
13779
14083
13853
14224
13947
14309
14038
14445
14294
14739
14716
15183
15269
15714
15893
16103
16294
16279
16386
16053
16031
15391
15206
14418
14219
13464
13435
12880
12918
12494
12544
12260
12316
12228
12210
12231
12125
12269
12124
12332
12074
12431
12172
12510
12226
12593
12358
12673
12385
12670
12481
12622
12569
12605
12620
12496
12539
12377
12665
12553
13057
12849
13197
12961
13288
13087
13295
12909
13166
12868
13153
12885
13175
12989
13349
13485
14559
16100
17680
17235
12962
12223
12830
13668
13625
13998
13745
14077
13726
14030
13688
13955
13706
13935
13775
13958
13884
14020
14132
14196
14468
14512
14940
15007
15504
15431
15824
15535
15859
15496
15586
15014
14779
14097
13771
13250
12998
12776
12563
12595
12403
12595
12308
12546
12201
12539
12222
12544
12266
12573
12380
12618
12438
12581
12499
12485
12368
12693
12553
12738
12610
12665
12636
12636
12757
12580
12915
12841
13142
12887
13182
12865
13118
12693
12938
12649
12922
12724
12917
12829
13033
13228
13421
14770
16524
17531
16676
12122
11022
12372
12810
13538
13282
13655
13408
13660
13464
13664
13549
13687
13717
13711
13881
13823
14083
13994
14447
14295
14835
14774
15401
15366
15861
15635
15933
15670
15711
15308
14985
14491
13947
13542
13024
12859
12302
12373
11890
12116
11703
11959
11820
12143
11846
12181
11916
12241
11892
12210
11944
12256
12035
12252
12097
12230
12241
12290
12384
12208
12379
12202
12578
12444
12878
12627
12997
12639
12876
12547
12761
12421
12639
12516
12683
12691
12780
12965
13016
13350
14237
16353
17438
17671
12768
11654
12123
13096
13154
13541
13393
13618
13478
13601
13594
13610
13685
13615
13855
13642
13976
13746
14176
13991
14502
14348
14968
14911
15431
15363
15649
15561
15675
15583
15397
14780
14573
13951
13674
13273
13011
12826
12549
12572
12262
12430
12107
12434
12157
12568
12293
12607
12271
12510
12254
12532
12373
12536
12496
12475
12528
12448
12634
12453
12739
12407
12679
12391
12734
12486
12942
12789
13094
12946
13131
13014
13097
12983
12920
12988
12889
13080
12908
13196
12990
13402
13688
15083
16730
18232
16396
12380
12140
12955
13296
13476
13492
13470
13512
13366
13581
13400
13672
13446
13825
13569
13948
13854
14272
14173
14624
14509
15041
14983
15547
15461
15854
15599
15772
15542
15488
15135
14716
14328
13832
13663
13227
13263
12813
12959
12538
12787
12451
12732
12448
12689
12477
12631
12506
12615
12625
12615
12632
12521
12702
12498
12771
12500
12791
12476
12817
12473
12708
12353
12654
12455
12769
12738
12837
12800
12757
12868
12747
12911
12625
12817
12510
12849
12539
12838
12577
13073
13047
14196
15495
17694
17699
13882
12241
12828
13476
13651
13549
13681
13610
13654
13697
13541
13659
13523
13804
13560
13906
13746
14111
13993
14436
14392
14969
15140
15730
15943
16398
16636
16859
17043
17041
17140
16823
16785
16101
16017
15331
15230
14516
14442
13742
13610
13031
12910
12413
12253
11938
11831
11771
11564
11662
11431
11555
11292
11635
11319
11628
11304
11585
11317
11621
11417
11558
11363
11529
11524
11738
11952
11860
12056
11870
12173
11891
12107
11714
12010
11743
12147
11956
12321
12093
12571
12568
13692
15149
17327
16718
12698
11922
12815
13313
13452
13571
13591
13761
13629
13898
13736
14029
13747
14129
13884
14201
13924
14207
14065
14435
14492
14915
15166
15617
16134
16490
17048
17245
17831
17880
18319
18035
18137
17478
17326
16597
16347
15607
15267
14567
14151
13553
12998
12556
12061
11828
11284
11285
10874
11000
10543
10815
10488
10760
10452
10781
10566
10831
10717
10881
10889
10900
10942
10962
11076
11502
11586
11669
11747
11736
11898
11644
11814
11490
11750
11452
11840
11641
12024
11813
12314
12439
13831
15471
16741
15984
11264
10937
11761
12652
12785
13070
12858
13164
12877
13194
12946
13370
13172
13573
13463
13740
13714
14011
14094
14334
14645
14903
15354
15494
16044
16108
16598
16422
16898
16640
16871
16382
16360
15851
15712
15114
14912
14503
14245
13948
13556
13388
12968
12932
12530
12720
12305
12532
12136
12385
12074
12367
12117
12384
12031
12284
11941
12210
11911
12289
12225
12494
12457
12537
12513
12429
12469
12287
12475
12321
12606
12343
12673
12378
12825
12646
14130
15588
17298
17307
13536
10854
11927
12633
13085
13278
13200
13428
13212
13429
13109
13485
13229
13668
13416
13796
13581
13930
13830
14145
14167
14464
14735
15048
15451
15625
16012
15849
16200
15842
16003
15337
15236
14452
14262
13544
13432
12874
12794
12473
12354
12209
12116
12113
12086
12003
12121
12110
12131
12241
12120
12311
12102
12342
12076
12366
12064
12265
11934
12234
11967
12358
12314
12614
12599
12737
12719
12666
12706
12484
12643
12497
12849
12569
12913
12690
13080
12816
13695
14530
16942
18281
16629
12501
12851
13448
13818
13938
13816
13975
13740
13968
13710
14047
13765
14095
13831
14148
13987
14326
14215
14523
14618
14911
15189
15444
15831
15881
16262
16119
16495
16172
16336
15720
15619
14934
14809
13956
13932
13310
13293
12731
12840
12367
12485
12186
12270
12043
12084
11987
11924
11992
11869
12057
11855
12144
11906
12193
11832
12181
11924
12219
11917
12199
12052
12332
12405
12563
12522
12478
12586
12500
12640
12416
12611
12324
12672
12425
12790
12494
12797
12652
13155
13834
16048
18056
17786
13319
12529
13214
13559
13771
13545
13822
13549
13829
13521
13862
13584
13887
13599
13848
13641
13909
13854
14019
14105
14247
14535
14633
15051
15474
15547
15609
15699
15617
15576
15089
14937
14221
14049
13360
13359
12720
12769
12297
12395
12080
12269
12083
12188
12100
12149
12209
12117
12259
12093
12338
12176
12478
12161
12473
12186
12504
12264
12566
12367
12592
12426
12584
12573
12639
12722
12724
12876
12669
12976
12867
13413
13220
13594
13307
13651
13371
13665
13400
13572
13381
13484
13429
13404
13418
13340
13575
13870
14906
16512
18259
17153
13477
12832
13702
13712
13985
13644
13939
13570
13850
13520
13798
13571
13818
13571
13717
13657
13726
13832
13903
14230
14290
14745
14751
15292
15271
15732
15546
15928
15675
15847
15366
15206
14571
14236
13660
13337
13003
12578
12451
12110
12175
11820
12007
11615
11832
11464
11725
11441
11695
11488
11772
11640
11870
11861
11971
12030
11994
12142
11994
12239
12037
12387
12161
12546
12349
12702
12487
12821
12622
12889
12680
12709
12576
12695
12798
12896
13141
13043
13143
13284
13283
13262
13328
13099
13263
13078
13392
13140
13390
13185
13635
14098
15389
17067
18031
15904
12862
13058
13742
14117
14092
14294
14064
14344
14045
14351
13986
14330
14000
14383
14108
14412
14203
14458
14440
14664
14774
14927
15248
15405
15767
15715
16034
15860
16167
15696
15735
15008
14872
14039
13829
13155
12975
12489
12331
12115
11924
11936
11760
11992
11695
11884
11696
12024
11720
11961
11673
12018
11661
11966
11790
12170
11939
12265
12014
12362
12150
12465
12305
12496
12313
12405
12433
12446
12547
12451
12631
12389
12712
12520
12950
12824
13217
12948
13289
13063
13296
13105
13213
13058
13109
13039
12984
13047
12968
13353
13422
14743
16113
17506
16899
12994
11701
12887
13370
14010
13884
14188
14072
14189
14218
14323
14484
14374
14598
14490
14758
14497
14834
14618
14996
14802
15286
15220
15762
15832
16253
16224
16326
16261
16201
16087
15631
15354
14712
14224
13780
13397
12999
12863
12395
12414
12015
12218
11831
12150
11843
12184
11866
12115
11896
12187
11986
12113
12050
12027
12096
12075
12238
12081
12334
12069
12362
12003
12329
12000
12374
12147
12565
12442
12803
12623
12786
12663
12600
12575
12498
12705
12509
12762
12572
12958
12845
13435
14524
16726
17184
17089
12584
11371
12331
13198
13600
13763
13853
13824
14016
13800
14015
13782
14157
13920
14268
13954
14336
14077
14430
14372
14978
14910
15467
15461
15991
15970
16316
16226
16381
16186
15953
15647
14980
14529
13838
13600
12932
12883
12373
12504
12022
12166
11730
12048
11793
12042
11890
12128
12114
12209
12252
12266
12396
12166
12321
12019
12284
12011
12373
12082
12374
11993
12325
12092
12434
12360
12657
12622
12778
12817
12757
12832
12623
12786
12559
12900
12650
12992
12698
13007
12868
13521
14532
16710
17126
16434
11568
11449
12230
12860
13182
13099
13114
13343
13287
13295
13345
13321
13548
13433
13691
13502
13940
13676
14128
13906
14501
14502
15145
15215
15764
15790
16117
16169
16208
16131
15743
15444
14713
14447
13707
13642
13010
13136
12691
12877
12409
12555
12293
12541
12384
12396
12472
12406
12654
12448
12754
12358
12765
12345
12769
12319
12661
12307
12649
12346
12627
12341
12422
12323
12418
12593
12660
13051
13011
13402
13079
13441
12940
13314
12903
13322
12980
13407
13138
13556
13205
13924
14513
16786
17815
17435
12684
12363
12805
13392
13575
13528
13610
13341
13538
13140
13452
13023
13387
12897
13323
12938
13337
13043
13498
13367
13742
13866
14232
14516
14683
14955
14882
15181
14880
15167
14635
14669
13740
13759
12939
12980
12305
12276
11992
12199
11995
12134
12006
12064
12165
12132
12247
12163
12457
12288
12609
12326
12636
12335
12699
12429
12730
12397
12634
12490
12634
12552
12617
12664
12615
12713
12595
12765
13039
13182
13210
13309
13163
13308
13044
13242
12847
13158
12815
13191
12913
13284
13062
13550
13594
14704
16290
18445
18566
14730
13088
13415
14056
13922
14222
13976
14346
13974
14327
13989
14360
13981
14283
14093
14229
14171
14145
14231
14063
14392
14275
14775
14620
15114
15013
15487
15278
15667
15300
15410
14763
14542
13781
13475
12977
12696
12412
12197
12156
11947
12110
11863
12116
11793
12095
11751
12069
11772
12054
11737
12101
11844
12206
11897
12210
11925
12274
12069
12326
12188
12374
12367
12403
12461
12407
12614
12456
12674
12404
12810
12645
13176
12994
13406
13157
13492
13267
13433
13223
13254
13234
13238
13307
13294
13494
13411
13755
14091
15386
17147
18437
16372
13014
12746
13529
13605
13813
13610
13750
13679
13645
13647
13526
13652
13465
13704
13419
13820
13619
14041
13804
14262
14132
14620
14651
15212
15295
15617
15642
15764
15847
15696
15564
15011
14434
14022
13607
13160
12940
12509
12520
12100
12263
11879
12174
11884
12156
11827
12162
11956
12211
12094
12327
12337
12439
12525
12539
12670
12512
12742
12555
12868
12594
12971
12671
12979
12672
12995
12788
13082
12952
13171
13072
13135
13210
13285
13544
13479
13743
13509
13820
13555
13882
13480
13690
13292
13630
13324
13599
13404
13647
13620
14253
15023
16824
17930
16498
12729
12344
13217
13344
13740
13356
13696
13324
13588
13344
13771
13517
13906
13622
13962
13662
13975
13816
14062
14029
14257
14402
14634
14974
15031
15378
15288
15601
15361
15570
14970
14857
14077
13889
13186
13061
12541
12479
12156
12105
11982
11920
11985
11828
11991
11798
12091
11849
12161
11856
12188
11957
12306
12012
12265
12023
12185
12090
12239
12279
12359
12482
12413
12661
12506
12798
12563
12856
12581
12881
12543
12836
12616
12996
12952
13189
13109
13202
13257
13284
13345
13198
13128
13273
13201
13215
13269
13246
13617
13697
14700
15989
17869
17263
13641
12201
13200
13532
14022
13856
14060
13864
13996
13939
13980
13995
13828
13914
13744
14016
13835
14200
13987
14396
14240
14727
14662
15176
15181
15623
15642
15870
15827
15826
15727
15383
15119
14537
14300
13600
13535
12933
12967
12428
12582
12147
12365
12080
12234
12035
12158
12087
12185
12207
12102
12241
12072
12347
12194
12548
12277
12594
12318
12607
12297
12622
12354
12701
12385
12686
12394
12675
12370
12540
12408
12681
12713
12905
12946
12911
13058
12990
13237
12942
13107
12712
13040
12771
13094
12840
13186
13097
13525
14477
16310
17143
16943
12685
11383
12484
13150
13739
13594
13942
13713
14101
13897
14309
14072
14460
14291
14627
14507
14763
14718
14913
15020
15126
15443
15526
15932
15900
16329
16142
16516
16157
16376
15892
15833
15069
14809
14109
13883
13393
13183
12916
12620
12497
12317
12094
12152
12002
12010
12043
11913
12121
11919
12166
11902
12264
11972
12306
11969
12310
12000
12288
11993
12205
11946
12076
12048
12059
12211
12337
12665
12566
12884
12628
12922
12586
12825
12532
12962
12693
12972
12779
13059
13042
13261
14057
15550
17296
17563
15013
11130
12146
12692
13545
13385
13706
13469
13842
13640
13923
13758
14005
13859
14004
13997
14051
14177
14148
14466
14410
14883
14917
15486
15451
16068
15967
16340
16074
16286
15851
15848
15065
14850
14035
13831
13189
13133
12787
12785
12570
12488
12393
12284
12369
12189
12324
12054
12261
11915
12225
11952
12281
11999
12301
12049
12288
12116
12238
12165
12275
12300
12199
12331
12223
12458
12223
12470
12209
12554
12287
12744
12631
13051
12923
13210
13059
13168
12996
12992
12963
12906
13069
12965
13195
13039
13429
13633
14921
16494
17885
16431
12406
11900
12781
13117
13354
13252
13280
13243
13170
13328
13409
13396
13541
13553
13515
13561
13459
13691
13582
13957
13894
14483
14442
15030
14980
15458
15270
15524
15231
15226
14881
14581
14123
13640
13314
12841
12774
12389
12567
12267
12561
12256
12568
12315
12610
12359
12590
12368
12557
12462
12618
12644
12616
12730
12601
12778
12578
12867
12556
12817
12495
12846
12530
12834
12583
12851
12650
12742
12622
12731
12833
12990
13170
13102
13298
13065
13351
13034
13256
12870
13226
12934
13289
13183
13549
13398
13974
14468
16359
17864
18079
13926
12543
12897
13593
13729
13772
13838
13709
13840
13689
13961
13742
14054
13758
14194
13985
14384
14202
14601
14492
14837
14856
15175
15351
15601
15862
15923
16215
16037
16168
15758
15741
15010
14809
13973
13742
13108
13084
12606
12637
12324
12279
12119
12062
12121
12002
12145
11951
12173
11941
12270
11982
12323
12115
12415
12127
12440
12278
12479
12323
12429
12419
12494
12631
12521
12705
12943
12912
12890
12859
12788
12932
12889
13126
12837
13136
12919
13262
12926
13183
12868
13147
12999
13280
13201
13384
13374
13550
14003
14717
16642
18070
17811
13545
13115
13429
14173
13948
14226
13913
14108
13858
13955
13698
13733
13618
13521
13484
13334
13479
13283
13540
13319
13727
13596
14132
14055
14544
14436
14791
14680
14919
14713
14671
14319
13882
13488
12936
12749
12320
12333
11868
12107
11801
12086
11778
12094
11815
12169
11942
12279
11979
12303
12066
12405
12248
12504
12384
12527
12486
12526
12592
12524
12691
12515
12725
12491
12757
12464
12811
12578
12880
12589
12812
12603
12908
12831
13192
13228
13292
13324
13261
13440
13251
13430
13058
13350
13046
13372
13085
13409
13220
13597
14319
15800
17204
17612
14950
11792
12565
13241
13919
13825
14102
13869
14218
13987
14284
14017
14354
14077
14355
14171
14473
14374
14645
14717
14858
15111
15233
15594
15959
16187
16362
16380
16295
16327
15949
15783
15111
14920
14075
13878
13076
12954
12309
12363
11861
11889
11591
11646
11567
11609
11597
11553
11692
11511
11782
11563
11861
11567
11901
11621
11968
11694
11990
11704
12016
11863
12063
11927
12031
12061
12067
12332
12353
12669
12578
12934
12639
12955
12608
12945
12651
12949
12707
13043
12860
13111
13134
13372
14605
16553
17687
17211
12899
11637
12889
13346
14078
13801
14161
13872
14214
13915
14231
13942
14247
13880
14209
13960
14292
14157
14486
14467
14805
15074
15356
15764
15910
16258
16139
16486
16221
16447
15892
15827
15013
14815
14048
13898
13315
13242
12858
12670
12460
12309
12300
12092
12246
11951
12171
11814
12115
11862
12261
12020
12372
12179
12462
12248
12396
12280
12365
12388
12374
12489
12352
12587
12435
12725
12476
12698
12317
12680
12388
12818
12704
13049
12904
13047
12883
12870
12780
12594
12603
12465
12689
12684
12745
12790
12963
13459
14666
16512
17800
15871
12312
12081
13019
13131
13517
13271
13529
13322
13499
13419
13571
13516
13506
13631
13562
13810
13651
13970
13803
14242
14134
14654
14627
15188
15131
15490
15346
15552
15419
15443
15213
14817
14460
13855
13582
13001
12955
12437
12563
12150
12414
12040
12314
12064
12362
12222
12410
12422
12402
12478
12362
12576
12434
12685
12536
12847
12596
12941
12653
13011
12762
13142
13010
13326
13161
13558
13213
13418
13098
13464
13401
13749
13692
13818
13730
13747
13802
13590
13736
13336
13497
13150
13455
13072
13387
13132
13476
13751
14944
16829
18018
16028
12451
12518
13092
13488
13351
13483
13224
13415
13079
13325
12969
13315
13025
13323
13071
13332
13206
13498
13558
13782
13976
14227
14618
14780
15271
15257
15649
15495
15864
15507
15653
15000
14878
14147
13979
13334
13117
12622
12422
12216
12054
12010
11818
12032
11827
12048
12139
12251
12195
12442
12344
12679
12460
12761
12433
12714
12391
12667
12378
12682
12470
12734
12588
12678
12620
12611
12711
12672
12886
12674
12900
12657
13042
12996
13596
13437
13841
13647
13987
13807
13990
13790
13792
13658
13588
13663
13583
13761
13662
14052
14773
16531
17981
18672
15081
13171
13504
14366
14398
14535
14374
14354
14246
14159
14196
14035
14108
13848
14132
13906
14257
13936
14268
14033
14402
14200
14660
14702
15215
15042
15394
15137
15387
15089
15134
14663
14294
13707
13146
12744
12270
12201
11808
11912
11527
11840
11534
11846
11517
11882
11660
11977
11776
11999
11911
12055
12028
12072
12203
12072
12254
11999
12273
12026
12360
12041
12399
12075
12364
12068
12397
12215
12489
12551
12862
12967
13055
13238
13148
13295
13013
13185
12966
13426
13285
13765
13579
14090
14079
14574
15443
17370
19068
19422
16833
13498
14411
15001
15843
15824
16260
16352
16557
16491
16611
16392
16636
16407
16739
16428
16817
16593
17013
16819
17206
17093
17432
17487
17810
17861
17885
17841
17604
17571
17056
16840
15938
15570
14570
14237
13320
13076
12258
12084
11531
11455
11202
11153
11029
10924
11012
10890
11123
10849
11064
10709
10994
10673
11055
10813
11110
10900
11176
11005
11185
11084
11195
11238
11228
11301
11182
11466
11151
11738
11542
12093
11814
12245
11903
12224
11989
12179
12016
12104
11961
12340
12099
12426
12382
13230
14422
16456
17212
14556
11458
11581
12635
12745
13222
12887
13318
12936
13409
13236
13702
13527
13821
13741
13908
13919
13986
14259
14189
14608
14550
15142
15127
15856
15841
16433
16179
16645
16290
16487
15956
15780
15153
14771
14281
13765
13468
12988
13032
12569
12659
12125
12415
11975
12278
11899
12242
11923
12201
11938
12147
11979
12011
11988
12043
12038
12046
12166
11926
12107
11928
12230
11966
12267
12172
12276
11942
12147
11939
12359
12167
12502
12253
12573
12307
12516
12229
12342
12227
12336
12375
12444
12668
12643
12947
12891
13681
14339
16575
17627
16889
12408
12337
12747
13502
13425
13609
13514
13596
13607
13593
13731
13634
13860
13640
13936
13652
14026
13800
14197
14075
14532
14536
15058
15242
15731
15902
16123
16214
16283
16420
16130
16137
15602
15456
14818
14767
14122
14173
13608
13612
13098
13095
12783
12755
12591
12522
12301
12468
12262
12299
12158
12207
12283
12165
12355
12062
12251
11952
12153
11872
12209
11937
12283
12077
12440
12195
12434
12246
12468
12562
12872
13158
13064
13278
12998
13315
12924
13151
12627
12844
12486
12799
12447
12743
12575
12912
12893
13706
14867
16801
17588
14955
12058
12203
13198
13137
13538
13166
13510
13137
13483
13251
13523
13350
13695
13645
13828
13851
14012
14169
14236
14546
14604
15182
15216
15772
15750
16270
16105
16528
16303
16461
15926
15842
15072
14851
14010
13810
13197
13129
12609
12420
12110
12076
12007
11862
12086
11769
12154
11813
12268
11916
12262
11963
12326
12083
12283
12057
12197
12046
12277
12203
12294
12278
12399
12458
12424
12496
12359
12475
12414
12744
12802
13139
12911
13169
12983
13142
12997
13113
12972
13012
12971
12935
13019
13004
13042
13044
13680
14758
16946
17393
16346
11567
11863
12479
13283
13312
13451
13379
13449
13383
13523
13439
13608
13398
13497
13506
13495
13569
13592
13796
13833
14162
14234
14772
14870
15290
15196
15547
15350
15501
15277
15219
14691
14333
13849
13437
13096
12703
12581
12303
12304
11962
12086
11856
11978
11801
12114
11865
12130
11990
12120
12086
12199
12213
12188
12284
12119
12281
12137
12297
11972
12293
12168
12511
12419
12810
12728
12954
12836
13052
12955
12966
13066
13040
13083
13048
13372
13283
13541
13574
14075
15181
17645
18911
17092
12507
13185
13695
14482
14520
14892
14837
15118
15015
15163
15091
15342
15443
15530
15684
15697
15890
15820
16028
15905
16081
15864
16240
16243
16700
16647
16792
16585
16600
16259
15883
15213
14582
14171
13508
13178
12642
12603
12239
12272
11887
11875
11565
11673
11513
11727
11667
11801
11821
11745
11808
11776
11923
11857
12069
11911
11971
11656
11877
11634
11706
11411
11452
11256
11365
11279
11502
11573
11665
11798
11714
11703
11770
11676
11678
11727
11742
11870
11813
12051
12044
12287
12980
14999
16774
16961
12481
10591
10985
11721
11995
12238
12399
12511
12609
12616
12823
12795
13136
13026
13313
13140
13496
13410
13816
13880
14357
14482
14913
15177
15602
15861
16016
16188
16156
16317
15988
15945
15306
15125
14404
14238
13674
13669
13218
13176
12847
12808
12666
12627
12579
12530
12626
12452
12688
12503
12825
12571
12818
12546
12848
12640
12824
12534
12821
12570
12876
12554
12787
12550
12680
12508
12700
12739
12878
13038
13005
13031
12861
13066
12778
12851
12569
12693
12444
12623
12372
12653
12522
12813
13190
14626
16869
17946
15544
11819
11888
12494
12886
12900
13105
12996
13133
12917
13135
12889
13259
13159
13426
13299
13660
13562
13778
13845
14083
14345
14521
14903
15028
15514
15532
15832
15677
15988
15550
15529
14930
14808
14271
14029
13581
13497
13290
13192
13111
12853
12901
12915
12728
12632
12611
12540
12615
12531
12733
12473
12665
12375
12635
12255
12511
12227
12532
12526
12717
12759
12858
13083
13017
13377
13306
13760
13521
14089
13752
14185
13764
14201
13897
14244
14028
14403
14315
14533
14703
14902
16114
17649
18922
18323
14676
12464
13799
14059
14869
14459
14797
14379
14639
14237
14380
14147
14267
14266
14331
14544
14472
14740
14538
14960
14693
15168
14906
15610
15425
15901
15557
15823
15447
15531
15116
14844
14017
13866
13148
13017
12471
12421
12106
12040
11963
11842
11954
11756
12027
11755
12208
11729
12162
11829
12301
11938
12283
11983
12165
11975
12020
12030
12051
12162
12009
12413
12210
12654
12288
12692
12176
12529
11988
12373
12076
12455
12226
12482
12377
12628
12868
13762
15385
16589
16773
13662
10498
11080
12319
12480
13085
12793
13303
13018
13359
13139
13344
13273
13372
13456
13516
13846
13715
14025
13850
14402
14161
14847
14869
15354
15228
15679
15354
15844
15284
15458
14652
14496
13701
13540
12848
12806
12415
12240
12174
12241
12259
12291
12359
12252
12432
12246
12461
12261
12548
12356
12600
12373
12584
12384
12577
12397
12490
12413
12497
12492
12515
12699
12719
13005
12893
13181
12919
13129
12848
12994
12766
13016
12862
13065
12882
13090
13085
13256
13787
14770
16757
17759
16417
11951
12331
12864
13616
13595
13916
13820
14076
13878
14038
13906
14009
13791
14003
13746
13980
13874
14065
14099
14255
14356
14551
14873
14917
15103
14986
15208
14979
15100
14634
14511
13807
13551
13017
12942
12581
12572
12413
12441
12413
12405
12475
12395
12634
12489
12695
12532
12789
12608
12818
12557
12856
12662
12802
12696
12763
12715
12817
12859
12835
12867
12792
12919
12785
12988
12891
13233
13048
13260
13001
13203
12955
13058
12860
12974
12860
12983
13040
13073
13194
13174
13362
13669
14840
16789
18228
15004
12312
12492
13114
13193
13343
13230
13352
13153
13229
13024
13114
12931
13050
12934
13044
13132
13179
13380
13447
13768
13809
14183
14201
14715
14655
15000
14836
15055
14757
14783
14316
13998
13453
13052
12741
12346
12221
11991
12074
11872
12120
11933
12249
12094
12435
12241
12581
12513
12803
12746
12928
12984
13088
13155
13093
13170
13117
13343
13218
13515
13260
13480
13277
13558
13359
13574
13391
13601
13303
13274
13363
13553
13560
13898
13876
14019
14030
14001
14146
14002
14173
13860
14179
13837
14163
13795
14191
14030
14696
15000
16578
17961
17729
14062
12626
13206
13677
13958
13800
14082
13798
14085
13669
14017
13689
14095
13733
14107
13882
14216
13959
14227
14223
14451
14671
14828
15222
15267
15735
15495
15844
15493
15734
15013
14943
14146
14002
13213
13098
12527
12410
12177
12120
12083
11934
12026
11721
11932
11621
12009
11660
12035
11687
12106
11952
12391
12086
12537
12197
12629
12289
12670
12407
12700
12498
12738
12669
12749
12702
12640
12779
12581
12834
12564
12954
12562
12862
12464
12784
12412
12858
12705
13266
13150
13427
13314
13409
13452
13405
13449
13097
13175
12886
13179
12890
13346
13261
13946
14446
15582
16829
17400
15035
12470
12743
13437
13623
13470
13628
13373
13555
13241
13519
12965
13221
12886
13222
12915
13187
12890
13172
13097
13373
13383
13583
13871
14028
14252
14572
14526
14640
14598
14410
14245
13775
13643
13002
13041
12539
12725
12262
12555
12214
12466
12175
12478
12283
12425
12326
12404
12493
12372
12433
12247
12566
12375
12716
12387
12733
12451
12917
12573
12875
12661
12893
12722
12739
12636
12671
12742
12672
12942
12889
13256
13091
13447
13154
13483
13121
13412
13024
13235
12939
13170
13076
13173
13135
13288
13819
14919
16594
16284
15429
11078
11575
12163
13224
13245
13704
13538
13916
13771
14170
13895
14282
14068
14406
14082
14341
14337
14606
14596
14774
15026
15115
15432
15413
15953
15823
16151
15846
16068
15592
15480
14739
14677
13990
13814
13330
13138
12856
12681
12633
12376
12445
12075
12336
12092
12412
12168
12499
12266
12678
12502
12801
12632
12823
12744
12903
12888
12823
12908
12763
13082
12852
13088
12806
13259
12947
13316
12955
13253
12921
13156
12925
13057
12914
12905
12900
12907
12962
12984
13587
14504
16607
16612
14629
10917
11864
12392
13190
13071
13436
13185
13621
13321
13694
13480
13827
13649
13950
13812
13935
13952
13984
14164
14175
14486
14399
14970
14896
15461
15251
15610
15282
15500
15061
15020
14363
14078
13528
13266
13003
12701
12579
12257
12311
11997
12219
11905
12327
12056
12431
12144
12508
12281
12532
12302
12513
12427
12527
12611
12619
12742
12602
12828
12572
12856
12504
12856
12615
13044
12863
13272
13121
13461
13291
13503
13121
13339
13002
13204
12992
13159
13019
13077
13221
13730
14893
16217
16923
15586
11776
11515
12525
12658
13124
12861
13256
13036
13291
13014
13206
13172
13305
13397
13354
13551
13455
13796
13643
14112
13909
14524
14448
14985
14891
15351
15236
15482
15236
15280
14967
14690
14318
13876
13710
13224
13257
12794
12971
12567
12821
12450
12774
12448
12724
12467
12645
12514
12649
12593
12624
12703
12634
12801
12619
12845
12586
12835
12615
12835
12616
12833
12468
12764
12521
12874
12637
13048
12766
13170
12967
13262
13086
13187
13067
13056
13113
13063
13281
13121
13436
13336
13895
14474
16256
17096
17197
13150
12329
12709
13447
13522
13712
13748
13772
13928
13816
14022
13807
14013
13722
14075
13757
14090
13819
14261
14113
14532
14455
14893
14971
15293
15338
15467
15623
15535
15613
15193
15061
14374
14251
13543
13527
12959
13018
12535
12689
12432
12567
12335
12377
12259
12601
12297
12537
12407
12534
12429
12412
12426
12358
12572
12340
12611
12342
12713
12362
12636
12300
12660
12318
12553
12283
12590
12499
12741
12884
12948
13041
12914
13076
12841
13039
12707
13019
12711
13054
12728
13020
12795
13233
13237
14269
15306
16867
17067
14172
12035
12406
13200
13233
13475
13224
13578
13253
13615
13361
13689
13501
13880
13768
14068
14012
14164
14300
14408
14602
14595
14986
14962
15472
15327
15744
15413
15729
15537
15596
14881
14674
13932
13842
13136
13210
12709
12794
12428
12553
12360
12279
12256
12220
12304
12158
12299
12042
12390
12159
12584
12321
12690
12419
12783
12539
12729
12471
12635
12585
12637
12646
12565
12683
12520
12769
12602
12884
12590
12930
12526
12839
12601
13016
12932
13250
13124
13300
13231
13351
13380
13316
13401
13257
13447
13206
13539
13182
13563
13392
14404
14791
16491
16876
15974
12550
12705
13255
13649
13729
13892
13753
13887
13745
13768
13769
13664
13782
13610
13841
13640
13982
13749
14174
13972
14434
14306
14854
14788
15197
15110
15323
15284
15279
15104
14671
14401
13750
13500
12825
12813
12278
12446
12329
12438
12141
12289
12101
12284
12129
12314
12325
12496
12566
12673
12758
12789
12888
12848
12929
12750
12916
12753
12904
12733
12903
12774
12977
12792
12906
12786
12872
12808
12752
12657
12666
12677
12474
12628
12563
12940
12919
13217
13104
13428
13396
13574
13407
13537
13329
13501
13366
13542
13453
13742
14027
14778
15918
17267
17178
13790
12440
12898
13511
13623
13809
13657
13719
13540
13703
13525
13610
13461
13546
13493
13599
13636
13820
13944
13996
14226
14302
14580
14686
14960
14873
15086
14984
15086
14771
14653
14069
13779
13196
12868
12463
12192
12063
12005
12056
11985
12214
12147
12331
12198
12271
12085
12249
12216
12435
12324
12468
12531
12653
12692
12639
12681
12820
13048
12956
12974
12924
12876
12876
12772
12739
12621
12932
12789
13070
13032
13277
13177
13452
13316
13396
13217
13280
13219
13186
13220
13238
13280
13246
13466
14041
15347
16672
16900
14970
11392
11857
12788
13311
13633
13626
13776
13820
13856
13800
13807
13932
13886
14069
14000
14179
14142
14471
14429
14779
14766
15084
15225
15601
15716
15904
15901
15918
15824
15647
15412
14948
14572
13973
13681
13231
13176
12828
12868
12618
12626
12455
12602
12445
12500
12261
12408
12314
12503
12402
12473
12493
12554
12543
12546
12628
12506
12531
12287
12368
12251
12435
12317
12545
12522
12807
12814
12968
12903
12950
12804
12748
12734
12709
12803
12770
13006
13008
13276
13859
15287
16621
17122
15147
11485
11862
12679
13111
13357
13404
13505
13598
13622
13762
13707
13787
13686
13860
13693
13847
13769
14068
14059
14314
14369
14664
14811
15094
15327
15438
15506
15448
15458
15201
14855
14418
13947
13426
13096
12780
12779
12577
12648
12426
12501
12325
12452
12294
12417
12355
12430
12318
12382
12376
12396
12443
12466
12521
12422
12533
12417
12513
12439
12658
12598
12760
12593
12679
12557
12675
12742
12948
13015
13107
13221
13111
13145
13026
13087
12811
12845
12663
12814
12693
12860
12892
13129
13956
15555
16873
17088
13759
11633
12158
12564
12902
12836
12986
12808
12998
12841
13063
12965
13148
13058
13223
13182
13452
13441
13730
13696
13969
14077
14385
14577
14864
14989
15083
15166
15156
15219
14950
14727
14148
13885
13346
13247
12919
12942
12678
12761
12662
12705
12463
12514
12603
12540
12528
12504
12665
12700
13008
13026
13317
13245
13422
13310
13375
13128
13219
13049
12961
12863
12874
12858
12909
13116
12999
13105
12957
13054
12774
12777
12525
12702
12435
12591
12469
12656
12743
13045
13340
14178
15774
17380
17368
13548
12360
12777
13444
13632
13777
13777
13715
13495
13502
13369
13459
13316
13348
13244
13381
13307
13428
13374
13496
13580
13814
14065
14304
14541
14622
14719
14604
14788
14598
14455
13921
13792
13309
13162
12779
12730
12451
12431
12378
12347
12406
12394
12498
12454
12655
12635
12865
12775
12999
12887
13060
12889
13017
12817
12920
12835
12930
12908
13012
13070
13096
13205
13092
13112
13031
13285
13398
13786
13744
13956
13908
14052
13944
13992
13867
13938
13990
14158
14162
14156
13990
14154
14324
15193
16574
17990
17991
14572
12831
13205
13807
13748
13833
13694
13842
13608
13647
13552
13632
13547
13573
13553
13565
13607
13581
13704
13694
13930
14022
14377
14458
14779
14712
14888
14683
14782
14610
14545
14206
13940
13515
13171
12865
12516
12412
12202
12223
12054
12180
12041
12207
12111
12276
12154
12242
12130
12269
12209
12286
12266
12288
12396
12440
12550
12497
12656
12564
12761
12745
12943
12982
13000
12751
12868
12750
13024
13016
13203
13071
13177
13092
13169
13055
13059
12927
12927
13001
12987
13074
13026
13275
13338
14348
15635
16981
16552
12871
11575
12433
13042
13415
13440
13590
13657
13631
13660
13570
13522
13394
13974
13904
14113
14090
14354
14311
14638
14644
15005
15090
15413
15501
15673
15779
15705
15730
15639
15732
15358
15100
14545
14285
13799
13637
13267
13197
12962
12923
12706
12728
12681
12728
12737
12811
12798
12800
12642
12642
12621
12578
12581
12491
12486
12400
12449
12208
12257
12081
12169
11973
12038
11930
12150
12181
12461
12541
12641
12681
12727
12741
12710
12766
12629
12735
12604
12678
12564
12749
12713
13056
13906
15565
16806
16712
13915
10676
11607
12434
13094
13282
13449
13383
13498
13455
13679
13638
13839
13691
13941
13947
14195
14225
14395
14517
14711
14886
15059
15315
15590
15854
15897
16227
16136
16212
15885
15721
14976
14577
14049
13870
13379
13198
12828
12865
12650
12756
12590
12599
12529
12591
12566
12519
12532
12489
12566
12350
12413
12230
12270
11996
12107
11920
12040
11830
11911
11841
11895
11825
11840
11812
11847
12013
12156
12449
12405
12598
12441
12688
12672
12904
12770
12840
12689
12839
12748
12850
12830
12981
13190
14187
15874
17107
16946
13045
11582
12086
12864
13078
13315
13234
13438
13310
13454
13447
13608
13591
13637
13702
13699
13829
14054
14132
14305
14473
14704
14994
15149
15394
15440
15594
15499
15615
15383
15310
14731
14381
13834
13643
13239
13068
12870
12748
12642
12547
12639
12669
12825
12755
12887
12803
13022
12912
13018
12829
12946
12843
12946
12802
12848
12690
12712
12690
12603
12617
12539
12664
12515
12628
12466
12618
12594
12811
12770
12932
12881
13041
12916
12909
12710
12616
12643
12702
12822
12801
13080
13072
13854
14815
16732
17271
15406
11800
12504
13021
13494
13374
13536
13402
13546
13416
13518
13444
13485
13499
13565
13656
13698
13806
13839
14037
14049
14384
14491
14894
15025
15407
15365
15562
15447
15445
15187
14961
14547
14125
13744
13380
13193
12974
12944
12707
12759
12524
12621
12425
12528
12400
12479
12392
12506
12367
12372
12367
12422
12396
12344
12436
12375
12490
12352
12519
12431
12660
12552
12708
12661
12798
12746
12965
12943
13072
13114
13142
13206
13149
13161
13175
13216
13199
13181
13193
13318
13352
14020
14864
16808
17700
16540
12286
12446
13019
13608
13546
13695
13647
13758
13794
13832
13920
13909
14054
14022
14149
14114
14363
14292
14457
14406
14775
14810
15220
15357
15643
15678
15771
15687
15623
15546
15199
14795
14285
14024
13549
13345
12999
12990
12727
12795
12569
12705
12597
12758
12693
12769
12733
12768
12901
12902
12958
12886
13060
12943
13011
12768
12815
12543
12648
12455
12583
12432
12731
12585
12681
12512
12630
12519
12573
12427
12462
12453
12454
12578
12590
12758
12739
13129
13378
14839
16568
17165
16029
11463
11164
12190
12643
13039
13077
13226
13271
13284
13322
13253
13417
13403
13616
13572
13753
13687
13929
13800
14071
14133
14488
14612
14944
15079
15261
15285
15295
15335
15185
14995
14470
14197
13711
13547
13102
12989
12641
12704
12470
12563
12424
12601
12576
12634
12657
12693
12753
12690
12761
12625
12715
12683
12777
12681
12714
12611
12759
12663
12766
12607
12802
12663
12869
12752
12951
12937
13020
12859
12847
12763
12693
12752
12789
12946
12859
13022
12970
13366
13773
15047
16715
17955
16686
12395
12217
12872
13293
13474
13552
13574
13569
13515
13625
13493
13631
13506
13685
13596
13875
13781
14059
14044
14305
14387
14701
14861
15096
15206
15300
15384
15303
15289
15102
14906
14407
14154
13600
13421
12994
12949
12658
12727
12567
12653
12544
12732
12596
12691
12618
12715
12577
12627
12590
12569
12577
12491
12564
12471
12575
12443
12582
12470
12612
12424
12539
12380
12475
12304
12426
12537
12665
12694
12692
12701
12676
12772
12634
12664
12516
12624
12571
12781
12707
12991
12895
13873
15098
16976
17263
14451
11814
12188
12806
13046
13202
13197
13342
13198
13357
13261
13465
13347
13541
13492
13723
13701
13913
14001
14175
14292
14507
14758
14952
15319
15435
15700
15595
15634
15470
15317
14835
14510
13994
13807
13407
13339
13037
12964
12665
12692
12518
12597
12549
12594
12572
12491
12628
12574
12646
12520
12701
12544
12769
12668
12904
12754
12931
12849
13015
12882
12959
12904
12804
12798
12837
12943
13018
13175
13056
13156
12957
13165
12935
13015
12752
12873
12735
12872
12778
12887
12980
13110
13838
14883
16655
17170
15061
11532
11905
12338
12884
12788
13012
12913
13091
12982
13060
12966
13054
13064
13266
13260
13452
13481
13746
13842
13992
14208
14459
14841
15057
15335
15301
15500
15329
15433
15124
14952
14367
14086
13487
13287
12922
12835
12695
12661
12636
12624
12640
12575
12744
12624
12831
12753
13020
12820
13020
12835
13029
12861
12908
12768
12865
12811
12798
12740
12647
12751
12710
12916
12857
13187
13051
13249
13076
13217
12990
13125
13011
13157
13149
13310
13348
13393
13568
13666
14927
16606
17779
17451
13782
11251
12463
13228
13691
13617
13842
13754
13939
13747
13939
13878
14078
13920
14114
14024
14178
14174
14199
14357
14478
14675
14800
15154
15154
15406
15299
15507
15240
15199
14736
14460
13892
13597
13090
12855
12552
12384
12295
12164
12214
12077
12232
12134
12366
12184
12440
12282
12524
12463
12620
12514
12650
12508
12560
12456
12444
12452
12329
12318
12228
12395
12303
12574
12529
12831
12750
12968
12854
12990
12738
12788
12717
12818
12829
12878
12876
13090
13019
14086
15556
16648
16707
12915
10706
11637
12500
12799
13104
13009
13313
13265
13502
13318
13480
13334
13486
13402
13517
13524
13638
13778
13914
14158
14241
14547
14664
15061
15058
15312
15166
15368
15106
15093
14605
14327
13794
13469
13169
12954
12798
12643
12608
12412
12497
12371
12511
12300
12512
12376
12578
12416
12566
12395
12569
12513
12600
12604
12643
12744
12768
12869
12718
12848
12671
12805
12549
12675
12545
12846
12932
13211
13100
13270
13113
13299
13153
13276
13097
13289
13225
13361
13332
13455
13632
13696
14689
16206
18102
18247
15199
12659
13231
13544
13950
13762
13986
13923
14095
13938
13936
13912
13939
13950
13933
14041
13957
14106
13968
14239
14243
14586
14605
15004
15054
15335
15236
15341
15213
15210
14990
14645
14244
13782
13477
13052
12894
12521
12537
12326
12446
12258
12421
12258
12421
12268
12368
12307
12340
12333
12339
12326
12276
12330
12465
12384
12385
12371
12314
12341
12229
12349
12224
12348
12213
12317
12099
12359
12327
12641
12642
12848
12818
12936
12895
12892
12819
12696
12662
12592
12749
12723
12891
12819
13160
13513
14392
15873
17239
16340
12626
11976
12690
13069
13167
13239
13298
13427
13346
13491
13433
13623
13528
13790
13732
14016
13995
14234
14227
14434
14467
14761
14994
15278
15562
15742
15926
15863
15921
15640
15498
14945
14620
14005
13823
13370
13225
12950
12928
12635
12684
12455
12502
12301
12418
12323
12398
12278
12271
12268
12250
12304
12260
12354
12219
12310
12173
12277
12106
12286
12197
12387
12314
12492
12522
12674
12604
12658
12674
12534
12627
12597
12710
12836
13145
13156
13369
13272
13467
13285
13341
13073
13179
13160
13300
13287
13402
13460
13720
14568
15396
17290
18140
17004
13393
13637
14209
14824
14863
15072
14968
15067
14875
14969
14844
14910
14972
15088
15172
15268
15259
15341
15346
15428
15664
15821
16102
16195
16349
16212
16229
15937
15860
15403
15066
14334
13823
13105
12700
12200
11943
11681
11535
11469
11378
11366
11190
11221
11053
11155
11029
11134
11011
11139
10976
11133
11078
11257
11224
11284
11335
11386
11510
11567
11641
11657
11777
11748
11953
11891
12085
11912
12069
11941
12143
12111
12318
12429
12650
12754
12864
12980
12986
12991
13031
13071
12856
12971
12985
13300
13208
13540
14309
15538
16855
17305
15682
11827
12053
12995
13526
13732
13619
13739
13761
13878
13891
13917
14072
14006
14132
14045
14108
14112
14393
14347
14539
14567
14902
15078
15337
15415
15646
15722
15802
15710
15558
15325
14876
14491
13921
13609
13101
12962
12579
12563
12324
12359
12282
12446
12367
12509
12545
12639
12754
12854
12830
12695
12849
12800
12953
12805
12983
12798
12878
12719
12902
12669
12645
12481
12505
12456
12645
12836
12968
13134
13354
13345
13403
13383
13274
13328
13305
13386
13284
13433
13271
13547
13453
14753
16332
17201
16649
12480
11284
12272
12909
13324
13473
13597
13793
13872
13952
13799
13883
13745
13973
13866
14078
13998
14265
14236
14470
14536
14829
14991
15275
15532
15731
15869
15895
16090
15917
15783
15361
15099
14457
14242
13805
13718
13341
13315
13099
13024
12775
12705
12603
12456
12347
12196
12282
12106
12172
11981
12093
11909
12061
11981
12284
12298
12455
12296
12450
12368
12517
12236
12151
11958
12025
12057
12223
12323
12439
12598
12643
12802
12725
12797
12557
12675
12588
12786
12723
12896
12892
13163
13859
15162
16815
17306
14913
11907
12313
12891
13230
13165
13366
13302
13475
13433
13599
13492
13679
13679
13871
13850
14091
14154
14326
14485
14635
14787
15001
15395
15577
15894
15855
16008
15819
15855
15438
15166
14539
14178
13606
13321
12922
12744
12564
12355
12290
12298
12261
12320
12367
12447
12488
12522
12659
12610
12681
12581
12645
12524
12667
12500
12618
12493
12614
12557
12675
12540
12648
12665
12691
12831
12893
13036
12933
13067
12932
12978
12766
12828
12676
12893
12768
12858
12679
12797
12918
13465
14259
15892
16970
15857
12044
11819
12618
12987
13219
13109
13266
13136
13280
13263
13397
13343
13517
13553
13626
13807
13870
14075
14098
14422
14482
14840
14898
15427
15428
15798
15737
15947
15760
15736
15199
14974
14397
14146
13584
13467
13107
13029
12746
12640
12502
12439
12487
12381
12489
12294
12487
12355
12589
12387
12555
12276
12444
12189
12394
12308
12462
12387
12437
12477
12473
12551
12514
12583
12494
12755
12734
13121
12974
13249
13153
13378
13197
13314
13047
13121
13112
13242
13261
13274
13418
13476
13803
14592
16071
17346
17358
13445
12079
12544
13301
13345
13546
13417
13510
13406
13487
13428
13454
13455
13440
13538
13528
13524
13651
13679
13724
13924
13998
14390
14545
14921
14935
15146
15032
15292
15036
15013
14533
14231
13805
13562
13211
12984
12826
12626
12601
12505
12673
12526
12681
12535
12729
12619
12854
12734
12990
12933
13069
12981
13050
13032
13111
13155
13145
13122
12948
12966
12878
13052
12914
13158
13112
13339
13249
13434
13249
13360
13175
13203
13178
13246
13267
13283
13396
13289
13520
13735
15105
16755
17331
16262
11775
11410
12498
13177
13482
13414
13621
13368
13511
13410
13561
13462
13550
13446
13546
13551
13565
13660
13707
13979
14051
14415
14530
14825
14808
15075
14965
15127
14892
14867
14384
14079
13569
13281
12960
12748
12620
12496
12472
12258
12344
12151
12328
12198
12409
12261
12492
12453
12645
12516
12565
12534
12518
12429
12406
12413
12333
12422
12339
12503
12429
12550
12376
12581
12470
12738
12740
12989
12927
13066
12969
13010
12952
12874
12831
12733
12702
12785
12761
12861
13027
13171
14227
15850
17188
16630
12657
11474
12375
12717
13084
12999
13172
13061
13178
13122
13244
13238
13230
13342
13378
13569
13589
13849
13816
14097
14104
14462
14476
14914
14991
15283
15262
15384
15247
15206
15022
14676
14323
13904
13614
13236
13126
12836
12909
12664
12794
12580
12737
12631
12807
12735
12836
12710
12693
12624
12694
12767
12758
12885
12780
12824
12676
12842
12708
12874
12730
12927
12822
12872
12687
12918
12748
13039
12965
13159
13073
13208
13219
13334
13254
13147
13100
13104
13206
13090
13142
13108
13505
13593
14603
15801
17592
17386
14003
12154
12794
13210
13066
13391
13872
14019
13890
13862
13764
13865
13754
13902
13780
14026
13999
14287
14239
14472
14426
14644
14733
14954
15091
15238
15246
15200
15202
15008
14927
14442
14194
13614
13411
12976
12905
12575
12576
12385
12466
12404
12488
12474
12488
12502
12467
12546
12651
12615
12610
12596
12621
12663
12603
12724
12553
12645
12464
12660
12502
12656
12487
12589
12487
12642
12580
12738
12865
13092
13207
13306
13419
13345
13297
13063
13130
12874
12957
12712
12841
12671
12830
12812
13087
13790
15184
16677
16667
13312
11377
12119
12694
13044
13001
13195
13075
13220
13072
13216
13090
13252
13124
13302
13286
13432
13445
13568
13726
13840
14109
14289
14583
14689
15029
15040
15290
15149
15262
14969
14776
14071
13904
13442
13296
12822
12885
12657
12697
12551
12662
12630
12748
12773
12836
12911
12915
13019
12931
12981
12829
12944
12770
12932
12685
12820
12624
12807
12752
12824
12738
12833
12927
12953
13032
13098
13217
13273
13570
13536
13702
13512
13632
13446
13529
13307
13403
13273
13371
13248
13342
13395
13473
13917
15049
16865
17496
16672
12075
12163
12673
13352
13414
13685
13632
13789
13669
13752
13678
13742
13752
13757
13772
13775
13915
17645
17242
16874
16059
15553
14751
14346
13652
13311
12786
12545
12192
12054
11932
11847
11783
11639
11654
11474
11647
11495
11653
11583
11821
11608
11793
11689
11872
11721
11784
11783
11964
12079
12180
12320
12380
12546
12481
12615
12427
12515
12311
12520
12375
12515
12430
12646
12657
12865
13905
15648
16818
16880
13204
10576
11630
12197
12874
12882
13117
13093
13361
13254
13456
13369
13549
13542
13750
13761
13870
13985
14149
14347
14666
14836
15122
15267
15389
15491
15410
15396
15179
15040
14526
14203
13603
13286
12748
12636
12242
12211
11999
12062
12002
12200
12224
12214
12298
12321
12474
12453
12637
12499
12693
12587
12828
12749
13006
12850
13072
12936
13035
12923
12968
13025
13149
13205
13067
13076
12872
12992
12781
12890
12710
12931
12877
13084
12885
13036
12965
13098
13902
15368
16996
17478
14255
11728
12462
12942
13370
13268
13462
13435
13671
13523
13769
13758
14027
13941
14194
14091
14342
14345
14661
14774
15117
15416
15674
16099
16144
16508
16308
16618
16251
16470
15887
15749
15046
14906
14285
14205
13654
13620
13328
13247
13119
13032
13040
12843
12948
12651
12851
12562
12838
12503
12766
12366
12677
12396
12671
12457
12567
12392
12546
12530
12551
12787
12810
13027
12816
13073
12736
12979
12562
12857
12462
12662
12368
12650
12508
12750
12778
13502
14538
16370
17407
15399
12055
12133
13017
13213
13204
13069
13267
13098
13388
13152
13484
13103
13465
13188
13563
13371
13720
13444
13692
13626
13927
13985
14251
14466
14494
14737
14557
14756
14379
14503
13849
13815
13088
13054
12499
12551
12144
12297
12156
12303
12276
12277
12389
12347
12529
12425
12797
12647
12980
12675
13011
12676
13055
12732
13062
12799
12929
12651
12805
12774
12823
13051
13004
13161
13002
13224
12944
13269
12958
13205
12848
13151
12821
13126
12906
13361
13305
14393
15190
17265
17390
14639
12059
12785
13253
13545
13644
13604
13718
13512
13723
13518
13853
13621
13948
13691
14035
13784
14127
13900
14226
14124
14439
14581
14773
14961
14986
15162
14891
15047
14640
14687
14031
13956
13182
13111
12527
12616
12264
12455
12242
12392
12362
12376
12431
12362
12523
12375
12630
12362
12619
12267
12587
12372
12744
12455
12735
12469
12740
12573
12688
12619
12633
12642
12649
12795
12791
13107
13031
13084
13045
13146
12924
13123
12748
12951
12641
13011
12644
13021
12773
13197
13524
14651
16064
17201
15811
11876
11955
12695
13354
13302
13537
13291
