13335
13462
13590
13427
13356
13354
13137
13249
12977
13273
13121
13488
13124
13441
13056
13424
13076
13353
13022
13298
13150
13240
13190
13184
13305
13083
13724
14717
17415
18472
16265
11575
12030
12366
13161
12860
13244
12948
13146
13011
13137
13134
13128
13316
13214
13460
13221
13426
13043
13481
13237
13840
13754
14429
14361
14882
14693
14900
14721
14765
14579
14154
13882
13274
13133
12583
12771
12319
12601
12139
12476
12135
12583
12300
12813
12535
13000
12626
13026
12678
12984
12753
13001
12860
12964
12949
12946
13078
12964
13224
12937
13192
12865
13274
12857
13236
12862
13252
12921
13232
12962
13141
12980
13094
13164
13264
13460
13347
13617
13376
13710
13283
13542
13030
13365
12992
13352
13030
13346
13186
13348
13890
15290
17594
18207
14777
11383
12049
12544
13293
13021
13485
13164
13546
13261
13667
13398
13719
13562
13781
13710
13779
13889
13940
14228
14149
14582
14776
15066
15239
15499
15358
15576
15228
15488
14916
14957
14197
14165
13381
13440
12934
13041
12707
12822
12762
12790
12707
12523
12645
12476
12775
12526
12846
12483
12894
12569
12914
12592
12998
12670
12904
12688
12794
12713
12737
12770
12660
12812
12572
12889
12607
13012
12659
13076
12693
13017
12693
13099
12913
13349
13218
13385
13325
13386
13393
13179
13300
12958
13219
12928
13333
13085
13518
13276
13690
14187
16340
18067
18136
11810
12108
12608
13501
13291
13557
13418
13518
13359
13387
13494
13393
13630
13439
13761
13512
13945
13663
14114
13893
14413
14233
14735
14691
15120
15064
15234
15160
15036
14958
14552
14374
13700
13591
12880
12966
12389
12646
12185
12510
12153
12498
12288
12541
12405
12592
12582
12620
12774
12643
12914
12673
12954
12605
12968
12624
13020
12670
13112
12829
13124
12854
13014
12872
12979
12918
12767
12866
12747
13133
13011
13375
13056
13289
13182
13409
13113
13292
12953
13380
13067
13523
13218
13668
13344
13928
14951
17436
18321
16515
11493
11585
12516
13002
13466
13319
13738
13483
13866
13485
13874
13589
14014
13774
14157
13942
14235
14138
14317
14391
14551
14792
14842
15296
15248
15630
15341
15656
15169
15371
14725
14660
13896
13758
13114
13013
12663
12582
12452
12349
12476
12283
12512
12224
12548
12268
12698
12369
12751
12425
12767
12424
12690
12442
12626
12536
12815
12509
12820
12574
12769
12545
12592
12570
12555
12789
12790
13075
12838
13113
12731
13051
12647
12940
12558
12932
12637
12964
12759
13050
13019
13236
14282
16400
18376
17436
12314
11387
12443
12785
13366
13035
13443
13123
13512
13259
13565
13336
13553
13506
13599
13690
13704
13947
13878
14266
14133
14653
14547
15118
14934
15418
15039
15349
14935
15034
14468
14173
13654
13301
12996
12635
12643
12296
12495
12147
12492
12153
12531
12292
12637
12400
12701
12348
12730
12358
12727
12351
12744
12449
12753
12578
12772
12625
12666
12778
12680
12819
12591
12828
12588
13037
12831
13296
13006
13457
13122
13409
13024
13163
12884
13021
12976
12991
13056
12922
13163
12856
13623
14631
17445
18488
15925
11407
12001
12399
13150
12984
13307
13193
13367
13359
13362
13436
13337
13567
13336
13690
13476
13947
13707
14244
13995
14547
14497
15073
14995
15337
15273
15425
15331
15193
15087
14694
14114
13785
13307
12994
12851
12520
12597
12267
12517
12167
12593
12295
12665
12346
12769
12452
12810
12570
12798
12657
12806
12778
12721
12785
12629
12854
12637
12963
12654
13046
12686
13044
12624
13034
12746
13163
13018
13267
13159
13243
13208
13140
13186
12944
13114
12798
13135
12850
13273
12920
13381
12912
14072
15490
18214
18537
14291
11738
12424
13152
13382
13593
13540
13817
13522
13825
13493
13879
13583
13992
13624
14045
13793
14306
14070
14589
14354
14871
14714
15212
15063
15314
15152
15192
15073
14868
14701
14110
13837
13130
13024
12432
12657
12210
12536
12140
12445
12078
12417
12184
12403
12235
12330
12345
12248
12372
12217
12489
12201
12554
12249
12657
12325
12726
12390
12781
12482
12791
12557
12679
12555
12638
12683
12775
13089
13028
13411
13156
13448
13030
13356
12939
13331
13000
13377
13120
13470
13315
13338
14009
15912
18074
18217
13541
11276
12361
13168
13343
13375
13603
13480
13790
13565
13916
13611
13990
13652
14105
13816
14284
14096
14502
14367
14699
14777
15042
15273
15346
15557
15372
15551
15144
15277
14607
14551
13717
13723
13027
13099
12625
12790
12541
12696
12571
12618
12638
12569
12736
12514
12775
12516
12863
12527
12892
12543
12952
12629
13016
12702
13001
12814
12992
12930
12921
12917
12727
12812
12601
12885
12634
13119
12818
13224
12862
13255
12846
13135
12708
13048
12677
13045
12701
13108
12870
13151
12945
14059
16068
18221
17716
12368
11653
12197
13087
12911
13292
12979
13399
13065
13485
13160
13576
13340
13712
13602
13847
13850
13936
14146
14173
14490
14407
14885
14729
15260
15011
15409
14941
15187
14611
14662
13976
13771
13234
13073
12798
12670
12627
12443
12613
12370
12690
12399
12813
12487
12916
12631
13062
12757
13123
12887
13140
12975
13105
13047
13007
13064
12923
13172
12974
13274
13062
13114
12909
13081
12896
13278
13061
13420
13083
13489
13137
13465
13065
13263
12891
13047
12859
13027
13010
13012
13161
12935
13925
15589
18052
17722
13066
11083
12147
12474
13111
12867
13261
13033
13334
13239
13394
13379
13402
13541
13437
13707
13497
13900
13692
14206
14002
14613
14423
15000
14846
15267
15052
15220
14979
14946
14667
14258
13967
13373
13279
12752
12870
12397
12717
12288
12669
12296
12681
12425
12765
12530
12721
12523
12925
12592
12902
12643
12865
12726
12775
12745
12689
12802
12643
12898
12707
13094
12753
13082
12640
12950
12648
13083
12988
13345
13118
13295
13167
13280
13222
13135
13206
13044
13310
13021
13417
13105
13594
13091
14125
15241
17888
18404
14950
11407
12095
12797
13240
13323
13233
13429
13297
13538
13182
13534
13268
13677
13425
13949
13670
14089
13930
14375
14302
14636
14729
14982
15191
15188
15384
15132
15303
14871
14995
14363
14138
13527
13386
12775
12823
12212
12456
12016
12346
11939
12304
11989
12270
12066
12299
12212
12281
12277
12247
12479
12365
12680
12447
12815
12519
12948
12636
13031
12656
12971
12732
13108
13042
13404
13463
13605
13775
13675
13779
13582
13831
13504
13835
13448
13853
13490
13912
13613
13789
14415
16696
18155
18638
13817
10624
11503
12092
12700
12626
12995
12744
13120
12833
13316
13002
13450
13175
13624
13464
13842
13736
14044
14158
14341
14526
15145
15190
15513
15435
15481
15456
15241
15272
14800
14675
13873
13779
13002
13069
12455
12712
12240
12508
12174
12475
12310
12520
12448
12506
12567
12512
12685
12459
12736
12451
12813
12446
12876
12519
12917
12516
12859
12507
12768
12541
12836
12928
13115
13318
13206
13397
13066
13264
12830
13243
12817
13289
12803
13237
12828
13232
12985
14617
16794
18425
17417
11707
11323
11975
12905
12832
13302
12968
13627
13233
13959
13573
14286
13948
14579
14109
14759
14224
14832
14282
14829
14440
14853
14675
14881
14737
14676
14617
14306
14379
13666
13623
12699
12703
11758
12007
11387
11890
11419
11881
11543
11969
11822
12034
12046
12074
12203
12000
12328
11948
12339
11797
12364
11937
12578
12184
12823
12426
12917
12601
12928
12708
12793
12828
12791
13037
12977
13489
13215
13743
13249
13738
13089
13551
12969
13500
13031
13427
13136
13434
13326
13258
13873
15461
18274
18212
12856
12097
12631
13037
13180
12978
13329
12949
13391
12936
13513
13008
13562
13110
13756
13417
13972
13689
14117
14069
14409
14614
14819
15187
15099
15515
15163
15593
15031
15412
14542
14723
13781
13867
13062
13223
12701
12910
12633
12709
12647
12542
12721
12567
12910
12519
13013
12517
13086
12514
13035
12483
12965
12498
12838
12498
12694
12485
12558
12655
12529
12719
12409
12841
12506
13172
12838
13461
12929
13435
12911
13397
12879
13445
12929
13465
12938
13488
13060
13544
13191
13632
14312
16736
18933
17444
12454
11731
12757
12860
13447
13063
13689
13206
13777
13313
13822
13341
13746
13415
13709
13611
13793
13941
13931
14256
14141
14713
14548
15231
14873
15502
14976
15415
14767
15013
14212
14227
13499
13322
12879
12731
12606
12398
12586
12262
12642
12299
12854
12373
12908
12409
13015
12521
12953
12543
12968
12699
12913
12733
12760
12837
12742
13038
12767
12892
12936
12917
12769
12918
12642
13016
12677
13330
12916
13511
13045
13623
13089
13544
13090
13387
13067
13283
13148
13273
13384
13354
13524
13563
14974
16835
18997
16594
12227
11595
12980
12984
13539
13145
13528
13233
13474
13369
13469
13553
13387
13646
13453
13927
13593
14169
13787
14453
14085
14825
14581
15237
14949
15347
15070
15224
15017
14842
14579
13995
13832
13123
13178
12467
12732
12105
12570
12010
12532
12091
12571
12270
12846
12389
12932
12491
13004
12608
12978
12690
12919
12797
12817
12916
12765
12980
12619
13034
12595
13028
12468
12982
12501
13035
12668
13302
12975
13334
13113
13297
13161
13021
12999
12760
12975
12625
13036
12672
13246
12864
13542
14171
16902
17877
17215
11419
11489
12209
13090
13238
13264
13501
13382
13709
13485
13980
13561
14134
13755
14360
13857
14407
14011
14547
14314
14846
14832
15205
15351
15431
15600
15358
15536
15040
15227
14633
14381
13845
13730
13083
13231
12609
12957
12352
12767
12164
12686
12231
12729
12330
12669
12391
12575
12491
12442
12479
12234
12508
12212
12629
12219
12741
12239
12752
12203
12753
12340
12879
12653
13114
13005
13205
13119
13086
13113
12786
13042
12653
13049
12621
13154
12655
13288
12658
14138
15608
17931
18009
13935
10589
11586
12386
12865
13138
12984
13351
13030
13525
13124
13673
13175
13749
13297
13903
13557
14135
13978
14404
14415
15047
14919
15685
15500
15835
15546
15576
15394
15143
14910
14282
14092
13251
13283
12552
12880
12246
12672
12103
12608
12120
12562
12213
12592
12448
12589
12592
12519
12703
12466
12792
12435
12864
12443
12953
12434
12919
12342
12875
12501
12947
12752
13134
13056
13206
13242
13160
13274
12933
13190
12763
13171
12660
13163
12712
13327
12981
13398
14022
16528
18093
18392
12913
11552
12362
12927
13516
13277
13710
13337
13799
13312
13871
13567
13917
13559
14002
13590
14190
13762
14321
13913
14555
14282
14907
14842
15257
15152
15275
15303
15122
15080
14435
14291
13386
13502
12750
13033
12351
12781
12248
12706
12268
12638
12430
12713
12585
12639
12708
12563
12798
12494
12831
12403
12858
12374
12881
12434
12975
12491
12981
12568
12880
12616
12846
12834
12983
13190
13097
13408
13117
13427
12907
13338
12740
13264
12822
13359
12851
13332
12984
13324
13323
14499
16532
18394
15197
11774
11899
12786
13103
13185
13319
13191
13411
13117
13485
13071
13573
13126
13684
13229
13809
13372
13910
13651
14121
14045
14428
14613
14810
15058
14958
15299
14941
15215
14537
14689
13736
13849
12936
13207
12616
12984
12572
12919
12740
12998
13034
13084
13352
13238
13607
13282
13797
13321
13832
13234
13754
13140
13653
13113
13486
13016
13242
12986
13053
13039
12964
13108
12788
13201
12786
13411
12977
13593
13014
13562
12995
13448
12868
13280
12573
13062
12449
13033
12525
12991
12609
13019
13516
15777
17787
17092
12238
11122
12177
12378
12971
12548
13223
12704
13349
12797
13391
12899
13347
12916
13295
13170
13387
13494
13539
13850
13717
14287
14097
14848
14497
15162
14564
15165
14502
14889
14067
14030
13186
13083
12542
12412
12296
12098
12269
11959
12399
11984
12524
11973
12536
11960
12547
12018
12593
12093
12470
12211
12528
12365
12481
12585
12464
12757
12823
12705
12908
12928
12849
13103
12849
13309
12927
13489
13026
13632
13076
13670
13078
13556
13122
13621
13463
13877
13747
13857
13900
13768
13988
13672
14018
13477
13974
13436
14086
13514
14162
13643
14469
14523
17045
18299
17497
12888
12381
13074
13312
13575
13263
13743
13266
13770
13148
13711
13173
13836
13365
13991
13607
14074
13805
14113
14080
14203
14439
14511
14984
14774
15312
14853
15348
14687
15138
14259
14397
13363
13487
12555
12969
12230
12771
12165
12664
12202
12655
12332
12639
12473
12546
12600
12445
12675
12319
12731
12309
12873
12343
12980
12457
13102
12570
13124
12678
13059
12772
13031
12881
12895
12902
12700
12960
12585
12992
12485
13011
12441
12997
12399
13020
12449
12957
12450
12874
12559
12882
12802
12837
12915
12730
12986
12610
12992
12470
13005
12453
13137
12576
13221
12852
13338
13564
15362
17107
17793
13816
11489
12256
12845
13408
13140
13452
13628
13776
13670
13919
13575
13999
13532
14095
13541
14167
13660
14363
13945
14641
14389
15041
14968
15350
15313
15360
15465
15221
15358
14723
14841
13995
14163
13221
13525
12670
13128
12488
12944
12431
12848
12600
12949
12851
12845
12931
12716
13021
12662
13172
12744
13322
12730
13314
12662
13289
12692
13261
12815
13235
13009
13173
13091
13056
13191
12968
13251
12849
13306
12766
13351
12793
13438
12850
13385
12798
13239
12891
13285
13030
13726
13223
13729
13332
13720
13343
13480
13262
13210
13312
13109
13409
13123
13591
13660
15377
16749
18104
14778
11595
11469
12941
12990
13389
13171
13411
13354
13348
13524
13368
13765
13440
13949
13467
14110
13617
14379
13939
14748
14393
15039
14781
15418
15333
15551
15437
15345
15434
15018
14998
14116
14159
13154
13341
12410
12827
12116
12611
12047
12538
12139
12521
12290
12436
12407
12334
12484
12230
12601
12176
12703
12176
12583
12445
12813
12411
12863
12351
12953
12345
12947
12336
12888
12367
12918
12475
12833
12608
12846
12814
12713
12797
12623
13017
12755
13368
12911
13608
13090
13763
13205
13786
13130
13519
13130
13471
13243
13451
13573
13428
14503
16077
18217
17706
13514
10924
12410
12736
13819
13310
13984
13527
13941
13503
13820
13550
13647
13698
13737
13992
13775
14250
13911
14519
14090
14815
14381
15172
14720
15401
14976
15431
14959
15169
14724
14576
13634
13719
12927
12950
12445
12447
12273
12137
12228
11997
12359
12052
12504
12023
12599
12139
12714
12134
12635
12150
12548
12151
12402
12130
12335
12284
12275
12518
12454
12858
12575
13058
12779
13366
13051
13635
13156
13558
13063
13355
12922
13059
12755
12905
12877
12883
13065
12984
13376
13028
14011
15529
17966
18018
15183
10661
11819
12296
13214
13186
13498
13425
13589
13560
13512
13544
13435
13643
13392
13802
13554
13965
13840
14215
14106
14524
14443
15047
14923
15440
15253
15613
15229
15432
14951
14782
14125
13745
13307
13060
12993
12781
12872
12598
12833
12529
12921
12687
13002
12701
13031
12736
13023
12802
13034
12861
13011
12998
12934
12916
12821
12942
12721
13011
12796
13199
13022
13403
13137
13582
13341
13550
13224
13272
13097
13165
13118
13183
13320
13221
13561
13330
14894
17050
18660
18352
13340
11608
12725
13046
13655
13549
13787
13795
13954
13833
14101
13894
14016
13795
13824
13816
13837
13922
13896
14167
14166
14566
14529
15016
14923
15251
15036
15282
14937
14919
14317
14012
13421
13109
12765
12537
12463
12306
12373
12244
12439
12155
12293
12018
12297
12015
12246
12042
12296
12095
12230
12119
12227
12268
12289
12402
12362
12638
12553
12773
12661
13023
12898
13161
12981
13166
12929
13050
12821
12885
12747
12744
12752
12758
12895
12930
13006
13732
16044
17887
18735
14017
12010
12402
12986
12921
13170
13013
13248
13039
13324
13160
13371
13268
13395
13308
13389
13422
13517
13627
13625
13938
14008
14385
14375
14787
14633
14826
14534
14588
14163
14036
13515
13227
12735
12472
12271
12148
12140
12044
12196
12042
12205
12037
12275
12004
12227
12015
12240
12056
12279
12131
12323
12297
12388
12442
12482
12541
12517
12626
12489
12677
12391
12634
12407
12681
12566
12901
12749
13023
12813
12882
12680
12717
12693
12951
12928
13175
13125
13298
13345
13301
14070
16361
19409
19329
14496
12205
12697
12833
13227
13057
13359
13098
13360
13212
13381
13237
13354
13368
13397
13434
13388
13547
13496
13833
13783
14246
14216
14717
14691
15095
14955
15249
15010
15031
14661
14336
13888
13502
13270
12967
12927
12753
12968
12792
13066
12853
13124
12922
13175
12921
13074
12860
12988
12907
12966
12934
12980
13067
12968
13082
12988
13232
12999
13226
13029
13293
13037
13262
13153
13467
13404
13714
13558
13773
13582
13800
13538
13584
13315
13376
13313
13337
13440
13422
13641
13401
14148
15634
18892
19553
15809
12377
12845
13119
13456
13245
13384
13261
13358
13318
13344
13369
13287
13401
13311
13571
13465
13799
13666
14060
13919
14334
14319
14785
14777
15057
14962
14999
14891
14715
14467
13989
13668
13057
12876
12399
12398
12041
12243
11943
12182
11928
12152
11985
12164
12032
12095
12063
12076
12161
12244
12156
12316
12260
12294
12405
12398
12557
12459
12689
12583
12886
12695
12952
12761
13049
12845
13061
12941
13225
13239
13610
13679
13727
13719
13602
13748
13492
13582
13257
13431
13137
13437
13195
13522
13296
13686
14501
16966
18529
17502
12243
11781
12557
13021
13309
13208
13489
13290
13572
13324
13614
13375
13725
13553
13890
13750
14002
13945
14126
14216
14393
14612
14727
15005
14965
15237
15053
15238
14921
15065
14476
14343
13546
13467
12919
12979
12565
12726
12428
12686
12483
12722
12602
12702
12660
12737
12809
12781
12874
12706
12863
12706
13008
12714
12915
12634
12906
12618
12830
12594
12724
12663
12929
12962
13053
13109
13023
13121
12919
13010
12713
12947
12686
12974
12747
13065
12892
13345
14498
16949
18221
17054
11566
11490
12221
12768
13049
12980
13299
13201
13470
13307
13608
13404
13751
13585
13863
13718
13965
13891
14155
14256
14459
14731
14884
15136
15465
15481
15536
15440
15235
15038
14549
14247
13530
13337
12761
12841
12384
12514
12160
12394
12178
12391
12252
12474
12434
12541
12650
12640
12780
12711
12896
12667
12920
12745
12976
12669
12942
12647
12886
12773
13043
12917
13133
13033
13015
12944
12803
12798
12593
12746
12587
12797
12611
12928
12675
13340
14539
16863
17696
16004
10949
11354
12047
12688
12962
12986
13217
13207
13414
13314
13638
13557
13885
13705
13976
13743
14077
13935
14246
14119
14591
14504
14978
14988
15361
15240
15450
15333
15263
15035
14606
14338
13836
13674
13185
13260
12831
13072
12683
12947
12517
12763
12384
12661
12495
12690
12703
12944
13168
13195
13444
13251
13612
13317
13763
13406
13860
13408
13831
13404
13811
13577
13924
13619
13686
13455
13292
13142
12845
12984
12791
13060
12659
12969
12460
12858
12220
13201
14351
16902
17487
13889
10509
11350
12165
12696
12898
12881
13178
13272
13233
13318
13408
13317
13585
13376
13768
13515
13970
13709
14229
14001
14591
14398
14900
14708
15020
14753
14878
14601
14392
14041
13479
13217
12550
12441
11889
12062
11534
11858
11459
11899
11684
12194
12018
12444
12369
12636
12634
12700
12819
12765
13044
12775
13009
12654
12961
12569
12933
12475
12831
12514
12977
12710
13121
13079
13330
13340
13424
13492
13351
13459
13137
13346
12951
13260
12883
13328
13001
13382
13404
14850
17558
18596
13815
11559
11732
12840
12824
13168
13049
13363
13295
13425
13475
13414
13633
13564
13931
13703
14169
13896
14439
14206
14784
14534
15091
14960
15443
15226
15434
15287
15296
15120
14748
14506
13845
13701
12986
13033
12496
12808
12337
12741
12314
12614
12248
12566
12314
12530
12375
12459
12469
12435
12662
12502
12831
12570
12926
12545
12903
12471
12888
12527
12897
12533
12817
12623
12878
12931
13132
13164
13086
13234
13037
13330
13136
13034
12991
13105
12976
13228
13001
13426
13060
14273
15987
18642
18414
13647
11414
12164
12405
12711
12418
12500
12498
12551
12777
12907
13365
13423
13924
13851
14318
14109
14596
14468
14945
14795
15264
15204
15628
15720
16035
16038
15868
15714
15275
15091
14422
14204
13452
13392
12734
12985
12557
12908
12637
13119
12979
13191
12905
12920
12876
12864
13022
12914
13114
12822
13094
12808
13186
12925
13295
12849
13068
12728
13022
12738
13140
12825
13207
13076
13346
13109
13372
13277
13275
12954
12678
12609
12558
12731
12598
12848
12590
12918
12562
13372
14414
16835
17654
14797
10851
11588
12225
12842
12865
12939
13111
13103
13291
13235
13558
13457
13630
13285
13567
13363
13764
13675
14128
14099
14504
14568
15066
15212
15444
15574
15678
15791
15480
15262
14459
14178
13443
13394
12804
12858
12317
12509
12148
12323
12114
12325
12304
12384
12372
12299
12428
12311
12410
12675
12793
12793
12810
12704
12822
12559
12793
12564
12866
12521
12871
12573
12894
12544
12863
12812
13092
13013
13124
13154
13114
13066
12857
12911
12715
12983
12731
13110
12893
13306
13112
14354
16166
17891
17041
11997
11270
12188
12859
13097
13184
13148
13452
13376
13640
13402
13748
13502
13840
13581
13877
13669
14014
13927
14303
14366
14655
14856
15011
15274
15252
15437
15173
15307
14790
14690
13904
13714
12929
12906
12400
12459
12099
12380
12086
12367
12104
12367
12129
12349
12254
12425
12424
12452
12557
12511
12740
12624
12725
12402
12665
12394
12691
12385
12598
12253
12404
12196
12494
12500
12894
13150
13290
13428
13436
13588
13408
13437
12968
13030
12725
13027
12896
13285
13117
13224
13152
14207
16217
17959
16495
11656
11590
12214
12899
12863
13128
13007
13315
13137
13466
13267
13555
13338
13606
13508
13769
13739
13939
14096
14224
14488
14650
15005
15319
15409
15516
15553
15432
15404
14995
14760
14041
13782
13114
13108
12665
12743
12440
12623
12349
12526
12384
12477
12445
12521
12591
12505
12579
12475
12723
12566
12807
12546
12878
12678
12945
12697
12941
12713
12904
12730
12779
12689
12658
12736
12662
12919
12914
13266
13120
13358
13128
13389
13080
13401
13058
13311
13093
13272
13149
13286
13307
13361
14025
15653
17931
17783
13421
11827
12721
13036
13555
13247
13542
13346
13610
13391
13771
13570
13873
13653
13917
13744
14035
13943
14174
14277
14500
14720
14886
15284
15341
15571
15344
15651
15291
15371
14680
14478
13708
13534
12942
12945
12655
12648
12495
12511
12550
12494
12570
12418
12627
12443
12788
12571
12916
12654
12972
12645
12945
12751
12947
12712
12797
12738
12772
12831
12769
12914
12801
13029
12831
13143
12902
13121
12839
13191
12959
13333
13224
13490
13342
13524
13416
13387
13366
13206
13237
13109
13162
13253
13275
13355
13497
13975
15819
17543
17763
12875
11840
12154
13148
13073
13390
13157
13399
13215
13380
13217
13311
13349
13369
13502
13433
13705
13564
13888
13749
14218
14122
14676
14613
15122
15007
15344
15187
15326
15081
14861
14441
13948
13571
13086
12992
12621
12764
12457
12701
12372
12705
12407
12691
12462
12660
12413
12689
12652
12751
12724
12703
12780
12749
12947
12809
13058
12843
13173
13030
13437
13143
13440
13227
13504
13385
13746
13561
13864
13560
13811
13547
13705
13570
13727
13796
13841
13910
13901
14132
13870
13886
13530
13710
13375
13623
13354
13640
13436
13762
13461
14228
15573
17853
18388
14524
12053
12375
13169
13305
13522
13382
13713
13479
13719
13479
13759
13516
13697
13512
13684
13647
13783
13816
13929
14161
14220
14587
14705
15169
15136
15467
15295
15591
15276
15303
14653
14361
13711
13381
12883
12653
12426
12282
12285
12132
12353
12164
12325
12332
12447
12311
12476
12311
12546
12296
12526
12219
12461
12249
12491
12240
12377
12214
12349
12305
12393
12453
12442
12578
12445
12636
12472
12708
12452
12660
12336
12641
12442
12897
12784
13034
12943
13155
13081
13169
13166
13015
13102
12973
13170
12973
13216
13062
13296
13686
15397
17137
17985
14226
11384
11737
12742
13103
13237
13328
13332
13480
13409
13679
13515
13832
13594
13881
13625
13970
13766
14168
13995
14358
14257
14895
14849
15368
15195
15504
15249
15393
15059
14945
14526
14028
13686
13221
13084
12645
12768
12358
12623
12272
12491
12117
12461
12190
12526
12361
12583
12514
12672
12714
12726
12822
12735
12964
12702
12946
12689
12990
12653
12990
12639
12966
12698
12956
12692
12869
12711
12787
12733
12795
13005
13062
13457
13335
13708
13386
13710
13357
13652
13255
13490
13225
13485
13219
13373
13340
13492
13603
14519
16616
17604
16869
11664
11497
12481
13238
13259
13427
13295
13625
13336
13660
13381
13762
13502
13892
13622
13961
13765
14039
13998
14207
14339
14493
14786
14913
15217
15135
15415
15152
15370
14872
14888
14104
14058
13329
13258
12770
12766
12483
12458
12357
12333
12420
12313
12500
12313
12656
12440
12833
12592
12976
12696
13076
12832
13191
12942
13166
13055
13078
12957
12894
12923
12674
12825
12616
12928
12699
13128
12877
13354
13098
13385
13022
13214
12903
13071
12943
13388
13087
13417
13182
13402
13802
15412
17238
17759
14957
10848
11654
12230
13130
13094
13502
13320
13667
13379
13728
13405
13744
13467
13798
13650
13922
13871
14069
14212
14301
14559
14636
15120
15139
15551
15342
15653
15238
15470
14914
14858
14139
13884
13359
13162
12867
12742
12719
12536
12598
12372
12628
12322
12733
12435
12759
12485
12821
12525
12883
12625
12891
12660
12792
12743
12784
12791
12665
12720
12480
12685
12420
12740
12885
13047
12938
13127
12856
13126
12760
13013
12629
12940
12651
12981
12783
13057
12949
13016
14008
16063
17510
17311
12313
11103
12195
12629
13308
13058
13470
13249
13617
13309
13671
13427
13718
13525
13709
13657
13818
13892
13995
14197
14204
14591
14516
14990
14969
15384
15013
15278
14864
14910
14328
14229
13629
13338
12791
12548
12339
12118
12152
11919
12091
11823
12076
11800
12207
11944
12280
11959
12333
12138
12437
12267
12676
12433
12779
12506
12874
12621
12744
12579
12689
12706
12768
13065
13090
13345
13244
13493
13101
13334
12927
13286
13021
13363
13057
13367
13222
13485
13235
13969
15391
17358
18333
14612
11701
11923
12948
13089
13543
13322
13716
13421
13679
13417
13660
13515
13695
13716
13715
13789
13765
14000
13877
14237
14146
14631
14579
15060
14862
15228
14923
15166
14722
14705
14124
13884
13376
13063
12815
12559
12526
12290
12443
12168
12451
12187
12500
12476
12651
12464
12753
12542
12838
12584
12971
12719
13021
12810
13116
12945
13103
12993
13022
12965
12828
12844
12718
12945
12870
13265
13015
13330
12994
13280
12874
13108
12763
12963
12748
12879
12802
12906
12944
12975
13139
13571
15410
17473
17996
13367
11679
11936
12862
12753
13138
12981
13257
13091
13276
13162
13239
13256
13305
13483
13355
13596
13455
13832
13717
14180
14081
14654
14568
15057
14879
15174
14992
15168
14964
14890
14308
14210
13682
13658
13321
13256
13138
13050
13093
12940
13095
12907
13264
12988
13272
12947
13220
12825
13068
12800
13020
12839
12959
12843
12846
12858
12772
12859
12703
12892
12593
12949
12731
13198
13062
13380
13075
13299
13032
13305
13040
13129
12936
13018
12993
12977
13057
12971
13264
13006
13915
15137
17752
18102
14491
11737
12577
12956
13471
13270
13486
13364
13453
13385
13381
13467
13390
13623
13458
13715
13462
13861
13820
14161
14166
14657
14666
15192
15088
15603
15463
15907
15706
15934
15600
15641
15179
14881
14449
14163
13940
13612
13489
13064
13042
12621
12809
12438
12661
12271
12525
12192
12414
12166
12338
12183
12288
12280
12315
12374
12292
12436
12216
12417
12187
12463
12101
12452
12226
12729
12669
13002
12830
13017
12872
12903
12814
12699
12680
12590
12717
12545
12827
12623
13005
12655
13798
15025
17217
17344
13461
11283
12121
12684
13140
13007
13418
13213
13493
13340
13505
13443
13523
13639
13603
13769
13688
14041
13938
14380
14290
14867
14815
15300
15152
15572
15395
15604
15410
15438
15111
14770
14369
13871
13610
13103
13039
12561
12683
12280
12479
12081
12391
12106
12436
12239
12496
12310
12437
12354
12395
12494
12457
12608
12465
12722
12440
12688
12359
12593
12333
12688
12514
12943
12773
13004
12846
12988
12904
12914
12871
12695
12871
12755
13028
12813
13167
12952
13246
14043
15952
17356
17866
13241
11796
12314
13310
13358
13682
13476
13733
13547
13687
13592
13593
13668
13615
13750
13614
13916
13774
14122
13989
14500
14419
14944
14881
15351
15226
15524
15378
15507
15333
15120
14790
14271
13981
13418
13264
12729
12798
12372
12574
12171
12410
12132
12408
12130
12381
12211
12346
12277
12323
12411
12398
12578
12472
12743
12538
12787
12520
12836
12545
12827
12475
12782
12597
12962
12883
13025
12933
13085
12860
13057
12760
12768
12642
12668
12675
12630
12757
12703
12978
13133
14274
16079
17941
16160
12235
11935
12882
13032
13279
13115
13293
13173
13263
13212
13249
13372
13303
13557
13390
13672
13339
13524
13152
13678
13726
14336
14452
15087
15252
15573
15549
15627
15643
15430
15207
14693
14504
13846
13867
13331
13431
13020
13209
12776
12875
12488
12587
12397
12535
12486
12518
12516
12424
12584
12467
12739
12569
12868
12564
12821
12572
12797
12558
12842
12539
12880
12607
13099
12977
13247
12965
13080
12757
12785
12537
12547
12503
12510
12652
12604
12886
12755
13131
12861
13856
15024
17522
17916
14405
11800
12684
13231
13689
13563
13662
13678
13665
13724
13580
13777
13532
13765
13469
13718
13348
13714
13594
14106
14009
14445
14531
14935
15099
15304
15359
15317
15405
15165
15076
14471
14312
13557
13448
12759
12800
12342
12483
12092
12277
12101
12322
12246
12359
12356
12507
12412
12636
12595
12727
12806
12851
12968
12909
13100
12876
13125
12901
13210
12826
13052
12750
13063
12940
13313
13176
13380
13172
13239
13167
13085
13069
12893
13095
12854
13116
12844
13080
12857
13221
13612
15423
17331
17858
13369
11918
12535
13289
13528
13560
13731
13695
13973
13811
14162
13988
14353
14158
14546
14245
14512
14335
14592
14545
14826
14907
15158
15345
15458
15667
15547
15725
15426
15602
15011
14926
14232
14145
13392
12999
13028
12528
12594
12190
12368
11933
12141
11833
12025
11863
11989
11992
12049
12114
12069
12224
12051
12295
12058
12358
11991
12232
11931
12269
12048
12365
12409
12805
12648
12780
12788
12792
12830
12694
12752
12598
12956
12883
13380
13322
13806
13838
14910
15987
18548
19898
18891
15562
16428
17253
17881
18143
18164
18320
18117
18204
17867
17930
17447
17327
16704
16608
16028
15867
15306
15135
14703
14493
14294
14086
13909
13720
13337
13146
12790
12494
12003
11438
11073
10479
10364
9978
10087
9727
10038
9818
10064
9837
10208
10045
10309
10264
10451
10500
10667
10754
10711
10896
10829
11100
10832
11040
10835
11072
10810
11302
11242
11629
11525
11779
11659
11669
11558
11546
11656
11669
11873
11779
12041
11954
12475
12761
14207
15853
17140
15313
11247
11379
12358
12789
13029
13068
13151
13286
13298
13512
13406
13705
13590
13916
13760
14179
14046
14490
14435
15050
15111
15676
15714
16259
16220
16619
16469
16646
16426
16312
15945
15516
15259
14848
14273
13697
13623
13161
13183
12690
12736
12339
12490
12247
12482
12238
12454
12381
12524
12541
12632
12730
12720
12824
12710
12861
12608
12883
12743
13139
12954
13237
12955
13134
12806
12876
12682
12754
12649
12773
12878
12820
13005
12824
13860
15212
17341
17758
13800
11552
12567
12964
13507
13475
13880
14042
14417
14674
15033
15413
15641
16102
16553
16907
17361
17666
17846
18139
18184
18576
18559
18914
18767
19074
18820
18994
18554
18569
17901
17537
16703
16247
15578
14998
14471
13847
13333
12665
12489
12059
12982
14375
18977
25187
26072
25995
26118
26168
26190
26192
26190
26188
26186
26190
26181
26148
25821
19233
14329
11198
7777
5217
2618
957
26
26
24
23
24
23
23
24
22
24
23
24
24
24
25
24
23
22
24
17
20
30
34
30
42
45
830
1901
2431
3246
3568
4422
4667
5513
6217
7162
7514
8349
8448
9031
8886
9346
9196
9397
8904
8790
8367
8350
8148
8001
8155
8379
8882
9132
9657
9685
10175
10114
10593
10574
11046
10955
11301
11172
11505
11474
11605
11666
11821
12122
12313
12765
13006
13515
13564
14145
14096
14586
14477
14938
14893
15247
15294
15699
15867
16329
16715
17031
18312
20345
22767
23050
19432
18645
19703
20081
20699
20633
21176
21170
21576
21549
21862
21849
22059
22131
22058
22101
22020
22080
22027
21914
21850
21722
21653
21565
21158
20939
20298
19949
19095
18549
17326
16456
15108
14278
12936
12112
11141
10475
9777
9303
9019
8649
8559
8290
8461
8204
8422
8195
8537
8314
8620
8422
8696
8598
8924
9028
9350
9522
9722
9979
9990
10311
10206
10422
10192
10622
10508
10900
10765
11194
11072
11441
11851
13455
15137
15638
14391
9925
10456
11167
12017
12199
12536
12260
12684
12465
12860
12677
13040
13052
13315
13374
13613
13826
13951
14300
14823
15112
15526
15857
16153
16573
16574
16917
16742
17095
16600
16664
15952
15990
15269
15293
14736
14728
14227
14141
13771
13595
13323
13181
13328
13049
13191
12777
13047
12639
12941
12490
12747
12406
12661
12355
12705
12611
12829
12985
13081
13075
12943
13019
12784
12997
12745
13074
12695
13089
12725
13171
13263
14919
16600
17680
16656
12303
12325
13000
13446
13527
13768
13642
13887
13588
13927
13571
13872
13498
13933
13652
14144
13977
14462
14273
14833
14666
15302
15238
15774
15730
16031
15992
16045
15913
15553
15290
14660
14406
13707
13611
12960
13036
12408
12569
12028
12230
11856
12205
11987
12176
12109
12160
12196
12113
12285
12094
12362
12111
12464
12096
12499
12244
12742
12428
12848
12576
12878
12653
12718
12564
12596
12621
12672
12838
12692
13073
12849
13962
15023
17232
17926
16033
12198
13139
13347
13905
13725
13877
13792
13826
13812
13750
13922
13927
13869
13964
14031
14025
14274
14217
14590
14517
15101
15088
15722
15548
16085
15804
16210
15924
16083
15579
15344
14732
14341
13890
13461
13267
12787
12814
12309
12499
12068
12326
11845
12214
11840
12140
11854
12200
11990
12133
12039
12135
12089
11943
12187
11999
12356
12248
12681
12401
12851
12491
12799
12377
12664
12344
12621
12404
12632
12550
12654
12796
12689
13521
14838
17119
17875
14834
11986
12862
12876
13422
13039
13398
13084
13496
13103
13457
13178
13558
13226
13631
13397
13699
13646
13824
13946
14084
14450
14559
15045
15040
15510
15306
15749
15400
15614
14921
14797
14013
13818
13214
13143
12753
12651
12468
12306
12424
12117
12301
12004
12273
11865
12210
11895
12252
11912
12255
12012
12303
12102
12262
12161
12255
12276
12355
12680
12612
12940
12745
13060
12694
13021
12594
12907
12593
12932
12650
13017
12889
13178
13049
13795
15331
17493
18673
15054
12831
13380
13687
13726
13776
13558
13670
13340
13592
13218
13561
13232
13682
13369
13749
13530
13905
13831
14232
14391
14623
14851
15147
15481
15477
15820
15634
15939
15488
15453
14648
14543
13742
13679
13021
13019
12619
12600
12470
12443
12380
12220
12312
12120
12320
12053
12427
12047
12384
12025
12384
12015
12364
12129
12407
12205
12388
12274
12294
12306
12262
12443
12423
12779
12676
13034
12751
13218
12872
13169
12751
13067
12793
13043
12843
13318
13089
13466
13869
15410
17432
18821
16272
13091
13408
13762
14118
13840
14071
13761
13984
13581
13901
13499
13870
13553
13900
13604
13944
13725
14004
13992
14210
14382
14543
14847
14831
15268
15070
15420
15072
15317
14725
14706
13891
13724
13001
12871
12348
12321
12053
12030
11967
11897
11937
11729
12001
11801
12069
11714
12089
11754
12122
11736
12095
11831
12123
11958
12195
12145
12254
12287
12266
12433
12251
12568
12343
12510
12700
12874
12841
13180
12991
13386
13100
13521
13200
13544
13233
13535
13198
13427
13247
13533
13447
13500
14026
15124
17316
18337
16721
12892
13396
13572
14256
13897
14240
13862
14161
13823
14078
13802
14001
13894
13979
13975
13963
14101
14022
14330
14190
14582
14415
15000
14830
15389
15135
15514
15243
15485
15032
14911
14368
13980
13532
13028
12803
12407
12461
12077
12302
11899
12250
11816
12144
11769
12166
11905
12225
12073
12441
12163
12565
12284
12564
12299
12512
12332
12396
12431
12404
12601
12449
12628
12381
12676
12332
12748
12393
12929
12770
13142
12868
13193
12997
13169
13049
13069
12999
12937
13065
12887
13130
12972
13274
13574
15093
16742
18077
15598
12795
12805
13602
13702
13926
13835
13925
13932
13872
13952
13752
14074
13876
14251
13964
14389
14087
14526
14281
14759
14564
15051
15057
15494
15573
15718
15849
15747
15782
15465
15372
14616
14439
13614
13341
12883
12801
12310
12391
11903
12222
11738
12108
11745
12093
11769
12103
11861
12024
11902
12039
12078
12108
12278
12125
12328
12083
12489
12253
12637
12308
12767
12451
12828
12542
12827
12578
12858
12848
13129
13165
13242
13321
13143
13317
13066
13313
12886
13284
12940
13317
13043
13440
13321
13896
14420
16443
17920
17513
13453
12821
13528
13754
14054
13750
14070
13689
14010
13633
13956
13563
13957
13706
13986
13803
14094
13947
14432
14206
14697
14690
15125
15205
15520
15605
15600
15699
15474
15463
14867
14697
13910
13767
12908
12933
12271
12427
11930
12113
11789
11906
11759
11912
11945
11946
12060
11877
12051
11806
12092
11833
12236
11866
12291
11938
12337
12044
12478
12237
12488
12343
12337
12350
12394
12577
12562
12924
12729
13133
12763
13123
12714
13018
12580
12846
12573
12874
12707
12972
13020
13209
14066
15389
17528
17876
14864
12267
13243
13554
14029
13960
14249
14010
14269
13919
14270
14027
14437
14115
14521
14206
14546
14380
14714
14630
14891
15069
15256
15607
15651
16027
15818
16114
15724
15978
15291
15209
14348
14198
13415
13256
12737
12664
12322
12258
12122
11927
12001
11849
12115
11862
12184
11872
12257
11893
12257
11881
12198
11892
12219
12049
12228
12064
12151
12178
12051
12201
12032
12317
12141
12615
12449
12939
12668
13035
12659
12924
12589
12850
12666
12889
12830
13145
12995
13407
14141
15867
17366
17795
13971
11955
12866
13408
13919
13681
13976
13663
14085
13697
14073
13677
14062
13801
14137
13996
14230
14197
14405
14490
14626
14932
15055
15508
15407
15893
15617
16006
15598
15801
15256
15250
14411
14240
13620
13474
13075
12878
12637
12407
12369
12105
12301
12002
12307
11936
12327
11990
12448
12066
12423
12128
12392
12180
12361
12178
12209
12180
12091
12312
12116
12444
12266
12700
12370
12843
12507
12857
12569
12824
12500
12874
12495
12931
12628
13049
12884
13684
14785
16898
17538
15806
11536
12102
12976
13379
13777
13483
13900
13568
13911
13476
13906
13517
13907
13596
13894
13719
13991
13978
14125
14287
14495
14894
14982
15493
15467
15981
15722
16137
15760
16028
15437
15338
14513
14333
13699
13535
13104
12852
12625
12370
12399
12098
12290
11899
12238
11953
12368
12013
12391
12065
12381
12088
12357
12078
12238
12107
12110
12176
12231
11980
12249
12158
12349
12499
12574
12828
12768
13033
12681
12882
12504
12868
12522
12940
12655
13093
12913
13248
13421
14597
16477
17899
16348
12213
12527
12901
13544
13330
13671
13360
13748
13327
13653
13279
13644
13384
13607
13401
13629
13600
13718
13831
13896
14226
14247
14786
14758
15349
15132
15618
15279
15586
15032
15054
14366
14221
13535
13321
12859
12638
12505
12270
12270
12011
12257
11948
12350
12060
12497
12125
12516
12252
12626
12292
12759
12411
12779
12430
12760
12487
12706
12374
12487
12420
12597
12703
12807
13068
13005
13296
13036
13373
12970
13297
12900
13228
12897
13292
13104
13576
13391
14362
15876
18228
18777
14883
13324
13695
14367
14132
14433
14068
14368
13904
14204
13809
14115
13796
14008
13803
13968
13905
14006
14095
14094
14339
14355
14817
14720
15228
14942
15341
14934
15210
14677
14697
14001
13769
13078
12849
12427
12168
11992
11762
11680
11896
11823
11958
11969
11938
12091
11884
12147
11904
12245
11925
12301
11952
12344
12022
12416
12073
12243
12001
12221
12141
12297
12509
12516
12717
12626
12937
12638
13014
12669
13006
12678
13004
12660
13023
12788
13192
13022
13941
15463
17625
17818
13593
12422
12858
13632
13416
13719
13358
13776
13388
13761
13496
13880
13642
13910
13786
14041
14081
14228
14419
14464
14790
14792
15341
15286
15880
15734
16262
15935
16318
15888
15887
15204
15160
14317
14279
13497
13463
12895
12930
12533
12539
12325
12280
12219
12118
12257
12058
12286
11929
12258
11874
12250
11900
12298
11956
12347
12052
12258
12076
12208
12189
12216
12391
12457
12737
12582
12813
12473
12821
12404
12718
12374
12784
12516
12882
12676
13020
13008
13464
14206
16100
17930
17043
12773
12238
13158
13280
13676
13314
13728
13368
13749
13397
13751
13452
13702
13543
13734
13721
13870
14071
14057
14463
14733
14942
15267
15537
15676
15969
15841
16106
15753
15913
15176
15011
14175
14140
13351
13312
12681
12696
12329
12325
12123
12130
12140
12031
12147
11929
12208
11902
12259
11874
12216
11897
12306
12017
12427
12179
12478
12287
12344
12318
12373
12559
12613
12890
12701
12969
12672
12984
12572
12822
12324
12723
12431
12791
12588
12883
12858
13060
13786
15225
17325
17816
14331
11993
12982
13310
13840
13453
13801
13430
13819
13430
13647
13389
13734
13407
13781
13562
14051
13868
14274
14240
14567
14659
14958
15260
15407
15796
15728
16079
15787
16012
15405
15374
14580
14536
13801
13781
13233
13193
12787
12760
12543
12465
12466
12318
12453
12201
12493
12193
12560
12118
12453
12049
12424
12047
12286
12021
12256
12051
12238
12324
12445
12574
12511
12717
12431
12685
12286
12667
12335
12751
12360
12811
12599
13028
12836
14021
15593
17482
17921
14576
11640
12465
13375
13532
13989
14013
14161
14045
14242
13974
14220
13921
14301
13974
14333
13996
14427
14192
14670
14563
15001
15077
15525
15605
15707
15824
15744
15844
15483
15424
14704
14561
13769
13646
12887
12967
12428
12524
12076
12158
11870
11949
11880
11883
11977
11942
12178
11936
12317
12085
12441
12055
12484
12113
12450
11982
12319
12098
12390
12289
12521
12464
12523
12675
12496
12643
12305
12557
12208
12622
12346
12760
12461
12931
12671
13495
14301
16580
17697
14324
11836
12823
13100
13576
13399
13532
13509
13525
13594
13514
13763
13528
13923
13661
14087
13804
14300
14026
14594
14426
15007
14926
15395
15433
15727
15772
15832
15867
15566
15508
14910
14810
14057
14011
13245
13294
12610
12840
12357
12522
12162
12342
12119
12199
12140
12125
12197
11997
12219
11946
12294
12006
12419
12085
12453
12072
12446
12122
12484
12249
12574
12518
12693
12738
12776
12910
12749
12937
12578
12834
12437
12747
12735
13053
12862
13257
13328
14580
16290
18549
17055
13159
12776
13688
13745
14033
13827
13930
13809
13770
13807
13638
13858
13607
13911
13589
13986
13624
14119
13821
14248
14019
14527
14515
14959
14973
15244
15253
15238
15214
14870
14744
14058
13894
13125
13129
12479
12645
12050
12227
11782
12072
11854
12126
11956
12066
12010
12030
12176
12023
12309
12079
12521
12208
12580
12214
12657
12287
12582
12194
12534
12296
12559
12638
13041
12746
13123
12856
13074
12860
12904
12841
12860
12960
12863
13110
12928
13340
13109
14196
15483
18106
17785
13894
12400
13404
13580
13870
13697
13828
13752
13719
13788
13603
13816
13541
13896
13541
13997
13701
14151
13885
14413
14213
14765
14766
15223
15339
15619
15702
15731
15752
15514
15513
14832
14691
13944
13907
13200
13301
12653
12835
12344
12493
12197
12389
12209
12262
12225
12157
12279
12088
12222
11867
12186
11876
12235
12008
12287
12075
12396
12018
12364
12046
12407
12157
12675
12358
12683
12394
12629
12464
12613
12483
12391
12488
12412
12661
12475
12849
12688
13154
13553
15542
17208
17639
13192
12180
12560
13389
13328
13430
13414
13417
13471
13287
13522
13260
13582
13298
13726
13400
13816
13574
14096
13922
14369
14341
14806
14935
15286
15411
15547
15702
15530
15647
15139
15058
14273
14216
13442
13499
12888
13048
12563
12760
12440
12547
12336
12430
12336
12722
12488
12752
12564
12645
12594
12563
12543
12369
12525
12170
12387
12086
12484
12170
12686
12524
13013
12768
13133
12860
13042
12853
12855
12866
12827
12935
12829
13090
12877
13314
13458
15080
16672
18198
16354
12297
12340
13391
13620
13910
13691
13796
13746
13722
13852
13713
13982
13728
14116
13888
14328
14120
14622
14366
14903
14798
15319
15345
15776
15840
16098
16104
16045
16130
15732
15608
14922
14779
14042
13969
13176
13074
12606
12735
12249
12456
11968
12326
11883
12319
11999
12285
11991
12207
12047
12143
12070
11981
11974
11892
12134
11872
12315
12152
12685
12443
12849
12441
12771
12392
12669
12400
12616
12504
12678
12699
12727
13044
13349
15020
16835
17755
15970
11786
11805
12909
13008
13625
13346
13701
13513
13717
13552
13601
13594
13561
13778
13683
13968
13820
14265
14037
14620
14460
15102
14985
15550
15429
15853
15678
15955
15811
15752
15462
15017
14409
14291
13806
13553
13235
12978
12851
12546
12627
12277
12554
12194
12488
12104
12472
12038
12367
11966
12299
12046
12171
12000
12029
12052
11942
12132
12095
12362
12160
12524
12103
12465
12031
12412
12042
12417
12080
12401
12241
12469
12408
13034
14462
16370
17389
15518
11388
11497
12437
12506
13030
12682
13201
12854
13266
12978
13276
13114
13322
13270
13399
13517
13558
13872
13820
14285
14176
14776
14675
15269
15048
15549
15314
15736
15348
15419
14632
14579
13723
13688
13010
13113
12612
12686
12392
12364
12304
12224
12351
12177
12421
12232
12604
12338
12784
12452
12833
12428
12757
12433
12685
12364
12527
12490
12657
12761
12844
13026
12794
13029
12702
12975
12594
12991
12689
13147
12868
13313
13137
13432
13928
15708
18074
18907
15287
13112
13619
13707
14002
13641
13989
13517
13874
13448
13763
13430
13783
13534
13846
13650
13889
13846
13943
14105
14209
14612
14822
14948
15181
15247
15290
15438
15235
15296
14643
14525
13671
13610
12844
12978
12436
12689
12270
12440
12140
12335
12145
12213
12180
12084
12192
11997
12286
12037
12400
12029
12399
12052
12421
12098
12480
12128
12338
12190
12498
12589
12762
12848
12785
13002
12810
13129
12735
12864
12423
12836
12460
12874
12615
13066
12872
13503
13977
16413
18263
17507
13448
13009
13599
13560
13761
13433
13737
13307
13669
13230
13614
13209
13540
13202
13661
13364
13836
13614
14041
13881
14415
14419
14895
14993
15245
15372
15392
15552
15300
15305
14653
14573
13809
13779
13047
13160
12608
12793
12324
12490
12217
12352
12246
12282
12335
12232
12400
12249
12599
12301
12701
12349
12769
12454
12802
12484
12821
12614
12934
12730
12886
12774
12830
12799
12723
12945
12980
13443
13214
13603
13312
13706
13312
13662
13296
13573
13260
13592
13353
13500
13454
13547
13704
14160
15832
17819
17406
13562
13273
13703
14173
13982
14250
13896
14230
13825
14171
13784
14136
13788
14153
13845
14129
13931
14166
14151
14261
14376
14469
14798
14777
15200
14928
15294
14957
15244
14664
14704
13913
13786
13000
12878
12452
12418
12151
12083
12080
11923
12073
11789
12011
11663
12071
11709
12090
11737
12132
11807
12162
11953
12277
12091
12281
12211
12206
12270
12195
12445
12295
12603
12311
12702
12377
12762
12449
12833
12481
12796
12621
13104
13008
13523
13199
13577
13297
13604
13396
13534
13407
13381
13449
13354
13511
13356
13798
13650
14662
15562
17956
17899
15157
13045
13924
14165
14569
14365
14569
14500
14543
14581
14450
14585
14350
14687
14305
14667
14316
14702
14348
14797
14550
14996
14859
15338
15372
15726
15757
15804
15855
15625
15564
14956
14815
14075
13969
13121
13077
12405
12580
12007
12236
11931
12113
11897
12007
11897
11827
11859
11779
12019
11742
12013
11871
11926
11880
12109
11861
12118
11838
12272
11911
12323
12046
12476
12163
12494
12152
12469
12311
12523
12463
12669
12830
12777
13007
12837
13168
12841
13192
12772
13102
12756
13167
12849
13213
13030
13285
13887
15398
17133
17774
15333
12124
13019
13472
14128
13894
14367
14022
14398
13999
14455
14140
14467
14197
14516
14385
14611
14633
14657
14796
14819
15188
15207
15787
15743
16295
15972
16457
16107
16401
15911
15868
15180
14936
14173
13738
13031
12984
12369
12359
11987
11993
11761
11737
11756
11611
11714
11501
11802
11490
11784
