15351
15242
15315
14996
15093
14666
14834
14471
14738
14374
14692
14530
14960
14890
15257
15201
15271
15121
14948
14753
14340
14060
13365
13148
12455
12485
11946
12109
11658
11861
11514
11771
11565
11830
11798
11963
12003
12123
12243
12189
12441
12287
12544
12270
12567
12183
12548
12310
12685
12513
12915
12823
13110
13023
13155
13092
13044
13056
12937
13113
12958
13234
13001
13423
13306
14753
15987
17077
16440
12864
10617
11861
12545
13168
13236
13665
13554
13798
13701
13832
13787
13903
13953
13904
14113
14044
14401
14291
14725
14579
15118
15076
15624
15424
15742
15420
15548
15217
15014
14457
14004
13557
13079
12934
12555
12641
12251
12432
12138
12488
12244
12674
12433
12812
12606
12842
12676
12787
12686
12679
12732
12640
12687
12434
12660
12338
12588
12440
12948
12672
13085
12798
13026
12729
12887
12688
12810
12787
12956
13065
13029
13378
13432
14685
15891
17093
16526
11385
11596
12591
12948
13426
13190
13605
13359
13748
13465
13756
13501
13737
13560
13706
13715
13874
14005
14013
14255
14300
14746
14775
15281
15103
15467
15109
15339
14814
14778
14137
13880
13334
13131
12768
12663
12596
12442
12492
12239
12489
12380
12639
12336
12680
12407
12743
12454
12742
12526
12782
12589
12666
12536
12454
12476
12484
12609
12507
12841
12688
13059
12811
13140
12746
12996
12600
12812
12588
12821
12691
12897
12913
13422
14001
15690
16875
16707
12568
11641
12262
12843
13164
13133
13454
13287
13552
13310
13665
13450
13850
13558
13839
13692
14013
13889
14180
14245
14507
14780
14934
15193
15209
15492
15229
15419
14956
14984
14271
14164
13450
13386
12865
12951
12657
12731
12637
12700
12705
12688
12749
12586
12845
12606
12829
12505
12785
12475
12794
12471
12743
12453
12680
12484
12612
12508
12615
12691
12772
12968
12902
13153
12933
13171
12880
13146
12939
13143
12986
13259
13037
13494
13336
14506
15433
17229
17176
13861
11569
12336
12821
13249
13302
13360
13404
13288
13436
13216
13501
13234
13548
13323
13759
13572
13961
13797
14214
14189
14553
14758
15079
15261
15349
15392
15202
15257
14805
14625
13866
13730
13012
13027
12531
12647
12303
12488
12281
12454
12384
12507
12550
12602
12717
12619
12800
12601
12894
12589
12889
12590
12821
12523
12851
12604
12942
12903
13132
13044
13153
12986
13290
13004
13123
12995
13090
13034
13067
13167
13270
13924
14655
16471
17183
16144
11639
11970
12378
13218
13069
13424
13242
13421
13312
13392
13367
13409
13442
13328
13544
13419
13701
13550
13957
13828
14402
14379
14934
14883
15266
15075
15246
15010
14914
14507
14094
13617
13049
12840
12376
12464
12124
12316
11995
12361
12153
12574
12343
12678
12459
12672
12616
12700
12652
12662
12750
12623
12748
12531
12698
12444
12757
12499
12960
12980
13258
13094
13376
13051
13266
12817
13072
12828
13074
12790
12974
12843
13104
13625
14559
16422
17415
15425
11399
11863
12350
13088
12952
13394
13162
13488
13205
13450
13316
13627
13545
13740
13732
13807
13930
13908
14165
14131
14541
14552
15122
15064
15472
15220
15474
15093
15123
14554
14332
13785
13496
13084
12809
12697
12569
12681
12520
12786
12547
12822
12533
12887
12543
12834
12548
12821
12555
12775
12685
12831
12798
12817
12643
12865
12627
12776
12739
12852
12996
12981
13075
12953
13118
12873
13060
12681
12869
12495
12773
12507
12841
12692
13072
13139
14056
15231
16915
16867
12821
11268
11916
12891
12975
13321
13118
13494
13243
13586
13317
13633
13444
13703
13645
13891
13930
14118
14294
14400
14734
14757
15195
15180
15635
15408
15713
15320
15486
14951
14826
14134
13954
13416
13209
12880
12715
12625
12546
12699
12512
12715
12467
12750
12485
12791
12485
12726
12529
12805
12537
12853
12558
12863
12544
12805
12514
12693
12555
12792
12813
12935
12927
12937
13106
13018
13187
12913
13141
12849
13188
12901
13251
12994
13397
13293
14273
15276
17002
17440
14492
11064
11791
12789
13258
13627
13538
13952
13803
14111
13833
14171
13933
14250
14078
14341
14246
14459
14469
14684
14845
15014
15388
15467
15828
15698
15970
15566
15766
15249
15183
14451
14273
13575
13414
13010
12953
12727
12592
12573
12665
12549
12786
12699
12779
12823
12813
12921
12766
12888
12698
12908
12629
12922
12691
12986
12688
13076
12903
13149
12996
13097
12949
12930
12799
12684
12783
12678
12782
12586
12909
12794
13595
14702
16813
16800
15537
10539
11030
11828
12683
12852
13060
13239
13238
13356
13303
13547
13362
13670
13434
13786
13602
14008
13861
14312
14260
14736
14823
15296
15406
15595
15623
15592
15574
15249
15046
14414
14227
13509
13429
12899
13028
12618
12759
12422
12710
12387
12671
12367
12690
12501
12787
12606
12806
12676
12751
12730
12713
12759
12573
12688
12487
12706
12491
12928
12751
13099
12891
13176
12913
13109
12781
12923
12805
12938
12962
12951
13069
13142
14044
15066
16808
17052
14580
10620
11652
12182
13058
13025
13435
13371
13587
13523
13628
13644
13692
13773
13757
13988
13867
14134
13957
14385
14316
14820
14816
15374
15318
15630
15411
15509
15249
15122
14724
14262
13606
13422
12976
12886
12676
12572
12498
12384
12462
12345
12538
12352
12609
12294
12551
12304
12617
12298
12517
12317
12550
12395
12483
12385
12408
12465
12369
12559
12499
12766
12537
12827
12574
12810
12436
12661
12380
12636
12417
12612
12567
12747
12805
13469
14609
16409
17597
15365
11399
11448
12417
12645
13082
12982
13345
13101
13318
13147
13268
13186
13296
13259
13346
13509
13549
13800
13769
14175
14169
14676
14684
15179
15086
15405
15229
15347
14836
14731
14007
13842
13235
13151
12775
12786
12612
12756
12694
12717
12837
12819
12894
12775
13033
12796
12967
12729
12981
12731
12954
12645
12835
12660
12808
12651
12705
12668
12690
12858
12971
13270
13187
13461
13228
13368
13081
13223
12971
13167
12968
13140
13102
13402
13374
14192
15159
16749
17581
14820
11792
12055
12832
13001
13286
13079
13323
13034
13220
13027
13363
13204
13354
13269
13439
13558
13685
13782
14077
14206
14638
14961
15245
15447
15471
15585
15316
15256
14709
14516
13811
13607
12890
12801
12297
12314
12057
12191
12034
12149
12094
12228
12261
12206
12369
12307
12554
12315
12593
12399
12664
12428
12727
12458
12637
12396
12548
12466
12588
12476
12450
12556
12541
12763
12749
13008
12840
13081
12857
13124
12838
13019
12749
12958
12803
13012
12947
13132
13341
14092
15197
16769
17194
14097
11787
12031
13010
13173
13591
13433
13745
13613
13962
13852
14172
14041
14366
14219
14589
14513
14777
14808
15070
15140
15385
15698
15931
16226
16146
16312
16051
16144
15558
15369
14586
14376
13740
13650
13184
13113
12824
12805
12726
12756
12801
12754
12882
12736
12917
12668
12852
12570
12765
12533
12792
12517
12686
12467
12635
12508
12600
12586
12661
12693
12560
12594
12438
12683
12582
12923
12644
12832
12554
12808
12522
12691
12438
12515
12408
12545
12556
12662
12872
13065
13902
15368
16480
15867
11994
11326
12124
12688
13079
13027
13315
13162
13384
13182
13467
13321
13585
13464
13700
13653
13828
13937
14186
14377
14519
14896
15057
15451
15444
15814
15611
15712
15313
15274
14704
14408
13633
13326
12971
12931
12743
12636
12619
12488
12585
12492
12665
12456
12652
12462
12695
12440
12759
12550
12801
12591
12700
12555
12689
12640
12744
12821
12782
12908
12821
13016
12803
13012
12823
13121
12971
13210
13011
13270
13039
13311
13066
13286
13020
13242
13088
13307
13258
13508
13603
14613
16059
16822
16821
12698
11088
11925
13003
13287
13659
13452
13805
13713
14024
13905
14126
14027
14149
14187
14325
14482
14553
14703
14694
15085
15120
15645
15666
16152
16001
16199
15876
15973
15493
15285
14653
14248
13732
13438
13197
12844
12734
12491
12583
12365
12527
12332
12577
12371
12740
12478
12698
12556
12719
12544
12642
12659
12619
12648
12558
12678
12493
12541
12586
12669
12754
12982
12953
13212
13099
13471
13190
13385
13008
13106
12698
12823
12648
12912
12876
13138
13288
14013
15374
16601
16891
14316
10953
11524
12570
12907
13423
13320
13678
13511
13710
13521
13729
13719
13859
13882
13970
14071
14038
14217
14142
14501
14478
14962
14975
15446
15320
15600
15334
15388
15003
14827
14252
13835
13437
13087
12869
12628
12661
12382
12543
12284
12483
12248
12479
12248
12512
12340
12580
12492
12698
12481
12751
12508
12742
12582
12683
12572
12675
12668
12644
12641
12526
12574
12378
12628
12503
12898
12810
13160
12984
13226
13043
13207
12972
13106
13027
13084
13069
13101
13231
13331
14047
14979
16652
16976
15406
11362
11968
12476
13251
13189
13460
13338
13538
13489
13544
13557
13558
13669
13535
13715
13571
13856
13790
14190
14179
14727
14746
15243
15289
15594
15518
15634
15454
15348
14997
14549
14158
13613
13391
12880
12933
12619
12639
12462
12583
12435
12625
12412
12659
12483
12729
12515
12728
12466
12660
12508
12639
12574
12594
12633
12598
12693
12597
12714
12453
12589
12413
12699
12542
12906
12725
12971
12893
13037
12870
12984
12856
12917
12917
12853
12911
12834
13091
13006
14018
14991
16685
16848
14394
11164
11934
12509
13098
13024
13241
13232
13327
13325
13251
13349
13314
13517
13381
13710
13621
13966
13864
14289
14265
14698
14739
15180
15263
15510
15430
15649
15315
15219
14621
14288
13760
13423
13132
12869
12804
12537
12598
12362
12556
12329
12588
12360
12584
12377
12615
12449
12645
12514
12592
12582
12620
12643
12572
12655
12532
12707
12540
12753
12486
12690
12451
12729
12598
12981
12931
13146
13073
13200
13115
13049
13014
12918
13042
12942
13227
13024
13333
13254
14292
15258
16969
17194
14619
11601
12285
12868
13298
13387
13497
13597
13575
13687
13515
13676
13465
13666
13432
13726
13622
13951
13901
14342
14261
14742
14834
15363
15341
15618
15439
15552
15311
15139
14734
14279
13880
13394
13186
12841
12886
12560
12738
12481
12749
12541
12798
12579
12770
12611
12801
12699
12730
12695
12715
12813
12736
12839
12670
12940
12727
12945
12681
12957
12674
12864
12535
12762
12699
12966
12968
13141
13235
13265
13359
13269
13421
13248
13412
13203
13496
13309
13651
13463
13779
14291
15561
16943
17608
15310
12097
12436
13089
13426
13712
13630
13797
13856
13810
13880
13865
14052
13809
13898
13628
13966
13566
13982
14014
14288
14162
14634
14710
15007
14900
14950
14731
14440
14428
14032
13833
13387
13314
12892
13011
12685
12853
12600
12851
12551
12702
12489
12606
12516
12529
12523
12524
12640
12555
12690
12560
12771
12572
12855
12627
12856
12601
12874
12737
12961
12814
12973
12844
12793
12886
12907
13142
13122
13267
13124
13220
12861
13290
13002
13081
12757
12976
12853
13127
12952
13380
13818
14883
16141
16909
14919
11676
11883
12654
13097
13218
13422
13419
13655
13550
13860
13652
13964
13852
14219
14076
14343
14257
14520
14486
14785
14869
15190
15435
15641
15883
15796
15901
15592
15635
15035
14779
14064
13816
13199
13135
12636
12591
12397
12592
12431
12474
12552
12480
12592
12451
12706
12549
12769
12592
12810
12522
12783
12579
12818
12717
12919
12833
12904
12877
12865
12852
12741
12877
12879
12981
13143
13292
13290
13419
13281
13429
13153
13259
13036
13300
13052
13305
13090
13425
13619
14783
16118
16964
15976
11635
11461
12242
12978
13040
13286
13143
13393
13152
13402
13209
13519
13347
13606
13487
13687
13688
13846
13903
14071
14345
14534
14911
14949
15318
15176
15387
15040
15186
14789
14698
14055
13789
13246
13151
12846
12784
12687
12564
12571
12527
12703
12583
12792
12584
12856
12720
12970
12761
12979
12734
12947
12873
13245
13077
13275
13041
13195
12985
13119
12942
13136
13201
13375
13398
13369
13481
13277
13418
13137
13288
13020
13256
12964
13175
12948
13395
13609
15005
16492
16751
15591
10996
11049
11876
12717
12896
13250
13131
13352
13135
13396
13127
13473
13403
13656
13542
13730
13744
13946
14065
14237
14484
14629
14992
15069
15424
15282
15502
15118
15167
14657
14453
13821
13616
13066
12924
12613
12523
12459
12341
12365
12244
12380
12115
12274
12348
12425
12397
12595
12465
12677
12471
12765
12503
12785
12518
12718
12416
12515
12370
12489
12424
12499
12656
12801
12971
12968
13203
13028
13238
12953
13143
12896
13202
13006
13279
13078
13370
13435
14627
16172
17029
16715
12419
11388
12198
13138
13249
13609
13503
13838
13585
13851
13627
13925
13726
13874
13763
13870
13913
14015
14134
14202
14413
14466
14869
14860
15275
15098
15346
15060
15146
14644
14467
13848
13538
12964
12694
12345
12508
12274
12382
12234
12336
12288
12342
12415
12414
12595
12495
12718
12581
12884
12721
13013
12757
13006
12784
12963
12735
12932
12779
12845
12796
12720
12644
12595
12728
12647
12906
12869
13182
13027
13371
13129
13356
13034
13207
12972
13148
13043
13154
13179
13352
13611
14468
16075
17046
16950
12822
11814
12169
13052
13076
13409
13280
13541
13459
13662
13611
13691
13756
13807
13871
13801
14100
13967
14259
14148
14592
14558
15184
15400
15802
15699
16013
15690
15756
15200
14986
14286
13991
13420
13299
12909
12780
12674
12593
12607
12486
12637
12492
12765
12688
13211
13063
13290
12823
12827
12357
13070
12906
12605
12498
12242
11886
11498
11173
11442
12109
12300
12692
12480
12821
12654
13086
13013
13254
13100
13320
13206
13346
13223
13197
13159
13170
13348
13305
13505
13466
13847
14287
15619
16997
17922
15964
12460
12397
13164
13401
13568
13538
13591
13676
13782
13715
13943
13852
13893
13918
13918
14052
14012
14292
14247
14690
14679
15140
15132
15594
15477
15714
15441
15446
15126
14847
14304
13872
13455
13033
12889
12559
12621
12332
12493
12219
12461
12203
12486
12286
12552
12340
12516
12388
12403
12297
12302
12325
12307
12395
12227
12346
12137
12390
12145
12458
12245
12438
12148
12339
12287
12556
12658
12829
12855
12870
12985
12988
13079
12864
12980
12737
12945
12714
12963
12793
13269
13814
14937
16306
17116
14646
11739
11907
12811
13036
13349
13316
13424
13470
13495
13572
13546
13659
13605
13876
13741
14068
13940
14300
14122
14464
14444
14879
14912
15313
15444
15620
15615
15546
15430
15068
14825
14162
13905
13276
13206
12684
12738
12411
12621
12412
12639
12474
12677
12632
12749
12734
12662
12709
12611
12798
12639
12866
12644
12962
12738
12807
12544
12811
12572
12760
12567
12663
12595
12628
12632
12668
12877
12976
13071
13309
13304
13231
13286
13132
13194
12920
13122
12888
13203
13006
13370
13357
14348
14956
16592
16864
14657
11562
12115
12850
13247
13519
13472
13608
13435
13670
13444
13731
13573
13844
13684
13996
13885
14131
14083
14341
14475
14720
15074
15280
15619
15614
15852
15681
15816
15363
15294
14622
14454
13758
13523
12985
13013
12748
12748
12699
12697
12722
12679
12802
12719
12887
12657
12843
12574
12891
12629
12897
12656
12911
12702
12886
12658
12851
12610
12796
12540
12751
12657
12924
12967
13044
13062
12990
13022
12810
12995
12887
13169
12869
13209
13058
13465
13483
14976
16527
17216
16316
11647
11008
12015
12783
13049
13193
13122
13356
13211
13448
13209
13476
13271
13630
13425
13667
13653
13892
13930
14112
14366
14659
14999
15142
15513
15527
15812
15527
15613
15064
14955
14249
14035
13420
13374
12974
12901
12587
12513
12467
12422
12523
12413
12639
12515
12841
14418
14762
14365
14350
13847
13689
13277
13145
12873
12726
12727
12693
12764
12650
12862
12613
12833
12502
12679
12396
12686
12490
12681
12545
12908
12970
14077
15474
16470
16520
12462
10655
11461
12471
12708
13135
12939
13278
13100
13404
13213
13463
13398
13526
13450
13528
13541
13603
13790
13803
14111
14196
14689
14718
15210
14982
15254
14962
15089
14655
14496
13929
13624
13191
12879
12628
12496
12444
12253
12374
12163
12367
12192
12424
12467
12679
12513
12774
12569
12871
12658
12897
12633
12909
12715
12898
12732
12782
12754
12818
12869
12896
13101
13030
13216
13057
13233
13005
13167
12859
13084
12813
13094
12953
13214
13255
13674
14526
16093
17350
17067
12851
11738
12589
12969
13393
13191
13517
13270
13522
13254
13478
13361
13546
13400
13550
13568
13671
13771
13866
14207
14296
14745
14845
15320
15262
15616
15350
15530
15120
15050
14445
14146
13546
13226
12899
12689
12465
12605
12425
12479
12372
12425
12414
12339
12478
12399
12609
12425
12654
12427
12734
12470
12679
12430
12659
12458
12635
12468
12569
12522
12549
12654
12727
12967
12914
13214
13109
13327
12974
13174
12950
13230
12965
13173
13037
13237
13225
14032
15151
16786
17457
14902
11711
11907
12734
12880
13192
12953
13243
13013
13299
13112
13397
13331
13561
13477
13577
13593
13654
13839
13875
14149
14215
14684
14716
15158
15037
15375
15107
15186
14792
14663
13976
13812
13191
13148
12679
12777
12555
12713
12567
12666
12655
12646
12702
12617
12820
12710
12870
12718
12970
12714
13020
12786
13032
12803
13082
12894
12998
12931
13005
12904
12772
12819
12756
13019
12972
13262
13072
13315
13073
13330
12996
13220
12941
13137
12955
13117
13089
13205
13296
13878
14979
16434
17230
15236
11970
11940
12843
13027
13396
13188
13437
13264
13489
13354
13515
13470
13515
13519
13536
13646
13837
13901
14121
14280
14416
14680
14810
15176
15086
15310
15065
15288
14885
14811
14111
13949
13308
13251
12940
12959
12795
12854
12869
12814
12874
12783
12958
12811
13057
12852
13071
12805
13080
12774
13088
12904
13067
12922
13083
13000
13034
13034
12983
13090
12928
12997
12716
12962
12732
13182
13030
13319
13157
13374
13194
13389
13207
13219
13128
13167
13275
13256
13363
13327
13687
14256
15667
16725
17084
13636
11781
12143
13073
13210
13580
13373
13661
13420
13689
13471
13645
13478
13592
13486
13570
13664
13687
13883
13897
14292
14338
14839
14826
15245
15065
15370
15063
15135
14697
14539
13941
13629
13187
12905
12708
12509
12566
12396
12534
12290
12566
12384
12652
12457
12789
12593
12827
12643
12816
12677
12827
12796
12828
12832
12775
12955
12832
13048
12801
13054
12792
12981
12793
13072
12949
13287
13179
13305
13164
13250
13167
13117
13071
12948
13056
12859
13012
13110
13306
13575
14532
15732
16910
16149
12323
11422
12451
12863
13374
13160
13420
13244
13448
13351
13476
13481
13563
13674
13686
13844
13758
13991
13873
14308
14303
14792
14796
15345
15315
15628
15412
15491
15229
15021
14648
14247
13838
13330
13187
12739
12763
12433
12620
12335
12590
12370
12627
12407
12604
12466
12656
12556
12618
12588
12552
12688
12610
12779
12593
12771
12594
12882
12697
12973
12704
12906
12610
12718
12625
12926
12918
13135
12962
13145
13019
13190
13057
13094
13005
12958
13052
13001
13187
13127
13548
13930
15141
16282
17050
15226
11746
11759
12775
13234
13528
13537
13614
13613
13617
13725
13686
13871
13727
14076
13880
14183
13971
14303
14163
14588
14556
14927
15023
15364
15417
15533
15488
15334
15271
14867
14621
14030
13851
13270
13224
12794
12941
12577
12713
12509
12727
12635
12714
12654
12670
12675
12636
12767
12667
12828
12634
12897
12781
12895
12821
12924
12747
12949
12726
12930
12612
12810
12492
12738
12567
12738
12680
12728
12691
12763
13073
13030
13072
12879
12965
12972
13096
13074
13253
13366
13518
14266
15397
16835
17125
15076
11360
12076
12782
13424
13391
13567
13538
13649
13557
13582
13443
13556
13671
13749
13749
13777
13866
13888
14114
14185
14512
14640
14970
15145
15467
15448
15597
15505
15479
15164
14866
14519
14043
13713
13352
13219
13031
13002
12847
12873
12885
13034
12964
13006
12954
13019
12944
13021
12919
12964
12828
12884
12738
12772
12646
12568
12462
12425
12481
12498
12647
12707
12911
12928
13044
12897
12972
12814
12947
12802
12972
12878
13024
13067
13355
14296
15767
16920
16841
13859
10609
11637
12425
13089
13166
13388
13365
13536
13455
13674
13674
13749
13778
13877
13884
14018
14084
14130
14327
14442
14757
14910
15296
15403
15585
15439
15528
15235
15141
14658
14309
13756
13348
12909
12884
12630
12616
12493
12450
12401
12359
12343
12319
12451
12397
12493
12412
12555
12504
12665
12545
12699
12610
12670
12603
12734
12657
12607
12517
12489
12534
12517
12677
12678
12879
12876
12981
12855
12936
12679
12775
12702
12786
12734
12833
12961
13193
13897
15085
16711
17207
14935
11380
11982
12619
13178
13248
13484
13413
13519
13462
13570
13484
13558
13563
13650
13767
13816
13990
14004
14159
14187
14489
14556
14860
14954
15212
15193
15254
14996
14887
14425
14076
13487
13211
12767
12589
12332
12335
12279
12306
12241
12215
12296
12288
12335
12275
12353
12295
12508
12469
12657
12549
12718
12654
12765
12642
12664
12551
12620
12705
12710
12874
12965
13142
13138
13290
13234
13315
13104
13188
13072
13225
13020
13160
13144
13435
13510
14292
15543
17124
17223
13529
11755
12308
12973
13080
13271
13200
13385
13273
13456
13369
13535
13483
13565
13575
13669
13764
14042
14190
14429
14596
14814
15079
15315
15507
15484
15560
15372
15351
14977
14625
14019
13735
13226
13013
12679
12619
12425
12459
12394
12389
12370
12373
12438
12427
12553
12563
12605
12486
12652
12527
12680
12586
12714
12617
12633
12408
12486
12441
12537
12709
12813
12887
12897
13019
12911
12988
12843
12872
12777
12931
12914
13062
13084
13318
13550
14329
15572
16967
16821
12724
11754
12418
13121
13255
13403
13458
13516
13440
13598
13512
13719
13611
13755
13744
13867
13884
14179
14248
14478
14674
14928
15171
15354
15561
15545
15597
15359
15286
14827
14516
13869
13499
12958
12731
12410
12311
12199
12266
12239
12273
12382
12405
12563
12559
12687
12613
12749
12588
12664
12553
12703
12553
12640
12553
12646
12557
12581
12625
12635
12785
12880
13137
13128
13315
13178
13242
13070
13093
12826
12944
12888
13021
12963
13194
13298
13679
14625
16271
17493
16286
12086
11847
12962
13359
13598
13609
13718
13611
13700
13598
13718
13582
13685
13615
13830
13748
13947
13899
14059
14182
14368
14523
14664
14928
15034
15160
15072
15086
14814
14591
14101
13842
13314
13119
12770
12718
12593
12659
12600
12560
12636
12669
12798
12800
12887
12896
12984
12809
12901
12889
12931
12777
12859
12737
12797
12762
12813
12741
12788
12917
12971
13134
13140
13218
13093
13175
13128
13298
13146
13251
13161
13316
13434
13740
14809
17079
17457
15965
11445
11874
12572
13186
13353
13412
13503
13564
13658
13593
13651
13551
13640
13558
13719
13661
13913
13983
14260
14373
14658
14819
15148
15375
15538
15550
15472
15497
15313
15108
14579
14239
13702
13443
13064
12978
12733
12763
12614
12589
12472
12534
12538
12604
12673
12689
12815
12805
12932
12922
13017
12948
13018
12897
12938
12779
12928
12799
12896
12951
13060
13083
13117
13126
13069
13033
12902
12978
12912
13036
12930
13054
13199
13470
14329
15930
16782
16679
12125
11302
12070
12870
13106
13315
13363
13425
13433
13444
13441
13472
13543
13519
13616
13579
13745
13758
14021
14109
14426
14557
14940
15147
15454
15508
15589
15487
15340
15124
14704
14318
13794
13494
13105
12980
12726
12749
12538
12626
12447
12534
12429
12493
12461
12560
12572
12625
12699
12630
12688
12625
12697
12590
12674
12536
12611
12449
12525
12402
12566
12659
12837
12859
12998
12996
13070
12996
13007
12913
12922
12876
12920
12974
13112
13316
13895
15165
16826
17586
14550
11700
12032
12675
12915
13111
13090
13186
13127
13160
13206
13213
13259
13266
13387
13387
13509
13548
13799
13813
14126
14227
14598
14770
15102
15155
15211
15144
15076
14858
14500
14144
13702
13385
12990
12887
12648
12679
12515
12592
12449
12555
12400
12508
12434
12468
12442
12495
12544
12577
12647
12632
12713
12665
12708
12657
12781
12603
12614
12569
12766
12739
12977
13062
13230
13156
13254
13139
13159
12989
12977
12892
12920
12998
13028
13066
13235
13451
14148
15547
16987
17022
13032
11703
12196
12819
12865
13023
13015
13156
13171
13231
13245
13272
13374
13407
13555
13549
13750
13819
14037
14159
14416
14527
14859
15012
15375
15424
15426
15254
15031
14690
14285
13902
13629
13543
13212
13173
12996
13114
12958
13080
13066
13222
13020
13063
12911
12991
12958
12932
12947
12880
12945
13054
13008
12934
12928
12864
12945
12913
12998
12840
12905
12787
12882
12668
12794
12678
12882
12922
13049
13017
13099
13077
13117
13070
12946
12958
12898
12969
12862
12987
12890
13135
13606
14506
15891
16723
15091
11609
11707
12548
13069
13249
13323
13402
13499
13479
13635
13515
13694
13549
13734
13674
13894
13879
14106
14133
14383
14511
14800
15007
15204
15404
15451
15507
15393
15402
15011
14787
14231
13917
13416
13235
12948
12921
12837
12926
12840
12974
12803
12913
12817
12895
12932
12935
13030
12885
12774
12776
12797
12698
12794
12794
12849
12819
12892
12787
12944
12859
12975
12861
12900
12825
12978
13010
13203
13319
13373
13534
13467
13531
13386
13460
13262
13381
13269
13411
13317
13498
13537
13925
14764
16292
17045
16501
12174
11579
12350
12833
13201
13174
13365
13277
13442
13323
13522
13379
13554
13536
13629
13632
13868
13948
14058
14219
14404
14664
15021
15335
15596
15685
15604
15533
15264
15091
14572
14242
13742
13517
13143
13085
12790
12820
12709
12734
12628
12648
12618
12630
12645
12614
12695
12694
12877
12781
12947
12869
12957
12805
12882
12746
12841
12756
12806
12675
12653
12639
12632
12669
12678
12808
12773
12924
12860
12977
12780
12810
12643
12797
12677
12770
12697
12860
13008
13234
14299
15915
16660
16243
11934
10827
11877
12536
13052
13039
13267
13261
13397
13316
13472
13448
13684
13603
13752
13657
13856
13859
14074
14146
14451
14624
14893
15150
15267
15415
15337
15335
15074
14934
14402
14047
13487
13197
12790
12698
12501
12541
12387
12367
12321
12326
12375
12333
12464
12488
12649
12581
12750
12687
12811
12705
12814
12685
12775
12679
12762
12740
12773
12789
12784
12853
12882
12921
12872
12964
12800
12882
12829
13044
13101
13267
13247
13385
13278
13343
13266
13191
13094
13055
13077
13072
13189
13158
13401
14153
15355
16911
17447
15138
12096
12278
12966
13230
13474
13403
13574
13501
13603
13496
13630
13596
13649
13623
13698
13787
13796
13985
13973
14229
14331
14692
14861
15258
15280
15491
15344
15377
15124
14930
14469
14107
13705
13395
13134
12875
12798
12637
12651
12523
12617
12489
12651
12543
12664
12579
12724
12628
12756
12719
12758
12765
12762
12887
12859
12902
12815
12911
12837
13016
12884
13029
12827
12878
12684
12793
12752
12944
13068
13334
13294
13394
13299
13312
13137
13135
13074
13026
13059
13098
13273
13322
13958
14542
16120
16754
15472
11760
11969
12575
13207
13225
13355
13333
13392
13358
13347
13425
13413
13518
13452
13608
13602
13810
13808
14041
14072
14428
14560
14938
15125
15400
15486
15578
15544
15409
15179
14726
14390
13884
13604
13193
13057
12768
12817
12629
12652
12562
12635
12542
12622
12652
12716
12693
12680
12681
12623
12732
12631
12718
12636
12675
12644
12649
12521
12514
12413
12507
12477
12611
12506
12628
12522
12579
12562
12686
12896
13090
13138
13162
13243
13221
13248
13126
13114
12948
13005
12898
13026
12992
13273
13478
14294
15212
16484
16290
12910
11385
12140
12917
13182
13394
13456
13689
13662
13815
13809
13914
13902
14029
13903
13998
13990
14132
14243
14441
14569
14740
15000
15211
15478
15566
15673
15561
15582
15288
15092
14628
14300
13798
13519
13159
13023
12840
12883
12831
12849
12794
12859
12787
12839
12841
12820
12770
12793
12817
12688
12770
12734
12784
12697
12746
12654
12710
12607
12735
12677
12739
12816
12905
12986
13020
13128
13150
13233
13118
13129
13036
13170
13101
13083
12940
13296
13426
13708
14553
16344
16842
16829
12319
11397
12142
13126
13384
13617
13583
13778
13805
13834
13863
13835
13995
13853
14027
13871
14137
14009
14295
14173
14604
14589
15035
15086
15431
15469
15601
15457
15391
14999
14747
14119
13784
13346
13132
12917
12717
12668
12464
12547
12339
12577
12342
12588
12443
12732
12535
12801
12623
12822
12755
12884
12816
12832
12802
12762
12871
12704
12752
12551
12732
12561
12907
12792
13135
13003
13210
13016
13192
13004
13034
12890
12948
12987
12972
13110
13148
13688
14663
16497
16748
16008
11245
11368
12044
12953
13065
13262
13227
13325
13283
13305
13357
13367
13522
13398
13564
13422
13655
13490
13896
13934
14360
14452
14948
14954
15394
15175
15299
14927
14924
14490
14258
13694
13375
12942
12742
12601
12433
12439
12267
12401
12211
12418
12182
12488
12299
12608
12436
12670
12536
12787
12702
12891
12865
12905
12899
12829
12916
12814
12936
12710
12888
12680
12979
12860
13225
13119
13429
13246
13398
13212
13250
13144
13173
13205
13103
13201
13159
13493
13520
14670
15905
17504
17326
14050
11805
12570
12976
13412
13269
13451
13423
13448
13385
13650
13566
13698
13657
13792
13865
13800
13919
13939
14186
14157
14501
14521
14943
14891
15170
14915
15062
14789
14774
14360
14042
13606
13322
13036
12804
12783
12573
12634
12465
12649
12511
12719
12524
12769
12545
12709
12548
12691
12603
12767
12771
12847
12826
12756
12854
12721
12839
12663
12807
12483
12695
12490
12710
12573
12896
12834
13108
13074
13146
13055
13063
13082
13035
13172
13076
13200
13065
13405
13344
14384
15295
17129
16699
13011
11821
12591
12936
13350
13209
13473
13254
13436
13389
13529
13500
13556
13609
13643
13811
13792
14023
13997
14316
14251
14698
14696
15170
15172
15560
15415
15532
15345
15270
14828
14452
14053
13606
13386
13105
13103
12819
12970
12738
12959
12732
12966
12814
12994
12749
12850
12719
12804
12739
12855
12831
12704
12738
12621
12764
12565
12765
12544
12781
12541
12790
12600
12730
12531
12611
12545
12704
12807
12962
12989
12966
13271
13154
13153
13038
12974
12938
12850
13054
12902
13272
13553
14526
15364
16825
16269
12978
11700
12544
12981
13308
13276
13533
13480
13613
13735
13627
13681
13600
13843
13626
13887
13754
14060
13969
14378
14317
14628
14679
14961
14948
15194
15408
15512
15479
15201
15039
14484
14217
13580
13379
12737
12768
12336
12509
12290
12492
12368
12480
12492
12597
12637
12666
12723
12595
12715
12589
12794
12593
12771
12562
12837
12584
12812
12641
12938
12700
12896
12673
12858
12715
12962
12792
13022
12990
13083
12988
12910
12897
12776
12925
12783
12990
12846
13127
13020
13530
14049
15294
16315
16597
13287
11663
12270
13068
13290
13294
13387
13502
13705
13649
13903
13692
13714
13288
14008
14067
14718
14971
15678
15567
15024
15132
15673
15938
16073
16206
16024
16041
15683
15540
14988
14734
13962
13695
13018
12875
12428
12383
12155
12181
12006
12004
12049
12026
12061
12015
12109
12212
12230
12285
12325
12269
12398
12247
12433
12281
12533
12270
12456
12256
12472
12309
12604
12542
12717
12674
12785
12743
12723
12692
12602
12693
12557
12755
12604
12906
12784
13160
14004
15760
16658
16788
13142
10546
11485
12368
12948
13137
13293
13307
13482
13442
13722
13552
13870
13697
13939
13794
14105
13925
14220
14210
14516
14673
14928
15138
15350
15650
15596
15748
15546
15666
15139
15010
14462
14296
13650
13561
13145
14328
14384
14117
13979
13606
13526
13217
13341
13012
13158
12833
12928
12643
12751
12449
12574
12423
12453
12265
12175
12159
12169
12242
12196
12453
12344
12658
12492
12705
12441
12656
12424
12563
12410
12593
12522
12756
12940
13355
14460
16037
16686
15440
11186
10995
12054
12504
13029
12837
13210
13083
13307
13168
13436
13409
13574
13609
13728
13811
13793
13986
14029
14388
14391
14772
14787
15247
15232
15569
15362
15591
15278
15122
14435
14290
13671
13529
13068
13106
12815
12829
12647
12577
12607
12569
12599
12436
12622
12415
12577
12363
12560
12304
12617
12428
12576
12312
12518
12365
12450
12396
12449
12369
12035
12068
12326
12686
12608
12963
12807
13139
12971
13167
12918
13065
12825
12962
12808
12947
12867
12955
13107
13265
14145
15271
17009
17296
15197
11761
12344
12777
13417
13268
13501
13346
13606
13520
13638
13652
13752
13834
13767
13904
13817
14084
14035
14371
14597
14935
15033
15399
15439
15739
15508
15677
15290
15329
14725
14553
13959
13756
13300
13162
12933
12840
12749
12676
12763
12646
12743
12596
12829
12674
12905
12667
12886
12650
12832
12599
12756
12638
12688
12687
12771
12789
12770
12883
12763
12949
12790
12984
12699
12916
12701
13067
12976
13234
13114
13328
13275
13354
13197
13171
13094
13039
13127
12988
13175
13158
13647
13998
15109
16400
17362
15795
12296
12066
12937
13261
13444
13369
13612
13422
13617
13456
13579
13557
13612
13651
13687
13829
13758
13992
13955
14318
14238
14740
14742
15174
15147
15413
15241
15347
15098
15004
14520
14082
13682
13260
13111
12803
12842
12579
12763
12568
12776
12498
12743
12514
12754
12582
12779
12637
12723
12648
12641
12679
12583
12671
12574
12732
12479
12699
12529
12739
12430
12633
12456
12732
12649
13013
12929
13049
13012
13064
13110
13047
13110
12925
13103
12930
13186
12996
13307
13354
14168
14858
16579
17065
15627
11608
12042
12516
13239
13226
13466
13347
13454
13398
13457
13539
13617
13788
13715
13919
13800
14077
13922
14239
14122
14566
14572
15036
15079
15379
15317
15419
15319
15221
15031
14652
14321
13798
13637
13205
13153
12761
12872
12523
12689
12394
12583
12403
12531
12475
12647
12572
12664
12718
12747
12864
12718
12878
12718
12967
12711
12842
12637
12884
12737
13009
12933
13174
13152
13302
13244
13303
13092
13246
13096
13203
13117
13189
13199
13363
13729
14790
16665
16989
16510
11588
11232
12024
12986
13167
13516
13401
13637
13498
13675
13626
13693
13685
13634
13754
13712
13885
13772
14097
14014
14416
14433
14920
14943
15325
15196
15400
15253
15241
14964
14654
14210
13752
13485
13066
13022
12697
12799
12482
12681
12440
12703
12496
12718
12656
12842
12788
12954
12913
12951
13002
12978
13071
12901
13029
12840
13050
12809
13063
12868
13000
12727
12909
12701
12963
12828
13155
12997
13287
13129
13282
13086
13096
12977
13026
13053
13035
13186
13165
13473
13808
15008
16404
17343
15562
11777
11494
12385
12746
13151
13102
13276
13244
13274
13276
13239
13322
13250
13473
13306
13559
13409
13679
13535
13946
13902
14343
14298
14671
14630
14785
14723
14670
14492
14187
13934
13441
13239
12764
12788
12421
12590
12304
12518
12282
12514
12344
12456
12357
12469
12356
12385
12367
12647
12535
12623
12556
12562
12558
12456
12615
12394
12481
12198
12182
11981
12490
12501
12837
12781
13097
13195
13491
13442
13543
13350
13277
13301
13284
13246
13127
13249
13083
13331
13151
13483
13449
14472
15120
16612
16600
14232
11371
11992
12661
13108
13229
13187
13260
13134
13334
13142
13449
13334
13643
13480
13868
13731
14090
14008
14392
14421
14778
14951
15250
15480
15615
15711
15563
15614
15264
15161
14454
14284
13636
13425
13075
13095
12732
12914
12594
12849
12589
12811
12534
12777
12639
12897
12731
12772
12779
12795
12898
12795
12877
12709
12963
12721
12976
12645
12912
12644
12972
12823
13144
13122
13305
13181
13269
13242
13122
13218
13056
13255
13119
13331
13158
13510
13326
14537
15496
17066
17292
13976
11227
12090
12695
13176
13266
13313
13401
13325
13520
13346
13556
13391
13756
13476
13758
13558
13900
13769
14122
14079
14377
14503
14797
14972
15258
15109
15256
15056
14955
14670
14244
13943
13523
13323
12951
13064
12733
12890
12599
12875
12604
12906
12682
12945
12824
13015
12919
13025
12973
13014
13109
13024
13150
12941
13177
12878
13138
12830
13058
12856
13183
13008
13350
13169
13247
13093
13135
13093
13031
13130
12981
13207
13081
13418
13304
14602
15982
17420
16902
13437
10394
11760
12425
13066
13200
13343
13449
13435
13548
13447
13623
13420
13737
13526
13828
13565
13922
13820
14295
14281
14819
14858
15399
15299
15687
15405
15564
15267
15113
14640
14250
13768
13357
13135
12808
12787
12498
12622
12277
12549
12248
12534
12245
12511
12353
12546
12381
12555
12440
12517
12506
12372
12463
12306
12408
12254
12502
12222
12514
12350
12743
12530
12833
12677
12851
12612
12725
12658
12776
12791
12736
12922
12877
13204
14024
15844
16734
16943
13176
10537
11243
12324
12610
12999
12964
13216
13206
13208
13258
13285
13470
13553
13573
13698
13826
13872
14068
14135
14492
14558
14926
14907
15400
15238
15541
15239
15378
14916
14757
14141
13843
13353
13201
13018
12804
12798
12648
12784
12528
12731
12477
12797
12540
12873
12660
12925
12743
13022
12852
13019
12958
12996
12934
12841
12892
12807
13006
12760
13001
12879
13305
13116
13444
13238
13436
13136
13322
13113
13200
13103
13136
13104
13083
13256
13574
14803
16339
17538
15975
11804
11533
12465
12744
13164
13052
13447
13236
13499
13242
13572
13347
13562
13469
13634
13572
13702
13768
13862
14175
14353
14862
14995
15480
15383
15659
15354
15583
15098
15033
14456
14281
13707
13501
13121
13013
12944
12815
12862
12684
12862
12617
12870
12636
12909
12636
12951
12671
12979
12719
12892
12807
12940
12882
12926
12987
12892
12943
12739
12906
12680
13086
12944
13298
13068
13427
13182
13373
13121
13162
12922
13116
13019
13047
13061
13089
13366
13532
14998
16981
17823
15626
12057
11998
12731
12871
13192
12959
13237
12995
13332
13040
13349
13131
13369
13275
13470
13505
13667
13772
13876
14187
14187
14567
14553
15053
14945
15265
14951
15196
14754
14735
14155
13889
13339
13115
12741
12624
12552
12471
12517
12315
12518
12326
12617
12322
12596
12333
12616
12368
12647
12456
12622
12483
12630
12551
12517
12540
12436
12566
12475
12702
12537
12818
12517
12827
12576
12833
12618
12949
12920
13460
13294
13598
13291
13596
13332
13441
13172
13234
13165
13204
13252
13246
13494
13569
14493
15135
17129
17445
15515
12267
12790
13118
13686
13440
13663
13487
13602
13514
13566
13612
13578
13725
13605
13840
13681
14055
13888
14266
14130
14596
14536
14987
14983
15266
15152
15267
15163
15007
14771
14295
14015
13446
13324
12865
12976
12568
12803
12509
12854
12635
12921
12772
13017
12859
12902
12867
12893
12918
12813
12967
12822
12994
12931
13050
13019
13072
12962
13176
12941
13167
12890
13106
12808
13045
12792
13062
12863
12979
12790
12966
12949
13062
13131
13144
13238
13113
13291
13001
13237
12928
13170
12932
13180
12965
13216
13193
13766
14240
15551
16891
16610
12886
11760
12520
12948
13318
13198
13536
13261
13541
13309
13585
13366
13634
13504
13691
13627
13773
13766
13854
14064
14114
14421
14490
14885
14834
15145
14867
15018
14602
14690
14204
14108
13524
13278
12705
12822
12443
12589
12308
12518
12328
12459
12417
12449
12477
12385
12475
12311
12533
12321
12550
12413
12788
12529
12829
12619
12859
12684
12871
12738
12819
12815
12928
13013
12905
13043
12870
13066
12886
13181
12885
13190
12979
13370
13305
13605
13459
13646
13546
13650
13539
13500
13435
13333
13465
13307
13524
13350
13806
14358
15569
16637
17190
14914
11537
11891
12881
13356
13585
13658
13761
13864
13849
13978
13859
14101
13887
14199
14151
14378
14271
14570
14446
14819
14709
15184
15139
15580
15437
15725
15493
15612
15295
15105
14755
14350
13940
13486
13331
12974
13035
12704
12842
12509
12701
12357
12648
12419
12663
12535
12718
12615
12751
12685
12685
12740
12609
12762
12605
12782
12532
12819
12511
12766
12437
12677
12420
12684
12479
12737
12713
12862
12965
13059
13149
13030
13178
12904
13077
12868
13153
12895
13215
13028
13466
13695
15179
16668
16867
15635
11124
11404
12487
12903
13312
13315
13469
13492
13514
13657
13590
13773
13668
13910
13760
14100
13892
14182
14047
14482
14438
14865
14937
15350
15352
15528
15501
15415
15319
14949
14624
13933
13737
13120
13085
12613
12705
12303
12452
12152
12296
12127
12320
12256
12341
12360
12338
12455
12328
12555
12392
12616
12421
12722
12356
12593
12352
12628
12447
12648
12408
12443
12341
12434
12476
12551
12823
12860
13109
12944
13269
13046
13284
12891
13148
13070
13283
13027
13327
13182
13554
14208
15886
16783
17037
13385
11189
11851
12614
13061
13154
13310
13254
13448
13324
13646
13440
13732
13587
13930
13703
13973
13808
14144
14113
14439
14619
14891
15132
15357
15569
15504
15630
15334
15376
14832
14659
13929
13869
13347
13415
13077
13177
12932
13058
12964
12983
12998
12950
13015
12887
13095
12934
13194
12917
13248
12967
13267
13019
13260
12981
13080
12884
12982
12833
12770
12836
12897
12885
13128
13191
13311
13349
13290
13362
13122
13127
12924
13085
12776
12977
12771
13102
12950
13761
14602
16923
17827
15987
11975
12014
12649
13029
13310
13291
13579
13406
13716
13526
13909
13715
14043
13821
14135
14009
14290
14346
14616
14630
14862
15197
15408
15682
15687
15992
15796
16034
15509
15453
14661
14471
13730
13568
13006
12932
12695
12670
12552
12555
12552
12426
12557
12358
12573
12254
12463
12081
12375
12010
12204
11847
12179
11876
12133
11849
12238
11971
12357
12321
12660
12613
12763
12736
12773
12741
12645
12773
12630
12921
12688
12895
12643
13129
12971
14567
16304
17033
16474
12184
10614
11812
12452
12994
13293
13281
13541
13395
13618
13387
13709
13413
13824
13598
13961
13746
14069
14008
14362
14469
14812
15042
15339
15640
15705
15998
15731
15811
15330
15253
14488
14315
13566
13449
12844
12892
12524
12479
12233
12278
12280
12378
12597
12555
12755
13039
13061
13178
13271
13150
13315
13142
13356
13004
13256
12970
13242
12965
13344
13126
13391
13220
13311
13145
13118
12986
12908
12992
12898
13105
12904
13209
13139
13763
14736
16820
16616
16128
11271
11275
11950
12805
13050
13249
13374
13453
13571
13476
13695
13550
13855
13646
14025
13842
14171
13984
14385
14247
14616
14685
15097
15217
15415
15448
15402
15444
15097
14988
14342
14149
13429
13349
12722
12804
12412
12597
12265
12455
12217
12538
12262
12525
12302
12536
12376
12516
12436
12454
12509
12464
12586
12412
12612
12342
12525
12225
12569
12271
12624
12506
12919
12738
13057
12908
12994
12895
12889
12862
12828
12935
12778
13018
12833
13205
13349
14669
16054
17270
15618
11578
11412
12321
12774
13068
13139
13263
13353
13332
13476
13283
13558
13268
13565
13312
13657
13431
13760
13605
14057
14064
14497
14643
14976
15145
15256
15334
15193
15176
14736
14566
13924
13611
13311
13231
12882
12963
12632
12849
12531
12854
12581
12888
12572
12830
12657
12855
12689
12803
12753
12716
12744
12683
12799
12619
12761
12451
12814
12537
12895
12697
13103
12876
13231
13013
13224
13064
13117
13017
13058
13127
13047
13248
13199
13588
13438
14505
15701
17605
17488
14181
11768
12525
12931
13409
13420
13610
13656
13714
13851
13741
13919
13735
13979
13699
13936
13670
14003
13752
14073
13943
14370
14394
14799
14844
15204
15034
15275
14907
14792
14281
13884
13439
13117
12916
12639
12615
12325
12471
12182
12426
12125
12464
12206
12491
12257
12512
12371
12573
12530
12647
12696
12760
12860
12714
12902
12731
12931
12652
12874
12560
12840
12549
12741
12406
12658
12585
12844
12914
13073
13096
13126
13230
13113
13225
12936
13145
12772
13066
12802
13137
12947
13415
13437
14325
15271
17028
17091
14252
12019
12269
12971
13088
13388
13265
13552
13368
13708
13577
13832
13670
13971
13738
14022
13801
14118
13918
14411
14406
14664
14598
14950
15047
15085
15093
14972
14970
14514
14370
13751
13581
12983
12985
12518
12790
12473
12718
12591
12857
12774
12995
13003
13038
13092
12992
13086
12763
12880
12730
12758
12659
12688
12627
12745
12750
12824
12820
12833
12958
13073
13219
13379
13525
13446
13510
13448
13539
13379
13360
13175
13189
13069
13129
13178
13255
13369
13488
14189
15188
16997
17494
13292
12051
12633
13251
13529
13614
13743
13696
13797
13730
13835
13797
13945
13977
14118
14062
14113
14126
14175
14269
14420
14646
14838
15108
15199
15432
15355
15437
15222
15103
14637
14352
13848
13520
13133
12894
12743
12681
12670
12624
12678
12633
12756
12633
12737
12641
12850
12747
12869
12696
12791
12717
12791
12722
12706
12612
12584
12621
12594
12625
12460
12522
12482
12682
12669
12868
12748
12886
12693
12727
12534
12585
12436
12579
12552
12769
12710
12854
12887
13182
13787
15219
16888
16564
12471
11006
11812
12436
12869
12861
13137
13039
13267
13129
13328
13260
13387
13283
13383
13405
13515
13614
13775
13969
14139
14454
14639
15014
15091
15335
15227
15359
15132
15101
14702
14414
13879
13524
13116
12896
12723
12618
12611
12548
12691
12612
12749
12600
12814
12684
12838
12667
12796
12658
12849
12828
12936
12977
13029
12982
12893
12870
12792
12845
12782
12908
12914
13137
13207
13382
13326
13411
13219
13350
13120
13247
13110
13284
13182
13299
13190
13422
13649
14622
16286
17009
16214
11360
11090
11896
12790
13022
13288
13260
13537
13440
13631
13559
13750
13715
13822
13839
13947
14075
14179
14409
14536
14894
15039
15438
15516
15912
15811
15954
15661
15701
15342
15082
14618
14272
13830
13506
13220
13029
12882
12645
12699
12534
12665
12486
12684
12503
12719
12585
12778
12643
12780
12781
12831
12650
12815
12683
12787
12749
12840
12871
12937
12966
12919
12957
12808
12864
12707
12838
12723
12925
12754
12982
13026
13316
14304
16110
17023
16921
13044
10119
10828
11449
12006
12131
12401
12365
12593
12474
12599
12515
12754
12639
12785
12719
13013
12982
13148
13354
13522
13759
13935
14195
14280
14366
14174
14207
14002
13888
13582
13379
13013
12781
12519
12505
12365
12307
12228
12115
12015
11919
11925
11897
12096
12110
12297
12258
12450
12548
12778
12711
12752
12627
12608
12416
12338
12208
12299
12303
12473
12578
12739
12796
12779
12745
12781
12968
13017
13310
13271
13674
13674
14264
15155
17162
17523
17373
12606
12140
12854
13767
13975
14096
14099
14230
14285
14250
14407
14271
14548
14302
14654
14430
14868
14614
15048
14991
15383
15395
15825
15935
16178
16225
16136
16138
15855
15763
15189
14976
14222
14077
13428
13526
13011
13102
12728
12876
12682
12752
12628
12734
12661
12950
12839
13001
12851
12959
12949
12840
12830
12678
12813
12659
12943
12732
13048
12830
13072
12741
12931
12581
12704
12539
12678
12567
12659
12719
12795
12974
13740
15324
16371
16935
13199
11045
11510
12445
12599
12991
12886
13224
13139
13270
13264
13375
13402
13385
13575
13491
13767
13630
13982
13914
14371
14339
14908
14872
15283
15188
15345
15201
15209
14933
14679
14221
13731
13497
13096
13065
12713
12868
12520
12738
12485
12765
12567
12821
12522
12818
12583
12894
12622
12843
12642
12857
12698
12724
12656
12704
12744
12769
12989
12889
13160
13012
13260
12996
13167
12797
13072
12843
13097
12898
13124
13068
13327
13775
14657
16238
17208
16247
11711
11858
12376
13143
12993
13345
13083
13370
13134
13395
13215
13427
13321
13449
13529
13583
13739
13769
14050
13985
14360
14300
14820
14756
15171
14925
15128
14880
14991
14491
14350
13846
13519
13131
12879
12830
12720
12595
12645
12505
12487
12594
12467
12649
12488
12735
12516
12781
12500
12814
12538
12811
12516
12763
12550
12725
12656
12671
12632
12574
12679
12685
12990
12859
13218
13002
13235
12975
13243
12917
13119
12873
13082
12929
13091
13113
13255
14024
15169
16822
17187
14393
11426
12238
12612
13337
13207
13573
13395
13662
13472
13647
13531
13694
13639
13734
13856
13857
14064
14055
14369
14344
14770
14733
15295
15255
15632
15439
15654
15275
15389
14794
14616
13878
13706
13148
13034
12656
12662
12498
12494
12503
12417
12555
12404
12623
12457
12709
12488
12755
12497
12776
12522
12799
12587
12720
12554
12656
12614
12616
12636
12475
12632
12560
12836
12752
13081
12856
13224
12946
13199
12890
13078
12848
13017
12914
13029
13046
13063
13226
13201
14159
15177
16962
17188
14374
11479
12336
12763
13439
13306
13648
13622
13847
13813
13897
13954
14014
14118
14061
14255
14079
16540
16629
16971
16867
16969
16689
16590
16325
15996
15598
14932
14509
13871
13644
13091
13183
12801
12985
12634
12883
12593
12690
12536
12628
12455
12427
