13491
13667
13196
13517
13107
13118
13115
12954
13336
12885
13378
12727
13489
12711
13480
12555
13244
12458
13227
12629
13339
12920
13282
13092
13208
13341
13105
13419
12868
13432
12738
13496
12741
13608
12866
13920
13804
15467
16651
17785
15370
12427
12494
13087
13566
13325
13773
13206
13818
13068
13804
13019
13878
13141
13978
13338
14049
13608
14184
14029
14373
14429
14518
14972
14868
15533
15060
15817
15071
15734
14728
15203
13980
14296
13022
13519
12504
13195
12255
12969
12196
12796
12279
12751
12394
12583
12535
12470
12637
12263
12735
12131
12793
12052
12857
12033
12862
12104
12882
12206
12799
12311
12744
12512
12670
12671
12462
12804
12484
13219
12760
13536
12832
13634
12792
13569
12748
13394
12633
13226
12850
13199
13055
13180
13425
13515
14606
15191
17026
15979
13372
11202
12772
12699
13799
13119
13824
13246
13786
13410
13648
13612
13719
13964
13655
14152
13632
13928
14017
14232
14124
14670
14360
15201
14676
15566
14862
15684
14820
15478
14440
14763
13735
13835
13086
13044
12738
12543
12609
12186
12587
12017
12758
12047
12827
12009
12823
12002
12809
12139
12859
12347
12808
12538
12758
12731
12620
12895
12475
13003
12419
13189
12417
13209
12418
13255
12423
13109
12462
13143
12848
13368
13192
13352
13425
13302
13674
13183
13608
12857
13541
12710
13522
12677
13566
12987
14313
14570
16501
16293
13600
10896
12425
12524
13486
13084
13480
13248
13389
13503
13298
13703
13269
13901
13274
14074
13416
14305
13608
14609
14063
14979
14570
15417
15157
15614
15512
15479
15581
15184
15342
14466
14706
13593
13941
12792
13299
12283
12936
12116
12740
12191
12646
12308
12543
12488
12440
12722
12408
12892
12301
12945
12250
13028
12221
13027
12223
12976
12286
12938
12381
12787
12571
12844
13189
13201
13354
12887
13444
12827
13448
12611
13321
12693
13237
12718
13469
12765
13650
12962
14854
15616
17430
16297
13486
10467
11974
12512
13227
13369
13313
13649
13286
13852
13196
13958
13227
14100
13325
14181
13452
14322
13725
14455
14163
14742
14727
15068
15384
15316
15778
15264
15813
15002
15515
14354
14730
13427
13842
12709
13183
12377
12742
12224
12392
12190
12161
12441
12202
12715
12252
12967
12296
13142
12332
13196
12357
13189
12479
13152
12563
13018
12684
12932
12810
12736
12505
13147
12896
13315
13266
13328
13487
13132
13476
12786
13428
12667
13521
12753
13658
12913
13863
13394
15017
15874
17382
16504
12572
11515
12251
13190
13131
13763
13215
13945
13159
13998
13170
14052
13249
14079
13378
14072
13591
14049
13854
14109
14238
14256
14764
14536
15268
14765
15503
14650
15395
14392
14944
13795
14182
13086
13273
12541
12736
12411
12404
12453
12208
12665
12221
12917
12264
13102
12324
13188
12423
13304
12557
13392
12645
13455
12584
13404
12612
13349
12684
13245
12745
13050
12862
12820
12953
12776
13291
12957
13629
12959
13687
12866
13707
12801
13562
12677
13343
12772
13361
13029
13306
13312
13507
14459
15323
17126
16370
13790
11330
12717
12508
13574
12814
13664
12968
13601
13034
13470
13229
13482
13483
13450
13819
13513
14122
13577
14421
13788
14772
14136
15129
14506
15389
14752
15335
14798
15046
14581
14368
13998
13407
13386
12637
12994
12170
12580
12425
12675
12229
12737
12047
12811
12028
12828
12037
12851
12080
12832
12223
12828
12355
12745
12533
12642
12753
12593
12953
12517
13119
12480
13166
12402
13229
12587
13479
12871
13602
13054
13562
13168
13449
13250
13119
13198
12977
13362
12912
13514
12922
13818
13824
15518
16219
17213
14442
12064
11918
13107
13229
13561
13543
13566
13776
13560
14026
13480
14107
13433
14199
13486
14248
13537
14312
13741
14497
14213
14879
14865
15648
15155
15838
15289
15668
15148
15111
14650
14179
13913
13162
13273
12532
12986
12178
12867
12127
12895
12211
12913
12332
12966
12460
12830
12599
12731
12723
12658
12998
12598
13094
12481
13130
12411
13196
12471
13200
12452
13115
12484
12931
12610
13035
13007
13183
13254
13128
13470
13056
13570
12944
13517
12713
13433
12697
13423
12812
13504
13133
14151
14599
16231
16697
15568
11883
11533
12755
12940
13686
13144
13898
13132
13860
13372
13935
13400
14092
13388
14124
13465
14252
13708
14402
14021
14622
14432
14908
14936
15062
15250
15046
15347
14779
15092
14132
14368
13275
13546
12542
12928
12162
12640
12069
12473
12176
12449
12393
12393
12586
12363
12787
12369
12934
12339
12977
12306
12993
12317
12954
12393
12885
12450
12859
12632
12752
12646
12496
12807
12457
13008
12656
13308
12702
13407
12738
13362
12645
13181
12568
13123
12743
13077
12878
13043
13292
13634
14938
16728
16597
14054
11191
11805
12835
12933
13454
13090
13751
13144
13812
13186
13863
13243
13903
13379
13883
13582
13995
13939
14131
14349
14365
14838
14710
15367
14996
15634
15022
15569
14793
15259
14350
14566
13708
13767
13148
13157
12821
12719
12786
12548
12918
12492
12976
12448
13121
12577
13172
12531
13126
12546
13063
12590
12991
12680
12842
12747
12667
12816
12622
13024
12605
13120
12454
13077
12463
13157
12734
13419
12898
13514
12954
13642
12873
13444
12869
13336
12896
13259
13059
13247
13426
13692
14793
16089
17095
16291
12485
11255
12635
12994
13808
13472
14455
14537
15276
15071
15516
15372
15581
15508
15505
15552
15359
15667
15366
15895
15435
16089
15621
16440
16001
16613
16004
16366
15785
15897
15400
15142
14692
14060
13828
13224
13308
12670
13077
12286
12834
12201
12794
12200
12825
12319
12752
12364
12687
12391
12490
12494
12290
12567
12263
12546
12333
12379
12206
12358
12146
12600
12224
12785
12204
12736
12104
12649
12009
12588
12064
12496
12131
12448
12392
12736
14085
15650
16222
15026
11129
9691
11545
11844
13006
12431
13141
12676
13384
13008
13398
13114
13350
13407
13428
13721
13580
14102
13723
14483
14003
14912
14462
15406
15003
15756
15226
15681
15107
15292
14743
14477
14124
13606
13484
12848
13038
12377
12836
12109
12670
12014
12622
12080
12686
12213
12743
12435
12704
12569
12947
12455
12949
12625
12942
12744
12837
12891
12775
13016
12788
13299
12882
13467
12940
13558
12911
13492
12881
13453
12997
13454
13198
13491
13363
13511
14293
15220
16749
16699
14675
10931
12180
12373
13433
12986
13593
13130
13463
13193
13543
13320
13623
13524
13676
13815
13864
14112
14004
14386
14276
14838
14730
15347
15068
15501
15164
15526
15078
15172
14613
14407
13822
13438
13080
12708
12690
12304
12420
12081
12474
12084
12504
12172
12467
12148
12518
12136
12483
12078
12603
12233
12761
12438
12680
12468
12664
12545
12464
12494
12303
12513
12285
12770
12405
12884
12469
12984
12493
12919
12441
12866
12546
12832
12680
12818
12877
12960
13752
14762
16796
17246
15413
11518
12153
12270
13007
12711
13188
12845
13209
12982
13243
13139
13306
13354
13362
13522
13486
13777
13668
14174
14043
14565
14425
15046
14910
15430
15135
15458
15157
15303
14924
14649
14185
13695
13133
13100
12695
12687
12486
12389
12463
12294
12566
12304
12613
12251
12656
12257
12666
12327
12681
12354
12695
12402
12727
12632
12773
12758
12629
12776
12677
13004
12856
13268
13037
13456
13164
13600
13049
13415
12967
13264
13068
13266
13283
13289
13565
13541
14622
15318
17351
17275
14998
11873
12883
12962
13731
13300
13785
13437
13782
13566
13687
13696
13640
13865
13660
14021
13641
14142
13681
14296
13894
14610
14309
15016
14708
15383
14892
15446
14873
15203
14461
14440
13688
13567
13030
12898
12640
12368
12513
12313
12661
12226
12721
12255
12839
12347
12939
12413
12937
12501
12927
12628
12792
12719
12780
12903
12830
13066
12700
13017
12618
13100
12637
13244
12874
13483
13028
13510
13123
13431
13037
13166
13013
13084
13142
13019
13363
13095
13725
14098
15704
16681
17392
13591
11976
12143
13291
13203
13612
13376
13572
13541
13617
13784
13601
13930
13592
14055
13975
14136
14046
14395
14180
14724
14505
15191
14829
15533
15067
15598
15068
15443
14911
14962
14278
14017
13548
13224
13119
12743
12809
12345
12783
12291
12811
12285
12802
12235
12767
12278
12767
12406
12740
12607
12730
12675
12631
12810
12593
12946
12519
12960
12353
12799
12267
12886
12439
13140
12737
13202
12868
13123
12839
12895
12811
12751
12980
12704
13112
12738
13354
13066
14291
14960
16977
16819
15634
11055
11980
12473
13279
15028
14892
15111
14557
14882
14234
14696
14049
14632
13991
14605
14120
14677
14484
14943
14849
15068
15065
14957
15079
14667
14801
14033
14162
13161
13387
12505
12875
12173
12585
12049
12501
12192
12476
12288
12394
12415
12370
12610
12306
12708
12271
12827
12270
12867
12235
12747
12143
12694
12284
12708
12514
12845
12742
12822
12874
12680
12907
12525
12836
12336
12875
12325
12912
12471
13179
12929
14058
15023
16967
16589
14848
10602
11974
12403
13321
13230
13555
13501
13561
13624
13439
13703
13366
13827
13403
14014
13626
14339
13886
14578
14245
14912
14661
15206
15041
15325
15293
15240
15221
14881
14937
14185
14155
13251
13397
12614
12925
12188
12596
12044
12468
12086
12431
12249
12441
12453
12424
12597
12438
12766
12371
12832
12330
12924
12379
12935
12420
12935
12431
12887
12562
12879
12739
12982
13100
13036
13320
13032
13324
12816
13194
12609
13126
12616
13197
12701
13360
13032
14256
14886
17200
17306
15480
11763
12512
12738
13289
13183
13299
13364
13288
13452
13185
13549
13117
13628
13166
13742
13306
13931
13458
14056
13772
14338
14234
14730
14772
14977
15072
14910
15108
14693
14916
14132
14224
13307
13508
12683
12994
12388
12790
12355
12706
12463
12673
12626
12675
12778
12629
12928
12585
12995
12505
13027
12500
13073
12568
13099
12600
13082
12686
12932
12657
12785
12692
12773
13080
12920
13337
13312
13273
13258
13300
13022
13202
12816
13210
12736
13265
12870
13611
13805
15248
16385
17173
14227
11885
12073
12872
13097
13111
13303
13090
13425
13068
13472
13015
13628
13177
13749
13337
13913
13550
14115
13949
14446
14470
14852
15113
15258
15558
15363
15682
15215
15504
14785
14970
14054
14138
13275
13409
12706
12884
12510
12629
12452
12517
12533
12452
12724
12476
12899
12479
12996
12456
12917
12395
12931
12411
12910
12502
12849
12440
13044
12536
12961
12406
12735
12483
12798
12841
13021
13067
12970
13229
12999
13326
12822
13184
12625
13170
12649
13204
12721
13349
13144
14265
15046
16659
16488
13332
11469
12061
13086
13116
13588
13198
13714
13218
13803
13301
13769
13340
13848
13506
13888
13746
14016
14049
14210
14481
14409
14827
14688
15259
14838
15372
14845
15373
14765
15018
14198
14201
13428
13320
12794
12753
12563
12429
12529
12277
12589
12178
12614
12218
12565
12468
12836
12522
12982
12495
13029
12508
13079
12566
13042
12535
12945
12554
12793
12503
12582
12543
12535
12725
12618
13037
12674
13142
12652
13208
12665
13163
12564
13096
12655
13086
12798
13149
13146
13704
14780
16132
17032
15949
11940
11163
12595
12815
13653
13133
13747
13297
13897
13524
13992
13693
14012
13970
14076
14146
14110
14477
14259
14797
14517
15223
14906
15626
15242
15824
15305
15815
15244
15439
14886
14742
14217
14027
13341
13489
12974
13105
12782
12787
12762
12616
12797
12495
12855
12482
12992
12444
13053
12506
13100
12503
12977
12518
12910
12525
12783
12677
12680
12758
12703
13085
12907
13303
12865
13323
12737
13210
12600
13127
12632
13147
12773
13174
13175
13934
15132
16698
16742
14872
10795
10873
12309
12491
13395
12929
13661
13100
13695
13193
13760
13355
13764
13508
13676
13636
13663
13935
13797
14333
14090
14841
14461
15275
14749
15533
14920
15361
14727
15063
13990
14132
13068
13298
12482
12822
12331
12630
12360
12553
12490
12461
12669
12418
12904
12543
13063
12509
13091
12556
13207
12634
13208
12681
13178
12756
13031
12762
12815
12769
12686
12921
12752
13254
12894
13534
13019
13578
12931
13455
12799
13215
12689
13142
12817
13096
13027
13337
14177
15316
17054
16896
13706
11302
12495
12661
13555
12988
13638
13095
13573
13099
13478
13213
13515
13411
13457
13514
13383
13472
13948
13930
14208
14437
14511
14925
14770
15244
14822
15318
14652
15027
14072
14212
13251
13374
12618
12855
12441
12638
12527
12604
12685
12568
12873
12506
12993
12555
13107
12507
13135
12576
13181
12637
13178
12812
13234
12925
13180
13011
12965
12960
12718
12977
12648
13205
12851
13455
12962
13595
13024
13521
12951
13323
12871
13235
12987
13188
13198
13272
13602
13961
15111
16542
17755
15256
12062
11644
12867
12741
13314
12872
13367
13014
13642
13154
13676
13151
13606
13235
13636
13491
13783
13849
13950
14274
14267
14738
14555
15233
14827
15436
14905
15446
14788
15086
14257
14273
13487
13480
13083
12992
12831
12708
12847
12602
12887
12442
12960
12472
12950
12422
12933
12421
12973
12556
12988
12673
12947
12782
12871
12842
12748
12901
12616
13002
12519
12974
12560
13249
12967
13602
13082
13552
13205
13601
13236
13479
13306
13322
13381
13248
13442
13117
13624
13495
14884
16412
17480
15572
11893
11599
12852
12914
13555
13077
13626
13200
13734
13369
13803
13471
13710
13605
13719
13811
13717
13957
13782
14287
13977
14623
14346
15018
14603
15195
14769
15174
14658
14825
14255
14013
13488
13191
13005
12660
12837
12413
12800
12394
12922
12395
12940
12443
12912
12421
12874
12511
12876
12654
12798
12706
12721
12851
12679
12986
12531
12880
12383
12886
12361
13038
12675
13265
12882
13381
12994
13204
12888
13202
12757
13199
12780
13112
12880
13283
13505
14699
16435
16773
16166
11080
11172
11675
12959
12763
13374
12904
13496
12980
13480
13187
13602
13455
13675
13697
13736
13978
13789
14195
13946
14585
14256
14991
14723
15448
15106
15713
15244
15591
14987
14942
14313
14025
13579
13117
13032
12566
12792
12291
12705
12123
12623
12165
12789
12291
12825
12400
12784
12465
12736
12534
12690
12710
12619
12810
12418
12711
12326
12822
12253
12905
12736
13217
12912
13406
12874
13393
12762
13239
12719
13233
12833
13328
13035
13512
13703
14910
16491
17037
16773
11962
11582
12082
13313
13146
13792
13330
13910
13415
13892
13480
13866
13609
13820
13764
13820
13966
13903
14265
14031
14607
14379
15072
14753
15465
15000
15551
15018
15409
14835
14850
14183
13961
13452
13101
12939
12587
12801
12384
12693
12166
12732
12173
12725
12249
12827
12364
12806
12433
12758
12582
12753
12698
12646
12550
12994
12712
12786
12691
12673
12801
12708
13108
12804
13246
12758
13223
12637
13139
12534
13055
12584
13044
12653
13010
12882
13186
13937
14983
16674
17042
14675
11168
12210
12455
13418
13033
13628
13137
13628
13221
13640
13299
13622
13417
13559
13624
13637
13896
13754
14234
13915
14445
14141
14933
14650
15339
14952
15334
14846
15102
14571
14507
13936
13733
13592
13035
12863
12597
12780
12314
12765
12316
12850
12368
12847
12467
13115
12769
13267
12827
13399
12985
13381
13052
13453
13177
13430
13376
13302
13241
13016
13132
12747
13061
12671
13268
12820
13199
12941
13266
12929
13226
12840
13014
12750
12978
12835
12956
12915
13084
13397
14045
15359
16645
17095
14232
11846
11987
12963
12994
13401
13212
13512
13373
13578
13457
13631
13673
13678
13872
13875
14087
14026
14344
14235
14706
14520
15104
15036
15568
15456
15747
15546
15766
15533
15174
14828
14419
14138
13642
13306
13210
13012
12841
12841
12630
12751
12583
12865
12699
12942
12662
12906
12514
12716
12380
12536
12301
12328
12261
12283
12214
12188
12324
12363
12567
12317
12489
12111
12438
12358
12846
12689
13114
12922
13331
13493
13602
13561
13531
13479
13453
13628
13557
13708
13521
13997
14329
15274
16296
16862
14833
11782
11752
12637
12943
13074
13023
12998
13008
12907
13061
12936
13145
12960
13172
13003
13322
13079
13357
13173
13558
13540
14103
14139
14593
14486
14741
14577
14748
14475
14369
14031
13682
13388
13016
12908
12567
12605
12312
12515
12231
12467
12246
12527
12313
12581
12450
12623
12482
12579
12627
12612
12682
12671
12863
12761
13029
12867
13174
12902
13168
12937
13196
12923
13127
12957
13090
13037
13140
13208
13372
13509
13430
13657
13445
13580
13303
13514
13118
13331
13070
13356
13221
13490
13540
13979
14955
16518
17252
16786
12991
11901
12904
13337
13894
13850
14027
13936
14092
13916
14143
14042
14348
14148
14446
14223
14505
14339
14645
14583
14860
14924
15097
15225
15286
15444
15240
15376
15083
15103
14556
14405
13729
13644
13041
13002
12649
12708
12500
12572
12471
12419
12442
12370
12551
12455
12712
12558
12876
12688
12969
12720
13002
12771
13084
12961
13128
12962
13012
12909
12941
12996
12834
13053
13025
13396
13248
13558
13263
13423
13079
13277
13040
13256
13032
13225
13166
13277
13344
14258
15381
17022
16826
15025
10864
11486
12349
12833
13190
13033
13303
13156
13420
13196
13511
13302
13577
13426
13775
13618
13822
13821
14064
14169
14311
14563
14733
15055
15039
15359
15141
15282
14823
14853
14234
13993
13292
13175
12727
12620
12358
12332
12225
12194
12182
12080
12294
12175
12413
12260
12556
12399
12726
12514
12774
12623
12832
12725
12861
12765
12799
12804
12779
12904
12815
12961
12797
13048
12810
13016
12766
12932
12841
13091
13063
13369
13148
13385
13161
13378
13117
13318
13058
13154
13114
13213
13247
13240
13469
13572
14678
15906
17094
16548
13180
11531
12516
12982
13473
13323
13552
13474
13617
13566
13631
13697
13685
13783
13706
13906
13750
13989
13806
14147
14082
14544
14544
15049
15030
15320
15262
15352
15250
15128
14927
14468
14150
13603
13371
12942
12950
12591
12750
12446
12566
12283
12504
12311
12435
12280
12362
12378
12334
12391
12639
12538
12645
12572
12552
12559
12433
12552
12422
12637
12446
12596
12343
12602
12344
12560
12322
12586
12559
12957
12936
13089
13121
13135
13191
13027
13077
12849
13013
12796
13061
12856
13126
13033
13651
14286
15957
16684
16201
12258
11793
12484
13032
13283
13280
13496
13340
13561
13302
13528
13330
13638
13474
13742
13581
13836
13730
13955
14023
14277
14443
14621
14928
15037
15301
15134
15288
15040
15129
14568
14469
13817
13634
13031
13105
12736
12821
12518
12784
12559
12779
12611
12743
12665
12719
12804
12722
12788
12683
12910
12778
13025
12790
13072
12850
13151
12982
13201
13007
13216
13093
13222
13192
13181
13144
13001
13033
12971
13208
13190
13480
13297
13590
13330
13626
13382
13485
13112
13195
12966
13061
13023
13065
13278
13413
14377
15291
16732
16505
13992
11445
12279
12733
13296
13144
13448
13318
13557
13453
13535
13536
13552
13603
13583
13813
13733
13895
14052
14205
14256
14562
14681
15087
15114
15459
15266
15458
15127
15227
14779
14593
13967
13681
13262
13032
12777
12615
12544
12382
12478
12345
12534
12370
12577
12381
12686
12464
12655
12509
12717
12597
12769
12708
12726
12690
12630
12674
12612
12776
12650
12799
12575
12748
12517
12737
12539
12694
12476
12722
12682
12961
12968
13115
13191
13201
13354
13204
13340
13151
13327
13099
13290
13080
13371
13324
13950
14622
15984
16845
16501
11938
12239
12800
13473
13485
13633
13636
13678
13677
13666
13788
13692
13818
13668
13962
13805
14031
13839
14152
14019
14341
14384
14806
14895
15185
15221
15251
15202
15068
15029
14625
14336
13759
13564
13029
12963
12511
12631
12419
12567
12315
12515
12420
12532
12494
12548
12645
12600
12713
12505
12667
12477
12726
12495
12731
12442
12696
12438
12713
12569
12833
12795
12910
12853
12855
12935
12904
13012
12813
13030
12821
13123
12948
13211
13180
13384
13226
13467
13220
13366
13017
13291
13095
13295
13138
13397
13472
14308
15224
16402
16321
13681
11335
11902
12983
13263
13633
13455
13693
13463
13687
13452
13682
13495
13614
13549
13641
13700
13761
13856
13849
14153
14148
14625
14646
15070
14977
15323
15087
15262
14942
14900
14407
14175
13753
13469
13184
12916
12854
12590
12670
12468
12660
12469
12740
12543
12859
12664
12832
12717
12964
12856
12986
12975
12971
13028
13142
13038
13151
13065
13075
13055
12921
13052
12958
13159
13087
13445
13238
13577
13400
13606
13336
13458
13242
13369
13238
13333
13257
13393
13505
13669
14899
16350
17198
16403
12712
10772
12147
12806
13571
13426
13640
13526
13685
13626
13710
13675
13745
13768
13767
13978
13926
14124
14026
14326
14216
14621
14636
15021
14990
15314
15177
15260
15017
14937
14639
14272
13864
13342
13113
12626
12546
12202
12303
12013
12191
12052
12290
12165
12489
12300
12628
12457
12712
12524
12753
12619
12780
12775
12939
12860
12771
12794
12619
12701
12520
12699
12541
12779
12659
13011
12907
13167
12952
13102
12872
12983
12962
12977
13031
13030
13119
13269
14031
14998
16532
16089
14662
10559
11332
12137
13147
13254
13543
13518
13658
13584
13625
13664
13647
13734
13631
13887
13731
14018
13964
14333
14168
14633
14634
15069
15145
15444
15401
15493
15365
15161
14997
14599
14323
13747
13344
13124
12971
12747
12779
12524
12605
12349
12536
12287
12604
12344
12663
12551
12801
12622
12829
12765
12813
12803
12774
12939
12860
13027
12861
13162
12931
13067
12805
12941
12682
12993
12900
13202
13185
13457
13478
13621
13689
13525
13456
13184
13301
13071
13267
13077
13398
13258
13784
14449
15960
16929
16813
13532
11588
12147
12820
13162
13225
13446
13315
13492
13329
13621
13370
13649
13417
13688
13503
13820
13700
13923
13862
14289
14284
14729
14639
14929
14852
14962
14888
14837
14744
14411
14137
13616
13435
12899
12930
12565
12767
12463
12701
12510
12765
12661
12856
12724
12825
12822
12874
12897
12840
13004
12934
13124
12921
13157
12940
13221
13018
13258
12989
13180
13003
13127
13010
13020
13019
13053
13264
13315
13525
13412
13613
13454
13729
13409
13573
13211
13422
13269
13495
13281
13470
13559
14274
15140
16541
17034
15422
12009
11731
12631
12802
13259
13247
13567
13427
13681
13382
13625
13395
13739
13542
13851
13669
13936
13871
14159
14238
14439
14638
14868
15135
15100
15255
14955
15105
14813
14927
14375
14227
13588
13450
12945
12912
12567
12603
12494
12493
12538
12436
12517
12386
12598
12427
12693
12367
12600
12342
12606
12393
12651
12469
12642
12536
12594
12474
12492
12552
12544
12759
12580
12734
12468
12729
12592
12946
12912
13247
13061
13318
13100
13311
13239
13322
13227
13242
13375
13489
13387
13510
13642
14222
15028
16139
16812
15574
12100
11579
12660
13038
13468
13290
13603
13391
13650
13477
13650
13539
13648
13691
13748
13844
13794
14074
14001
14351
14292
14735
14680
15143
15029
15339
15146
15307
15037
15064
14740
14467
14118
13712
13509
13077
13016
12654
12762
12445
12633
12415
12749
12507
12722
12575
12833
12644
12684
12616
12611
12584
12589
12704
12570
12777
12464
12627
12393
12708
12437
12698
12386
12616
12404
12729
12427
12664
12504
12868
12895
13217
13125
13217
13169
13208
13223
13090
13122
12947
13171
13043
13338
13046
13480
13596
14777
15634
16575
15719
12423
11249
12230
13037
13354
13540
13532
13650
13509
13791
13654
14012
13733
14045
13869
14203
14055
14393
14315
14656
14721
14923
15112
15281
15517
15452
15605
15352
15535
15118
15129
14494
14354
13711
13619
13146
13166
12785
12764
12546
12553
12533
12500
12647
12490
12620
12369
12529
12493
12577
12523
12807
12633
12816
12519
12758
12476
12721
12443
12714
12528
12751
12592
12712
12612
12603
12573
12619
12845
12936
13186
13036
13348
13188
13475
13191
13392
13019
13183
12935
13130
13007
13176
13222
13485
14527
15462
16492
15966
13379
10930
12018
12688
13397
13235
13619
13444
13729
13577
13824
13716
13909
13947
14001
14090
14060
14293
14227
14610
14546
14950
14916
15445
15421
15806
15610
15852
15533
15539
15187
14956
14359
14218
13645
13494
13092
12992
12819
12745
12713
12563
12632
12408
12694
12453
12722
12490
12794
12506
12826
12589
12811
12596
12789
12729
12741
12732
12748
12860
12744
12759
12514
12770
12525
12878
12692
13150
12961
13267
12965
13087
12849
12896
12822
12937
12971
12969
13090
13037
13362
13885
15431
16553
16091
13583
10228
10941
12294
12848
13317
13226
13451
13421
13521
13473
13513
13578
13517
13704
13616
13872
13757
14067
14147
14484
14563
14958
14955
15391
15308
15514
15199
15351
14936
14820
14260
14036
13503
13251
12954
12710
12606
12402
12459
12255
12414
12242
12522
12315
12676
12458
12812
12655
12945
12772
12910
12798
12848
12830
12754
12823
12771
12870
12683
12945
12734
12990
12745
13059
12884
13234
13072
13367
13282
13433
13360
13359
13293
13185
13208
13100
13272
13113
13407
13344
13938
14672
16334
17110
16805
12620
11720
12435
13314
13501
13610
13578
13865
13728
13673
13492
13573
13649
13703
13862
13722
13963
13868
14253
14091
14481
14416
14846
14809
15206
15051
15249
15046
15031
14725
14406
14057
13579
13314
12882
12786
12369
12527
12288
12555
12294
12607
12371
12586
12445
12685
12626
12722
12691
12696
12774
12618
12710
12582
12709
12479
12771
12484
12765
12504
12713
12452
12658
12508
12693
12799
12974
13034
13018
13112
12893
12936
12752
12896
12659
12840
12635
12949
12761
18282
16646
12605
12606
13369
13918
13895
13978
13755
13776
13449
13579
13264
13515
13313
13520
13305
13638
13572
13834
13877
14042
14127
14262
14538
14633
14930
14845
15025
14744
14892
14491
14490
13934
13798
13168
12986
12517
12447
12231
12169
12117
12082
12249
12209
12434
12250
12527
12383
12696
12445
12752
12514
12813
12597
12771
12653
12737
12701
12754
12792
12673
12680
12508
12711
12625
13082
13031
13419
13257
13545
13365
13579
13299
13481
13284
13569
13301
13558
13389
13691
14081
15257
16744
17433
16100
11706
11971
12651
13547
13446
14135
14233
14802
14689
15047
14913
15177
15064
15170
15110
15233
15262
15165
15293
15196
15635
15636
16104
16008
16451
16242
16474
16033
16137
15699
15556
15008
14640
14121
13789
13575
13289
13246
12909
13055
12745
12968
12712
13012
12676
12923
12670
12945
12744
12885
12679
12776
12667
12627
12628
12434
12510
12425
12635
12423
12785
12839
13053
12995
13227
13016
13191
12785
12967
12619
12885
12639
12938
12709
13003
13158
14616
16117
16414
15555
10781
10251
11209
12243
12483
12895
12733
13146
12913
13212
13020
13414
13301
13562
13479
13608
13634
13687
13847
13930
14275
14324
14794
14735
15159
14997
15313
14889
15058
14681
14621
14060
13814
13293
13097
12845
12635
12625
12452
12588
12317
12601
12323
12611
12342
12674
12441
12731
12520
12688
12501
12663
12595
12637
12446
12704
12516
12653
12596
12731
12809
12800
12943
12778
12972
12690
12850
12518
12752
12481
12767
12564
12929
13000
14104
15030
16206
16233
13582
10610
11461
12447
12847
13201
13125
13467
13267
13598
13400
13741
13553
13824
13631
13851
13789
13939
13963
14110
14306
14413
14786
14840
15221
15104
15297
14987
15153
14769
14715
14109
13962
13383
13234
12913
12852
12689
12499
12504
12410
12597
12427
12655
12472
12728
12548
12835
12622
12953
12832
13051
12817
13005
12652
12882
12684
12887
12795
13069
13097
13232
13263
13211
13213
12999
13094
12851
12983
12716
12930
12695
12983
12903
13457
14127
15631
16521
16216
12047
11385
12154
12733
12973
12909
13199
13040
13275
13116
13407
13174
13500
13274
13609
13532
13831
13776
14019
14123
14296
14526
14653
14986
14951
15243
15060
15232
14854
14865
14350
14211
13626
13524
13088
13022
12798
12789
12714
12713
12761
12660
12823
12844
12906
12901
12948
12876
12984
12826
13016
12822
13051
12698
12924
12698
12978
12824
13168
13107
13262
13218
13272
13193
13139
13122
12966
13140
12914
13085
12894
13123
13024
13528
14243
15655
16894
17245
13689
11751
12277
12956
13240
13314
13355
13225
13418
13233
13426
13186
13446
13213
13485
13233
13568
13470
13680
13611
13968
14074
14288
14496
14567
14738
14589
14752
14535
14675
14184
14072
13371
13317
12724
12755
12324
12399
12119
12553
12353
12761
12554
12719
12549
12782
12821
12821
12778
12664
12791
12493
12760
12494
12830
12522
12903
12573
13083
12805
13297
13232
13554
13450
13595
13505
13285
13537
13234
13603
13244
13733
13308
13845
13476
14214
14391
15399
16319
17642
16572
12795
12533
13298
13793
13737
14004
13713
14083
13681
14145
13689
14174
13761
14156
13776
14160
13938
14227
14156
14389
14532
14678
14999
14947
15384
15079
15447
14974
15311
14642
14601
13979
13977
13277
13472
12785
13088
12502
12800
12348
12643
12294
12514
12398
12489
12421
12294
12484
12323
12620
12248
12628
12239
12767
12366
12844
12382
12755
12439
12805
12748
12991
12958
13043
13078
12964
13113
12762
12977
12522
12943
12571
13067
12627
13146
12900
14025
14546
16408
16751
14879
11091
11563
12518
12875
13229
12988
13411
13078
13558
13129
13623
13270
13805
13417
13835
13692
14003
13908
14178
14302
14405
14708
14749
15091
15372
15338
15304
15312
14975
14911
14259
14255
13503
13686
13079
13384
12808
13130
12639
12983
12679
12926
12740
12852
12839
12851
13005
12785
13111
12789
13179
12721
13135
12740
13223
12826
13239
12867
13243
12985
13246
13089
13136
13160
13173
13522
13554
13998
13682
14224
13842
14344
13930
14490
14199
14661
14503
15163
15259
15722
15819
16111
17171
18047
19682
19650
17702
14258
15472
16005
17079
16825
17397
17107
17641
17452
18049
17811
18480
18211
18806
18689
19361
19629
20545
21387
22504
23763
24918
26020
26135
26196
26221
26244
26257
26266
26270
26274
26276
26276
26277
26282
26281
26280
26283
26284
26280
26283
26284
26281
26280
26276
26275
26272
26268
26267
26261
26253
26248
26228
26221
26191
26150
26004
25024
23884
22816
22222
21101
20758
19725
19493
18272
18011
16823
16615
15506
15129
14102
13620
12883
12393
11907
11348
11162
10742
11183
11673
13386
9105
5759
6895
7357
8230
7821
8171
7636
8076
7539
7922
7409
7723
7369
7616
7398
7425
7477
7412
7615
7473
7923
7752
8379
8018
8602
8072
8451
7873
8106
7498
7534
6936
6746
6431
6212
6179
5943
6176
5863
6224
5798
6329
5914
6459
6141
6673
6326
6817
6594
6878
6749
6851
6924
6969
7160
6881
7191
6832
7292
7014
7662
7365
7995
7647
8106
7686
8027
7852
8083
8093
8184
8365
8259
8614
8612
9729
10493
12496
12235
11037
6257
7355
8140
9622
9447
10149
9814
10402
10098
10591
10335
10685
10630
10834
10881
11005
11282
11241
11687
11556
12151
11931
12743
12420
13015
12562
13008
12635
12922
12384
12275
11720
11528
11294
11001
11128
10853
11105
10710
11119
10676
11253
10767
11453
10897
11535
11215
11642
11443
11643
11662
11604
11799
11521
11966
11408
11957
11311
12105
11390
12174
11662
12486
11949
12484
12108
12444
12156
12244
12267
12087
12376
12069
12632
12237
13105
13259
15506
16380
16610
11898
11199
11382
12891
12505
13291
12705
13375
12862
13449
13148
13509
13297
13384
13409
13310
13634
13368
13930
13478
14272
13774
14649
14200
15110
14474
15156
14621
15038
14467
14444
13929
13555
13304
12727
12886
12221
12700
12055
12704
11945
12708
12002
12830
12200
12787
12289
12818
12676
12854
12821
12851
13063
12727
13221
12719
13325
12678
13422
12790
13540
12919
13610
13028
13557
12992
13487
13237
13489
13577
13922
13568
13870
13551
13726
13643
13434
13545
13139
13540
13024
13649
13190
14070
14232
15901
16527
17370
14778
12257
12114
13168
13484
13755
13761
13588
13923
13473
13924
13350
14031
13351
14003
13363
14128
13513
14160
13701
14299
14037
14533
14610
14794
14971
14911
15256
14736
15079
14213
14611
13512
13775
12813
13252
12338
12825
12291
12681
12329
12520
12443
12439
12553
12266
12633
12198
12835
12278
12948
12336
13031
12367
13024
12564
13216
12524
13293
12668
13339
12679
13221
12666
13096
12882
13079
13010
13001
13046
12752
13225
12715
13242
12653
13260
12580
13258
12759
13526
13012
13625
13141
13479
13292
13376
13305
13094
13177
12880
13301
12797
13385
13010
14452
14171
16042
15653
14735
11141
11897
12346
13140
13143
13196
13243
13082
13391
13005
13455
12952
13631
13010
13730
13116
13845
13364
14010
13649
14284
14122
14558
14632
14791
14930
14722
15029
14549
14493
14263
13935
13376
13293
12724
13074
12470
12964
12226
12898
12175
12804
12193
12732
12230
12632
12304
12537
12393
12377
12461
12307
12717
12335
12846
12299
12979
12375
13078
12473
13144
12569
13120
12741
13103
12867
13034
12978
12981
13137
12828
13230
12758
13321
12744
13405
12786
13481
12864
13487
13016
13576
13049
13319
13144
13310
13523
13496
13747
13411
13870
13359
13965
13327
13905
13210
13909
13273
13925
13503
14196
14455
15189
16154
16746
13678
12087
12341
13439
13580
13753
13826
13691
13942
13590
14045
13521
14054
13420
14120
13478
14206
13707
14340
13842
14446
14212
14673
14716
14930
15144
15047
15387
14994
15404
14633
14924
13860
14147
13082
13375
12524
12926
12324
12583
12299
12470
12381
12427
12611
12373
12754
12343
12898
12306
12932
12239
12908
12284
12984
12404
13007
12589
13006
12726
12869
12829
12718
13014
12759
13205
12725
13334
12695
13435
12748
13386
12974
13579
12995
13660
12994
13677
12916
13488
12863
13343
12924
13383
13299
13474
13540
13463
13652
13311
13780
13236
13719
12986
13583
12839
13523
12931
13783
14154
15618
16087
15816
12971
10355
11291
12020
12957
12787
13338
12813
13490
12829
13533
12851
13642
13072
13652
13194
13663
13394
13731
13773
13893
14170
14083
14638
14454
15170
14678
15363
14712
15329
14467
14847
13886
14073
13224
13270
12766
12748
12545
12390
12556
12548
12329
12565
12433
12453
12623
12392
12786
12421
12981
12400
13116
12482
13189
12453
13137
12494
13021
12514
12884
12568
12802
12779
12711
12905
12582
13018
12542
13198
12603
13259
12532
13255
12560
13143
12608
13202
12895
13349
13200
13376
13422
13342
13650
13314
13763
13175
13770
13134
13826
13165
13880
13386
14701
14918
16420
15821
13889
11034
11775
12803
13242
13698
13310
13877
13336
14018
13447
14136
13440
14103
13549
14122
13580
14407
13903
14702
14205
14968
14689
15335
15246
15665
15624
15653
15631
15206
15192
14489
14574
13478
13774
12717
13075
12225
12710
12069
12651
12172
12593
12417
12616
12522
12494
12677
12523
12907
12491
13104
12554
13271
12618
13314
12696
13350
12734
13220
12732
13080
12897
13014
12983
12865
13044
12693
13197
12632
13105
12412
13199
12564
13473
12932
13581
12993
13435
13077
13427
13125
13163
13139
12983
13300
13028
13529
13077
14211
14783
16183
16037
15116
11127
11912
12160
13627
13108
13820
13201
13887
13356
13919
13599
13943
13807
13913
13946
13772
14130
13864
14468
14000
14716
14256
15186
14717
15579
15038
15617
15003
15368
14849
14832
14220
13749
13386
12751
12774
12138
12577
11916
12471
11806
12509
11773
12503
11975
12525
12069
12527
12268
12546
12479
12413
12561
12316
12766
12296
12918
12280
12939
12365
13041
12382
13032
12468
13019
12636
12960
12775
13212
12735
13450
13025
13486
13197
13367
13230
13181
13313
13021
13455
12974
13528
12962
13647
13119
14478
14641
16592
15903
14813
10678
11516
12353
13271
13477
13494
13798
13493
13912
13391
14017
13388
14139
13487
14249
13585
14172
13679
14288
14042
14479
14565
14877
15083
15137
15492
15126
15607
14978
15469
14540
14817
13677
13898
12943
13245
12568
12875
12399
12570
12378
12373
12523
12310
12638
12281
12849
12279
12959
12271
12987
12446
13046
12480
13113
12428
13071
12388
13044
12389
12976
12458
12939
12784
13081
12999
13055
13107
12839
13188
12638
13176
12596
13293
12586
13327
12724
13568
13261
15094
16088
16765
15649
11709
10598
11846
13024
13230
13788
13250
13866
13232
13929
13235
13927
13340
13958
13383
13945
13499
13978
13799
14094
14332
14405
14830
14749
15407
14933
15535
14731
15399
14569
15071
14126
14458
13596
13803
13176
13316
12940
12892
12823
12449
12619
12569
12358
12393
12441
12238
12520
12284
12863
12254
12826
12115
12874
12134
12938
12163
12781
12190
12682
12344
12731
12688
12759
12783
12549
12771
12233
12742
12122
12770
11994
12771
12062
12968
12565
14358
15540
16359
15036
11313
9715
10922
12072
12450
12994
12644
13331
12733
13505
12803
13586
12951
13689
13047
13648
13214
13738
13596
13857
13994
14130
14553
14471
15127
14670
15275
14515
15203
14300
14816
13774
14068
13123
13256
12356
12956
12204
12795
12103
12597
12193
12560
12344
12502
12528
12535
12858
12464
12991
12552
13243
12645
13431
12768
13473
12779
13435
12832
13456
13130
13550
13403
13543
13573
13341
13571
13153
13554
13004
13692
12985
13712
13021
13965
13835
15761
16838
17286
15658
11540
11303
12325
13130
13226
13649
13342
14018
13393
14120
13423
14164
13421
14138
13461
14124
13713
14232
13952
14311
14395
14563
14954
14867
15429
14984
15549
14870
15102
14702
14671
13754
13901
12912
13342
12395
12961
12102
12709
12002
12527
11950
12398
12086
12407
12393
12492
12759
12530
13027
12613
13202
12563
13328
12628
13357
12620
13251
12624
13252
12773
13248
13114
13386
13394
13317
13435
13073
13499
12870
13463
12754
13460
12782
13589
12868
13681
13590
14928
15957
17205
15918
11975
11770
12294
13118
12946
13408
12917
13648
12910
13615
12851
13495
12776
13565
13068
13632
13332
13725
13635
14220
13839
14566
14343
14857
14790
14964
15001
14815
14969
14367
14492
13544
13846
12863
13301
12440
13070
12363
12937
12297
12806
12433
12700
12565
12679
12759
12605
12953
12545
13052
12513
13194
12449
13149
12505
13213
12595
13226
12727
13195
12910
13119
13005
13015
13090
12885
13313
12841
13573
13010
13725
13018
13825
13172
13818
13095
13672
13169
13629
13341
13555
13486
13438
13847
14154
14894
15976
17271
15268
12678
11901
13361
13197
13846
13281
13970
13285
14011
13350
14051
13478
14077
13645
14076
13895
14055
14087
14144
14494
14353
14980
14633
15395
14791
15454
14737
15429
14597
14985
14127
14294
13498
13473
12921
12824
12671
12497
12727
12365
12810
12214
12796
12114
12813
12129
12735
12080
12690
12187
12617
12188
12484
12319
12368
12519
12276
12573
12193
12697
12141
12815
12145
12771
12139
12815
12203
12878
12504
12975
12743
12979
12915
12846
13002
12813
12997
13392
13348
13396
13491
13270
13533
13051
13440
12791
13404
12749
13408
12867
13605
13487
14623
14279
16000
16109
15012
12105
12279
13220
13408
13914
13498
14002
13477
14080
13524
14149
13453
14048
13507
13968
13599
14077
13943
14246
14406
14529
14917
14835
15430
15084
15737
15120
15745
14993
15560
14633
14883
13874
13932
13210
13282
12890
12863
12804
12628
12813
12498
12912
12385
13026
12380
13065
12389
13031
12421
13034
12502
12926
12397
13121
12405
12945
12422
12917
12524
12847
12627
12750
12805
12641
12904
12560
13031
12478
13103
12493
13171
12540
13218
12605
13234
12737
13219
12818
13080
12992
13071
13364
13230
13562
13163
13671
13093
13686
12906
13598
12846
13514
12938
13524
13049
13731
14001
14533
15270
15918
15426
12068
11931
12415
13640
13220
13947
13338
14111
13469
14110
13596
14208
13789
14199
14003
14239
14256
14252
14554
14346
14855
14498
15236
14837
15501
15386
15773
15345
15867
15053
15416
14367
14677
13620
13845
12917
13317
12688
12930
12549
12725
12662
12644
12860
12527
12931
12455
13015
12352
13077
12410
13107
12455
13046
12501
13053
12637
12932
12691
12777
12813
12721
13000
12638
12985
12493
13155
12503
13123
12461
13242
12617
13229
12717
13291
12928
13187
12947
12967
13102
13032
13465
13175
13683
13115
13809
13213
13925
13108
13709
13030
13634
13084
13541
13229
13629
14236
15843
15934
15871
12670
10666
11490
12513
13197
13260
13577
13199
13755
13220
13860
13204
13952
13341
14096
13514
14208
13707
14253
14078
14558
14585
14848
15219
15258
15774
15529
16074
15416
15957
15105
15540
14428
14782
13688
13833
12935
13196
12712
12755
12533
12516
12641
12405
12827
12359
12954
12332
13072
12375
13051
12303
12926
12375
13011
12519
12855
12590
12829
12781
12780
12986
12613
12985
12437
13071
12450
13291
12598
13347
12869
13527
12889
13545
12754
13461
12737
13427
12847
13430
12956
13562
13823
15358
16744
15928
14428
9972
10804
11496
13043
12876
13704
13064
13838
13235
13863
13222
13700
13255
13607
13497
13672
13773
13817
14171
13933
14575
14250
15142
14733
15602
14980
15624
14938
15447
14657
14778
13957
13789
13134
12842
12606
12285
12510
12060
12490
11889
12564
11930
12615
11993
12746
12241
12956
12442
12898
12601
12882
12704
12710
12836
12627
12662
12998
12781
12873
12959
12756
12954
12534
12996
12575
13354
12787
13507
12892
13550
12862
13390
12858
13279
12929
13181
13103
13153
13294
13405
14400
14519
16382
16188
15119
11337
12352
12499
13653
13205
13866
13437
13917
13723
13945
13824
13786
13939
13709
14117
13681
14297
13780
14570
14061
14899
14441
15304
14949
15699
15404
15828
15586
15644
15454
15113
14892
14136
14135
13285
13619
12872
13407
12624
13183
12512
13129
12558
14451
14239
14114
13902
13580
13592
13106
13440
12829
13293
12559
13139
12375
12964
12350
12890
12258
12751
12511
13028
12944
12971
12970
12757
13076
12596
12988
12381
12900
12251
12894
12274
12946
12423
13261
13462
14457
15582
16088
13863
10847
11383
12195
13046
12752
13384
12859
13538
12935
13643
13035
13718
13095
13670
13273
13733
13492
13800
13788
13865
14166
14120
14687
14407
15107
14577
15200
14469
15043
14144
14471
13478
13600
12801
13050
12268
12881
12168
12662
12165
12625
12331
12558
12519
12532
12693
12491
12898
12498
13058
12535
13157
12538
13311
12691
13322
12673
13252
12821
13215
12989
13190
13088
12951
13193
12961
13440
13138
13698
13019
13680
13013
13697
12981
13499
12829
13269
12863
13250
13045
13153
13328
13455
14467
14794
16435
15756
13691
10760
12237
12481
13670
13136
13846
13315
13776
13383
13685
13509
13612
13718
13618
14031
13690
14271
13792
14571
14397
14888
14810
15495
15093
15788
15089
15761
15007
15558
14686
15053
14135
14278
13531
13610
13231
13206
13165
12930
13145
12686
13166
12591
13323
12644
13365
12572
13272
12673
13294
12737
13254
12884
13168
12961
12997
13045
12796
13095
12609
13097
12429
13036
12234
13006
12265
13070
12546
13309
12720
13146
12867
13030
12813
12762
12861
12615
12935
12448
13152
12577
13427
13080
15132
15744
16528
14762
11086
10186
11823
12599
13341
12991
13825
13261
13725
13320
13541
13503
13513
13650
13367
13919
13495
14259
13742
14677
14102
15119
14563
15524
14976
15684
15125
15636
15241
15209
14905
14496
14335
13682
13852
13039
13453
12512
13183
12307
13035
12229
12920
12356
13024
12502
12862
12542
12724
12728
12615
12929
12603
13161
12637
13315
12534
13302
12549
13256
12458
13088
12510
13051
12796
13319
13108
13168
13218
13053
13329
12812
13301
12679
13434
12761
13572
12874
13779
13552
15492
16278
16844
15107
11519
10182
12127
12460
13583
13280
13680
13506
13577
13739
13594
13921
13496
14046
13429
14147
13503
14331
13676
14559
14019
14861
14419
15167
14968
15437
15256
15246
15194
14820
14953
14195
14341
13313
13679
12692
13207
12287
12935
12174
12767
12149
12645
12309
12594
12557
12558
12684
12354
12803
12324
12865
12200
12977
12260
13042
12219
12936
12289
12859
12356
12746
12429
12669
12576
12437
12531
12669
12490
12845
12810
12862
12993
12698
13105
12575
13182
12543
13258
12513
13274
12608
13398
12986
14301
14649
16599
16689
15483
11862
11765
12676
12907
13563
13158
13759
13004
13778
13120
13845
13101
13812
13151
13699
13301
13802
13603
13817
14025
14087
14539
14350
14988
14603
15315
14667
15405
14567
15137
14110
14392
13411
13551
12797
12966
12562
12594
12565
12337
12743
12406
12890
12348
13088
12411
13184
12492
13312
12685
13355
12732
13551
12808
13481
12798
13475
12886
13428
12946
13266
13049
13210
13198
13089
13339
12884
13302
12631
13309
12661
13478
12829
13606
12895
13497
12885
13359
12925
13262
13095
13119
13161
12952
13354
13005
13777
13837
14808
15271
16786
15029
12488
11651
12994
12869
13437
13104
13374
13256
13324
13506
13348
13796
13303
13864
13199
13971
13274
14042
13307
14059
13574
14430
14123
14817
14625
14873
14786
14725
14859
14409
14518
13649
13386
13165
13075
12583
12787
12185
12708
12034
12745
12031
12825
12118
12853
12246
12876
12411
12918
12551
12770
12694
12634
12808
12518
12948
12438
13033
12297
13066
12302
13009
12268
12998
12406
13048
12574
13034
12785
13009
13030
13037
13288
12975
13402
12739
13368
12738
13557
12816
13739
13070
13753
13102
13718
13242
13556
13202
13335
13377
13279
13550
13222
13973
14131
15195
15376
16557
14856
12430
11683
13226
13221
13941
13559
13918
13587
14405
13788
14360
13829
14157
13869
14074
14032
13911
14272
13903
14489
14016
14888
14336
15230
14535
15356
14627
15286
14551
14909
14260
14339
13840
13588
13331
12886
13017
12434
12862
12124
12770
11995
12759
11955
12725
12049
12690
12195
12731
12345
12680
12607
12658
12743
12484
12853
12384
12894
12213
12947
12283
13124
12442
13161
12496
13137
12620
13164
12872
13124
13034
13137
13201
12938
13469
12983
13561
12902
13645
12819
13360
13028
13655
13223
14032
13295
14010
13187
13895
13126
13713
13046
13528
13134
13458
13378
13464
13757
14106
15258
15663
16228
14752
11717
10990
12803
12895
13931
13388
14095
13572
14112
13807
14077
14069
14068
14247
13978
14358
13803
14463
13935
14746
14132
15078
14515
15445
14917
15612
15205
15528
15128
15231
14962
14562
14425
13688
13764
12939
13338
12489
13124
12264
12991
12263
12922
12272
12749
12330
12689
12478
12622
12619
12875
12409
12839
12572
12776
12753
12609
12818
12522
12893
12328
12874
12244
12919
12186
12952
12277
12887
12333
12895
12481
12853
12658
12722
12701
12643
12976
12774
13275
12780
13357
12824
13561
12840
13497
12771
13338
12787
13328
12982
13313
13252
13739
14651
15440
16155
14883
11867
10528
12180
12432
13458
12939
13681
13090
13772
13285
13847
13531
13771
13639
13659
13819
13681
14076
13789
14452
14106
14886
14371
15262
14746
15511
15139
15692
14943
15531
14616
14989
13949
14144
13268
13465
12946
13048
12711
12641
12705
12547
12853
12448
12920
12320
12959
12286
12974
12312
12948
12321
12852
12406
12835
12533
12765
12640
12583
12719
12542
13005
12592
13164
12583
13214
12565
13166
12477
13224
12784
13417
13115
13590
13310
13495
13395
13241
13362
13006
13354
12953
13540
13009
13698
13247
14407
14552
16306
16125
15266
11144
11364
12247
13321
13668
13656
13983
13846
13958
14153
14093
13912
13982
13780
13985
13824
14238
14090
14696
14521
15134
14983
15618
15420
15950
15637
15930
15530
15572
15296
15046
14758
14271
13983
13410
13480
12949
13093
12560
12926
12441
12799
12382
12693
12265
12612
12388
12564
12470
12424
12362
12219
12406
12118
12393
11951
12384
11900
12292
11821
12279
11892
12350
12031
12286
12097
12236
12219
12320
12558
12566
12750
12421
12747
12332
12754
12236
12663
12212
12677
12282
12727
12406
13151
13633
15331
16074
15682
12591
9566
10435
11864
12662
12902
13093
13073
13378
13133
13550
13187
13706
13308
13785
13468
13958
13596
14159
13984
14326
14258
14578
14846
15044
15304
15228
15431
15058
15316
14845
15094
14274
14381
13687
13748
12959
13062
12618
12792
12548
12596
12528
12452
12613
12439
12748
12408
12841
12467
12899
12367
12876
12458
12867
12530
12897
12535
12736
12621
12746
12796
12836
13125
12945
13373
13026
13201
13226
13315
13009
13300
13025
13465
13035
13587
13339
14879
15957
17372
15901
12819
9741
11254
12127
12966
13238
13265
13498
13404
13786
13461
13870
13421
13951
13534
14051
13646
14153
13913
14452
14365
14791
14852
15141
15352
15495
15799
15512
15694
15194
15421
14628
14690
13774
13829
13060
13171
12638
12894
12516
12675
12515
12524
12639
12562
12793
12587
12979
12609
13055
12658
13111
12627
13051
12608
12910
12498
12742
12500
12922
12541
13093
12735
13095
12911
13136
12967
12901
12822
12660
12872
12691
