Tempo (ms);Valor
960536;13333
960545;13025
960553;12601
960561;12251
960569;11952
960577;11849
960585;11804
960594;11853
960602;11884
960610;12147
960618;12379
960626;12786
960635;13125
960643;13562
960651;13743
960659;14017
960667;14044
960676;14163
960684;14090
960692;14197
960700;14060
960708;14162
960717;14010
960725;14138
960733;13987
960741;14074
960749;13917
960758;14051
960766;13904
960774;14012
960782;13867
960790;13961
960798;13724
960807;13805
960815;13630
960823;13664
960834;13442
960842;13375
960851;13247
960859;13353
960867;13308
960875;13348
960883;13252
960892;13451
960900;13400
960908;13708
960916;13630
960924;13700
960933;13509
960941;13645
960949;13490
960957;13619
960965;13416
960974;13757
960982;13123
960990;11226
960998;7584
961006;6545
961015;11610
961023;16154
961031;15644
961039;14846
961047;14201
961055;14114
961064;13736
961072;13704
961080;13539
961088;13605
961096;13403
961105;13431
961113;13220
961121;13285
961129;13115
961140;13225
961149;12993
961157;12966
961165;12628
961173;12615
961181;12166
961190;12025
961198;11628
961206;11632
961214;11504
961222;11705
961231;11741
961239;12088
961247;12526
961255;13529
961263;14210
961272;15004
961280;15396
961288;15745
961296;15611
961304;15507
961313;15167
961321;15062
961329;14816
961337;14660
961345;14348
961353;14179
961362;13993
961370;13834
961378;13641
961386;13559
961394;13626
961403;13687
961411;13666
961419;13680
961427;13720
961438;13882
961447;13732
961455;13666
961463;13439
961471;13431
961479;13124
961488;13109
961496;13028
961504;13116
961512;13086
961520;13185
961529;13220
961537;13442
961545;13536
961553;13603
961561;13606
961570;13668
961578;13674
961586;13685
961594;13653
961602;13603
961610;13837
961619;14067
961627;12050
961635;7776
961643;4749
961651;7816
961660;15184
961668;15952
961676;15522
961684;14958
961692;14830
961701;14407
961709;14227
961717;13911
961725;13898
961733;13777
961745;13883
961753;13986
961761;14051
961769;14253
961777;14857
961786;15344
961794;15738
961802;15920
961810;16013
961818;15913
961827;15639
961835;15109
961843;14599
961851;14048
961859;13799
961868;13479
961876;13314
961884;13183
961892;13417
961900;13648
961908;14086
961917;14276
961925;14472
961933;14315
961941;14260
961949;13952
961958;13766
961966;13283
961974;13011
961982;12935
961990;13211
961999;13306
962007;13558
962015;13573
962023;13757
962031;13879
962043;14154
962051;14285
962059;14359
962067;14294
962075;14311
962084;14229
962092;14273
962100;14222
962108;14188
962116;13979
962125;13951
962133;13797
962141;13767
962149;13729
962157;13841
962166;13804
962174;13959
962182;13889
962190;13949
962198;13774
962206;13812
962215;13655
962223;13634
962231;13430
962239;13388
962247;13650
962256;12631
962264;9408
962272;6938
962280;7502
962288;14896
962297;16463
962305;15846
962313;14858
962321;14373
962329;14116
962338;13927
962349;13668
962357;13683
962365;13453
962373;13425
962382;13205
962390;13173
962398;12942
962406;12944
962414;12738
962423;12709
962431;12436
962439;12362
962447;12076
962455;11959
962463;11655
962472;11606
962480;11450
962488;11549
962496;11497
962504;11797
962513;11932
962521;12375
962529;12616
962537;13135
962545;13420
962554;13762
962562;13890
962570;14127
962578;14142
962586;14257
962595;14220
962603;14244
962611;14202
962619;14205
962627;14132
962636;14107
962644;14030
962655;14144
962663;14044
962671;14041
962680;13829
962688;13906
962696;13825
962704;13927
962712;13778
962721;13902
962729;13722
962737;13735
962745;13612
962753;13712
962761;13594
962770;13672
962778;13646
962786;13793
962794;13830
962802;13957
962811;13952
962819;14004
962827;13936
962835;14013
962843;13980
962852;14003
962860;13919
962868;13940
962876;14087
962884;12363
962893;8823
962901;6810
962909;9553
962917;16242
962925;16424
962934;15648
962942;14978
962950;14529
962961;14293
962969;14136
962978;13911
962986;13824
962994;13684
963002;13639
963010;13479
963018;13440
963027;13281
963035;13213
963043;13037
963051;12889
963059;12726
963068;12517
963076;12211
963084;11941
963092;11764
963100;11607
963109;11600
963117;11643
963125;11793
963133;11969
963141;12343
963150;12701
963158;13180
963166;13514
963174;13918
963182;14143
963191;14387
963199;14439
963207;14565
963215;14461
963223;14532
963231;14411
963240;14459
963248;14332
963259;14341
963267;14301
963276;14210
963284;14136
963292;14093
963300;14040
963308;14024
963316;14011
963325;14011
963333;13975
963341;14035
963349;13969
963357;14013
963366;13850
963374;13822
963382;13656
963390;13780
963398;13720
963407;13829
963415;13814
963423;13985
963431;13962
963439;14131
963448;14007
963456;14040
963464;13897
963472;13939
963480;13763
963489;13835
963497;13622
963505;14183
963513;13136
963521;10135
963529;6742
963538;6647
963546;13592
963554;16218
963565;15330
963574;14674
963582;14205
963590;13996
963598;13621
963606;13561
963614;13353
963623;13369
963631;13260
963639;13271
963647;13067
963655;13118
963664;12923
963672;12904
963680;12721
963688;12705
963696;12456
963705;12336
963713;11961
963721;11848
963729;11605
963737;11613
963746;11529
963754;11707
963762;11779
963770;12105
963778;12395
963786;12901
963795;13217
963803;13691
963811;13895
963819;14172
963827;14221
963836;14288
963844;14214
963852;14206
963863;14107
963871;14208
963880;13984
963888;14016
963896;13807
963904;13890
963912;13771
963921;13896
963929;13754
963937;13863
963945;13752
963953;13818
963962;13726
963970;13833
963978;13762
963986;13827
963994;13769
964003;13797
964011;13659
964019;13557
964027;13411
964035;13452
964044;13414
964052;13478
964060;13466
964068;13527
964076;13574
964084;13729
964093;13797
964101;13791
964109;13720
964117;13689
964125;13671
964134;13612
964142;13567
964150;13701
964158;13798
964169;10825
964178;6750
964186;5604
964194;11507
964202;15825
964210;15610
964219;14893
964227;14446
964235;14202
964243;13832
964251;13652
964260;13692
964268;13673
964276;13599
964284;13541
964292;13429
964301;13180
964309;13172
964317;13273
964325;13236
964333;12956
964342;12803
964350;12565
964358;12376
964366;12051
964374;11844
964382;11593
964391;11587
964399;11529
964407;11620
964415;11652
964423;12004
964432;12323
964440;12656
964448;12841
964456;13269
964464;13431
964475;13671
964483;13842
964492;13957
964500;13954
964508;13985
964517;14070
964525;14186
964533;14282
964541;14463
964549;14641
964558;14895
964566;15080
964574;15181
964582;15030
964590;14857
964599;14539
964607;14342
964615;14162
964623;14205
964631;14061
964639;14083
964648;13973
964656;13956
964664;13698
964672;13669
964680;13633
964689;13718
964697;13632
964705;13710
964713;13685
964721;13830
964730;13863
964738;14002
964746;14003
964754;14117
964762;14055
964773;14155
964781;14095
964789;14027
964797;14545
964805;14207
964814;11148
964822;6634
964830;5007
964838;11198
964846;15969
964855;16098
964863;15437
964871;15195
964879;14903
964887;14729
964895;14555
964904;14501
964912;14371
964920;14330
964928;14181
964936;14091
964945;13935
964953;13834
964961;13691
964969;13642
964977;13498
964986;13394
964994;13204
965002;12987
965010;12698
965018;12457
965027;12250
965035;12186
965043;12169
965051;12216
965059;12316
965068;12566
965079;13191
965087;13714
965095;14045
965103;14244
965112;14283
965120;14337
965128;14390
965136;14492
965144;14524
965153;14467
965161;14382
965169;14380
965177;14340
965185;14324
965193;14328
965202;14315
965210;14258
965218;14185
965226;14159
965234;14144
965243;14093
965251;14059
965259;14048
965267;14032
965275;14007
965284;13970
965292;13996
965300;13891
965308;13841
965316;13700
965325;13677
965333;13721
965341;13842
965349;13915
965357;14013
965366;14049
965374;14174
965385;14300
965393;14280
965401;14194
965410;14054
965418;13946
965426;13827
965434;13729
965442;13599
965450;14172
965459;13699
965467;10451
965475;6004
965483;4560
965491;11080
965500;15504
965508;15322
965516;14595
965524;14289
965532;14012
965541;13737
965549;13612
965557;13559
965565;13511
965573;13490
965582;13386
965590;13343
965598;13259
965606;13242
965614;13117
965623;13038
965631;12918
965639;12855
965647;12641
965655;12473
965663;12196
965672;12076
965683;11946
965691;11986
965699;11998
965708;12189
965716;12400
965724;12772
965732;13194
965740;13661
965748;14006
965757;14325
965765;14417
965773;14570
965781;14632
965789;14686
965798;14592
965806;14639
965814;14536
965822;14518
965830;14420
965839;14463
965847;14350
965855;14410
965863;14336
965871;14401
965880;14271
965888;14330
965896;14240
965904;14341
965912;14260
965921;14318
965929;14249
965937;14293
965945;14200
965953;14240
965961;14152
965970;14050
965978;13883
965989;13992
965997;13952
966006;13965
966014;13889
966022;13963
966030;13990
966038;14145
966046;14113
966055;14161
966063;14144
966071;14267
966079;14198
966087;14207
966096;14067
966104;14167
966112;14423
966120;12726
966128;8792
966137;6386
966145;9279
966153;16326
966161;16497
966169;15727
966178;14913
966186;14578
966194;14323
966202;14098
966210;13921
966218;13868
966227;13773
966235;13716
966243;13646
966251;13519
966259;13350
966268;13233
966276;13098
966284;12961
966295;12731
966303;12624
966312;12311
966320;12097
966328;11807
966336;11707
966344;11703
966353;11808
966361;11886
966369;12086
966377;12349
966385;12750
966394;13116
966402;13531
966410;13880
966418;14171
966426;14298
966435;14449
966443;14568
966451;14605
966459;14560
966467;14508
966476;14446
966484;14326
966492;14271
966500;14250
966508;14266
966516;14261
966525;14241
966533;14179
966541;14145
966549;14133
966557;14128
966566;14038
966574;14026
966582;13865
966592;13817
966600;13835
966609;13778
966617;13842
966625;13946
966633;14011
966641;14051
966650;14084
966658;14064
966666;14040
966674;13946
966682;13909
966691;13869
966700;13760
966708;13739
966716;13625
966724;14115
966733;13161
966740;9938
966749;6766
966757;6522
966765;13749
966774;16320
966782;15634
966790;14978
966798;14311
966806;14068
966814;13689
966823;13488
966831;13313
966839;13276
966847;13124
966855;13093
966864;12996
966872;12996
966880;12818
966888;12735
966898;12562
966907;12515
966915;12300
966923;12114
966931;11877
966939;11657
966948;11431
966956;11402
966964;11331
966972;11454
966980;11546
966989;11843
966997;12166
967005;12640
967013;13043
967021;13433
967030;13605
967038;13820
967046;13838
967054;13970
967062;13977
967070;14020
967079;13878
967087;13891
967095;13784
967103;13782
967111;13664
967120;13666
967128;13571
967136;13576
967144;13508
967152;13558
967161;13467
967169;13562
967177;13530
967185;13582
967193;13538
967205;13627
967213;13459
967221;13371
967229;13233
967237;13287
967246;13240
967254;13315
967262;13298
967270;13452
967278;13519
967287;13667
967295;13680
967303;13737
967311;13615
967319;13678
967327;13585
967336;13567
967344;13370
967352;13973
967360;13278
967368;10213
967377;5895
967385;4798
967393;11626
967401;15508
967409;15210
967418;14529
967426;14072
967434;13819
967442;13485
967450;13356
967459;13232
967467;13279
967475;13188
967483;13206
967491;13135
967503;13259
967511;13244
967519;13245
967527;13085
967535;13073
967544;12880
967552;12754
967560;12395
967568;12273
967576;12053
967585;12010
967593;11917
967601;12051
967609;12102
967617;12402
967625;12643
967634;13117
967642;13444
967650;13926
967658;14137
967666;14445
967675;14469
967683;14570
967691;14487
967699;14489
967707;14316
967716;14292
967724;14138
967732;14106
967740;13981
967748;13964
967757;13883
967765;13871
967773;13815
967781;13782
967789;13781
967798;13769
967809;13831
967817;14002
967825;13936
967833;14072
967842;13989
967850;14011
967858;13870
967866;13778
967874;13600
967882;13652
967891;13667
967899;13741
967907;13702
967915;13804
967923;13894
967932;14035
967940;14091
967948;14134
967956;14089
967964;14104
967973;14092
967981;14077
967989;14014
967997;14080
968005;14482
968014;12731
968022;8718
968030;5363
968038;7829
968046;15199
968055;16147
968063;15464
968071;14892
968079;14598
968087;14334
968095;14091
968104;14051
968115;13994
968123;13956
968131;13845
968140;13736
968148;13649
968156;13523
968164;13400
968172;13321
968180;13174
968189;13058
968197;12828
968205;12662
968213;12374
968221;12272
968230;12103
968238;12118
968246;12116
968254;12311
968262;12401
968271;12680
968279;12959
968287;13469
968295;13788
968303;14205
968312;14347
968320;14589
968328;14561
968336;14685
968344;14574
968353;14662
968361;14547
968369;14566
968377;14348
968385;14397
968393;14231
968402;14271
968413;14194
968421;14257
968429;14184
968438;14168
968446;14077
968454;14130
968462;14074
968470;14166
968478;14128
968487;14137
968495;13910
968503;13791
968511;13650
968519;13740
968528;13663
968536;13780
968544;13686
968552;13899
968560;13931
968569;14103
968577;13983
968585;14096
968593;13900
968601;13968
968610;13802
968618;13900
968626;13708
968634;14010
968642;14194
968650;12445
968659;8112
968667;5066
968675;8365
968683;15436
968691;15914
968700;15343
968708;14713
968719;14611
968727;14306
968735;14278
968744;14078
968752;14097
968760;13862
968768;13896
968776;13683
968785;13723
968793;13509
968801;13573
968809;13340
968817;13348
968826;13113
968834;13015
968842;12641
968850;12480
968858;12158
968867;12113
968875;12003
968883;12063
968891;12034
968899;12253
968908;12451
968916;12917
968924;13262
968932;13722
968940;13978
968948;14284
968957;14334
968965;14436
968973;14458
968981;14499
968989;14394
968998;14370
969006;14317
969014;14325
969025;14245
969033;14364
969042;14188
969050;14249
969058;14152
969066;14234
969074;14125
969083;14253
969091;14118
969099;14166
969107;13961
969115;13864
969124;13655
969132;13679
969140;13587
969148;13667
969156;13654
969165;13724
969173;13797
969181;13827
969189;13835
969197;13831
969206;13822
969214;13789
969222;13739
969230;13593
969238;13573
969246;13410
969255;13973
969263;13084
969271;9978
969279;6636
969287;6154
969296;13266
969304;16288
969312;15614
969323;14722
969331;14502
969340;14221
969348;13928
969356;13738
969364;13586
969372;13472
969381;13401
969389;13307
969397;13183
969405;13093
969413;12994
969422;12882
969430;12777
969438;12674
969446;12527
969454;12357
969463;12125
969471;11936
969479;11748
969487;11726
969495;11711
969503;11905
969512;12111
969520;12487
969528;12915
969536;13492
969544;13903
969553;14322
969561;14546
969569;14801
969577;14832
969585;14872
969594;14854
969602;14907
969610;14760
969618;14679
969628;14540
969637;14480
969645;14306
969653;14229
969661;14064
969669;13942
969678;13894
969686;13915
969694;13915
969702;13988
969710;13955
969719;13925
969727;13813
969735;13773
969743;13631
969751;13588
969759;13613
969768;13795
969776;13785
969784;13869
969792;13858
969800;13970
969809;13884
969817;13899
969825;13786
969833;13869
969841;13728
969850;13742
969858;13509
969866;13423
969874;13836
969882;12853
969891;9235
969899;5791
969907;5927
969915;13693
969923;15670
969935;15083
969943;14453
969951;14194
969959;13733
969967;13750
969976;13579
969984;13566
969992;13391
970000;13429
970008;13302
970017;13246
970025;13079
970033;13068
970041;12911
970049;12899
970057;12724
970066;12663
970074;12356
970082;12211
970090;11971
970098;11958
970107;11868
970115;11999
970123;12082
970131;12311
970139;12500
970148;12914
970156;13319
970164;13758
970172;14029
970180;14314
970189;14467
970197;14570
970205;14532
970213;14547
970221;14436
970233;14451
970241;14364
970249;14352
970257;14160
970265;14164
970274;14028
970282;14049
970290;13953
970298;14023
970306;13985
970314;14031
970323;13983
970331;14029
970339;13935
970347;13957
970355;13765
970364;13677
970372;13531
970380;13545
970388;13471
970396;13577
970405;13643
970413;13766
970421;13848
970429;13883
970437;13894
970446;13907
970454;13907
970462;13810
970470;13790
970478;13664
970487;13595
970495;14065
970503;13817
970511;10993
970519;6734
970527;4981
970539;14090
970547;16009
970555;15519
970563;14931
970572;14657
970580;14357
970588;14119
970596;13966
970604;13841
970612;13750
970621;13767
970629;13675
970637;13633
970645;13494
970653;13497
970662;13331
970670;13201
970678;13015
970686;12916
970694;12607
970703;12432
970711;12107
970719;12003
970727;11832
970735;11958
970744;11936
970752;12169
970760;12250
970768;12679
970776;12958
970785;13461
970793;13730
970801;14081
970809;14118
970817;14318
970825;14231
970834;14302
970845;14244
970853;14275
970861;14115
970870;14094
970878;13938
970886;13931
970894;13784
970902;13827
970910;13742
970919;13836
970927;13718
970935;13813
970943;13766
970951;13865
970960;13711
970968;13763
970976;13515
970984;13452
970992;13283
971001;13376
971009;13287
971017;13477
971025;13446
971033;13665
971042;13678
971050;13811
971058;13722
971066;13865
971074;13741
971082;13831
971091;13724
971099;13860
971107;13783
971115;14513
971123;13350
971132;9842
971143;4906
971151;8280
971159;15218
971167;15937
971176;15199
971184;14864
971192;14555
971200;14349
971208;14109
971217;14121
971225;13929
971233;13933
971241;13775
971249;13796
971258;13617
971266;13612
971274;13427
971282;13410
971290;13181
971299;13046
971307;12766
971315;12641
971323;12342
971331;12176
971340;11924
971348;11940
971356;11927
971364;12080
971372;12180
971380;12481
971389;12773
971397;13209
971405;13556
971413;13971
971421;14184
971430;14401
971438;14481
971449;14595
971457;14528
971465;14523
971474;14300
971482;14334
971490;14195
971498;14226
971506;14098
971515;14129
971523;14033
971531;14039
971539;13946
971547;13993
971556;13969
971564;14089
971572;14038
971580;14047
971588;13951
971597;13847
971605;13672
971613;13681
971621;13654
971629;13670
971638;13708
971646;13830
971654;13909
971662;14038
971670;14090
971678;14096
971687;14102
971695;14056
971703;14079
971711;13999
971719;14001
971728;13780
971736;14281
971744;13323
971755;8607
971763;5468
971772;7703
971780;15118
971788;15589
971796;14933
971804;14402
971813;14263
971821;14082
971829;13855
971837;13783
971845;13710
971854;13680
971862;13591
971870;13553
971878;13477
971886;13398
971895;13257
971903;13233
971911;13078
971919;12970
971927;12689
971935;12557
971944;12269
971952;12162
971960;11952
971968;11951
971976;11961
971985;12169
971993;12197
972001;12574
972009;12864
972017;13373
972026;13706
972034;14182
972042;14380
972052;14741
972060;14848
972069;14954
972077;14913
972085;14969
972093;14868
972101;14835
972110;14712
972118;14674
972126;14600
972134;14616
972142;14483
972151;14458
972159;14305
972167;14328
972175;14187
972183;14207
972191;13985
972200;13892
972208;13693
972216;13776
972225;13660
972233;13779
972242;13718
972250;13894
972258;13894
972266;14076
972274;14006
972283;14069
972291;13941
972299;13991
972307;13847
972315;13849
972324;13661
972332;13685
972340;13860
972348;13883
972358;10108
972367;6916
972375;6349
972383;13636
972391;16427
972399;15914
972408;15083
972416;14531
972424;14174
972432;13995
972440;13691
972449;13664
972457;13423
972465;13411
972473;13195
972481;13181
972489;12999
972498;13016
972506;12838
972514;12854
972522;12649
972530;12588
972539;12323
972547;12249
972555;11986
972563;11949
972571;11803
972580;11888
972588;11892
972596;12060
972604;12224
972612;12623
972621;13013
972629;13512
972637;13886
972645;14263
972653;14449
972665;14666
972673;14691
972681;14812
972689;14723
972697;14747
972706;14615
972714;14636
972722;14494
972730;14441
972738;14243
972746;14196
972755;13997
972763;13981
972771;13864
972779;13895
972787;13814
972796;13815
972804;13692
972812;13697
972820;13563
972828;13497
972837;13364
972845;13316
972853;13229
972861;13270
972869;13297
972878;13355
972886;13439
972894;13560
972902;13615
972910;13611
972919;13615
972927;13604
972935;13531
972943;13479
972951;13478
972963;13878
972971;13779
972979;11397
972987;7119
972995;4741
973004;9743
973012;15451
973020;15475
973028;14839
973036;14329
973044;14131
973053;13787
973061;13652
973069;13526
973077;13484
973085;13411
973094;13354
973102;13302
973110;13220
973118;13146
973126;13033
973135;12952
973143;12817
973151;12690
973159;12536
973167;12353
973176;12106
973184;12012
973192;11898
973200;11961
973208;11969
973217;12104
973225;12238
973233;12552
973241;12889
973249;13363
973257;13686
973269;14176
973277;14452
973285;14602
973293;14695
973302;14744
973310;14795
973318;14797
973326;14750
973334;14703
973342;14589
973351;14544
973359;14435
973367;14342
973375;14221
973383;14183
973392;14122
973400;14081
973408;14001
973416;14000
973424;13950
973433;13961
973441;13927
973449;13919
973457;13799
973465;13620
973474;13455
973482;13500
973490;13490
973498;13503
973506;13457
973514;13522
973523;13557
973531;13693
973539;13653
973547;13673
973555;13620
973564;13626
973575;13538
973583;13513
973591;13332
973599;13883
973608;13534
973616;10677
973624;6175
973632;4427
973640;10653
973649;15458
973657;15352
973665;14727
973673;14347
973681;14168
973690;13841
973698;13710
973706;13534
973714;13512
973722;13433
973731;13455
973739;13397
973747;13375
973755;13263
973763;13254
973772;13079
973780;12973
973788;12753
973796;12554
973804;12253
973812;12076
973821;11822
973829;11722
973837;11671
973845;11775
973853;11873
973862;12056
973873;12548
973881;13094
973889;13467
973897;13895
973906;14155
973914;14425
973922;14515
973930;14603
973938;14538
973947;14547
973955;14488
973963;14487
973971;14400
973979;14380
973988;14278
973996;14276
974004;14218
974012;14185
974020;14081
974029;14056
974037;14016
974045;14013
974053;13982
974061;14044
974070;14079
974078;14136
974086;14065
974094;13889
974102;13782
974110;13796
974119;13835
974127;13866
974135;13875
974143;13933
974151;13958
974160;14055
974168;14131
974179;14154
974187;14160
974195;14125
974204;14049
974212;14004
974220;13889
974228;14060
974236;14289
974245;12275
974253;8018
974261;4935
974269;8660
974277;15447
974286;15794
974294;15104
974302;14611
974310;14383
974318;14069
974327;13883
974335;13780
974343;13717
974351;13694
974359;13670
974367;13608
974376;13509
974384;13434
974392;13314
974400;13213
974408;13031
974417;12853
974425;12586
974433;12379
974441;12119
974449;11977
974458;11797
974466;11782
974474;11770
974484;11980
974492;12201
974501;12454
974509;12885
974517;13330
974525;13710
974533;14023
974542;14190
974550;14323
974558;14380
974566;14378
974574;14334
974583;14325
974591;14228
974599;14186
974607;14145
974615;14147
974623;14128
974632;14135
974640;14079
974648;14112
974656;14095
974664;14156
974673;14152
974682;14227
974690;14257
974698;14370
974706;14312
974715;14288
974723;14099
974731;14021
974739;13930
974747;13965
974756;13915
974764;13984
974772;13993
974782;14233
974790;14273
974799;14287
974807;14191
974815;14191
974823;14117
974831;14111
974840;13984
974848;13993
974856;14127
974864;14356
974872;12336
974881;8399
974889;5614
974897;9778
974905;16226
974913;16236
974921;15374
974930;14683
974938;14381
974946;14170
974954;13853
974962;13781
974971;13641
974979;13575
974987;13395
974995;13402
975003;13310
975012;13278
975020;13164
975028;13100
975036;12942
975044;12805
975053;12569
975061;12400
975069;12114
975077;11884
975088;11712
975097;11801
975105;11810
975113;12004
975121;12142
975129;12462
975138;12801
975146;13294
975154;13671
975162;14022
975170;14198
975178;14309
975187;14379
975195;14450
975203;14427
975211;14439
975219;14371
975228;14360
975236;14285
975244;14259
975252;14154
975260;14112
975269;14026
975277;14023
975285;13947
975293;13943
975301;13919
975310;13916
975318;13833
975326;13738
975334;13568
975342;13450
975351;13381
975359;13401
975367;13408
975375;13485
975383;13558
975395;13827
975403;13842
975411;13857
975419;13768
975427;13836
975436;13770
975444;13822
975452;13737
975460;13724
975468;13762
975476;14117
975485;12246
975493;8422
975501;5630
975509;8630
975517;15782
975526;16201
975534;15516
975542;14865
975550;14528
975558;14239
975567;13970
975575;13838
975583;13735
975591;13685
975599;13619
975608;13542
975616;13446
975624;13321
975632;13197
975640;13064
975649;12976
975657;12803
975665;12632
975673;12351
975681;12169
975693;11927
975701;11823
975709;11812
975717;11841
975725;11960
975734;12135
975742;12412
975750;12788
975758;13221
975766;13585
975774;13844
975783;14109
975791;14286
975799;14361
975807;14427
975815;14450
975824;14381
975832;14375
975840;14334
975848;14262
975856;14177
975865;14110
975873;14008
975881;13927
975889;13935
975897;13926
975906;13880
975914;13912
975922;13942
975930;14184
975938;14428
975946;14568
975955;14533
975963;14489
975971;14464
975979;14565
975987;14736
975999;15109
976007;15348
976015;15497
976023;15617
976031;15769
976040;15760
976048;15729
976056;15601
976064;15539
976072;15444
976081;15307
976089;15067
976097;15161
976105;15180
976113;12709
976122;7891
976130;5146
976138;8900
976146;15628
976154;16332
976163;15751
976171;15283
976179;14988
976187;14564
976195;14320
976204;14158
976212;14063
976220;14018
976228;13941
976236;13797
976244;13774
976253;13638
976261;13637
976269;13482
976277;13305
976285;13121
976294;13009
976305;12759
976313;12551
976321;12284
976329;12175
976338;12100
976346;12193
976354;12303
976362;12524
976370;12890
976379;13314
976387;13710
976395;14078
976403;14358
976411;14580
976420;14612
976428;14633
976436;14652
976444;14640
976452;14584
976461;14527
976469;14490
976477;14433
976485;14343
976493;14318
976502;14341
976510;14323
976518;14272
976526;14226
976534;14153
976542;14075
976551;13962
976559;13895
976567;13773
976575;13618
976583;13409
976592;13232
976603;13139
976611;13163
976619;13022
976627;12969
976636;12948
976644;12978
976652;13037
976660;13060
976668;13047
976677;13019
976685;12990
976693;13004
976701;12945
976709;12842
976718;12789
976726;13440
976734;12244
976742;8411
976750;4461
976759;4894
976767;12506
976775;15000
976783;14612
976791;13981
976799;13676
976808;13382
976816;13138
976824;12967
976832;12839
976840;12718
976849;12629
976857;12536
976865;12546
976873;12483
976881;12430
976890;12335
976898;12285
976908;12207
976916;12108
976924;11894
976933;11688
976941;11528
976949;11458
976957;11468
976965;11567
976974;11683
976982;11852
976990;11948
976998;12363
977006;12922
977015;13392
977023;13746
977031;14004
977039;14184
977047;14324
977055;14362
977065;14375
977073;14340
977081;14334
977089;14316
977097;14273
977106;14171
977114;14083
977122;14008
977130;13959
977138;13850
977147;13836
977155;13831
977163;13869
977171;13844
977179;13783
977188;13647
977196;13477
977204;13363
977214;13287
977222;13284
977231;13276
977239;13318
977247;13389
977255;13517
977263;13679
977272;13759
977280;13823
977288;13828
977296;13835
977304;13807
977313;13816
977321;13773
977329;13788
977337;14261
977345;12680
977353;8855
977362;6116
977370;7737
977378;15250
977386;16333
977394;15816
977403;15153
977411;14776
977419;14517
977427;14245
977435;14089
977444;13954
977452;13857
977460;13777
977468;13713
977476;13671
977485;13582
977493;13453
977501;13336
977512;13154
977520;13024
977529;12783
977537;12507
977545;12264
977553;12036
977561;11932
977570;11929
977578;12035
977586;12135
977594;12358
977602;12688
977610;13041
977619;13495
977627;13936
977635;14272
977643;14508
977651;14614
977660;14712
977668;14792
977676;14815
977684;14773
977692;14742
977701;14627
977709;14534
977717;14455
977725;14394
977733;14305
977742;14232
977750;14224
977758;14263
977766;14271
977774;14300
977783;14246
977791;14204
977799;14111
977807;14013
977818;13988
977827;14021
977835;13983
977843;14018
977851;14062
977859;14195
977868;14218
977876;14269
977884;14208
977892;14261
977900;14207
977908;14106
977917;14003
977925;13896
977933;14087
977941;14008
977949;11674
977958;7971
977966;6208
977974;10635
977982;16418
977990;16257
977999;15627
978007;15009
978015;14635
978023;14288
978031;13975
978040;13813
978048;13713
978056;13614
978064;13557
978072;13441
978081;13363
978089;13242
978097;13141
978105;12999
978113;12855
978210;15018
978218;15062
978226;15057
978234;15038
978242;14989
978250;14853
978259;14745
978267;14595
978275;14490
978283;14333
978291;14202
978300;14083
978308;13959
978316;13807
978324;13728
978332;13564
978341;13405
978349;13249
978357;13143
978365;13063
978373;13040
978382;13028
978390;12894
978398;12843
978406;12752
978414;12737
978423;12766
978431;12879
978439;12979
978447;13090
978455;13170
978463;13170
978472;13163
978480;13114
978488;13054
978496;13053
978508;13020
978516;12945
978524;12884
978532;13255
978540;11789
978548;8212
978557;5999
978565;7509
978573;14824
978581;15834
978589;15218
978598;14510
978606;13942
978614;13654
978622;13348
978630;13180
978639;13088
978647;13055
978655;13000
978663;12970
978671;12925
978680;12817
978688;12736
978696;12609
978704;12487
978712;12373
978721;12179
978729;11994
978737;11771
978745;11601
978753;11468
978761;11418
978770;11468
978778;11699
978786;11894
978794;12203
978802;12464
978814;13164
978822;13538
978830;13835
978838;14037
978846;14150
978855;14168
978863;14231
978871;14227
978879;14241
978887;14112
978896;14057
978904;14007
978912;14005
978920;14005
978928;14007
978937;13928
978945;13979
978953;13921
978961;13904
978969;13910
978978;13851
978986;13746
978994;13716
979002;13708
979010;13750
979018;13781
979027;13814
979035;13801
979043;13925
979051;14039
979059;14109
979068;14140
979076;14191
979084;14171
979092;14171
979100;14121
979109;14094
979119;14503
979127;13549
979135;10444
979143;7984
979152;8033
979160;14665
979168;17173
979176;16515
979184;15755
979194;14999
979202;14583
979210;14261
979218;14026
979226;13872
979235;13733
979243;13667
979251;13558
979259;13496
979267;13428
979276;13316
979284;13199
979292;13088
979300;12927
979308;12747
979316;12507
979325;12284
979333;12023
979341;11840
979349;11745
979357;11782
979366;11839
979374;11963
979382;12206
979390;12555
979398;12957
979407;13364
979417;13929
979425;14269
979433;14453
979441;14518
979450;14570
979458;14624
979466;14624
979474;14562
979482;14533
979491;14491
979499;14459
979507;14369
979515;14286
979523;14179
979532;14172
979540;14163
979548;14168
979556;14149
979564;14041
979572;13954
979581;13894
979589;13963
979597;13934
979605;13930
979613;14016
979622;14102
979630;14151
979638;14236
979646;14212
979654;14186
979663;14192
979671;14206
979679;14115
979687;14044
979695;13972
979704;14095
979712;13785
979723;10185
979731;7617
979739;7723
979748;14353
979756;16764
979764;16185
979772;15436
979780;14813
979789;14434
979797;14029
979805;13825
979813;13810
979821;13756
979830;13653
979838;13634
979846;13639
979854;13495
979862;13350
979870;13146
979879;13010
979887;12897
979895;12683
979903;12439
979911;12239
979920;11984
979928;11804
979936;11674
979944;11717
979952;11775
979961;11974
979969;12053
979977;12407
979985;12938
979993;13318
980002;13573
980010;13946
980018;14096
980037;14733
980046;14746
980054;14693
980062;14638
980070;14573
980078;14724
980087;14609
980095;14324
980103;14239
980111;14187
980119;14120
980127;14049
980136;13869
980144;13748
980152;13637
980160;13539
980168;13564
980177;13553
980185;13616
980193;13940
980201;13841
980209;13681
980218;13698
980226;13766
980234;13823
980242;13975
980250;13799
980259;13762
980267;13664
980275;13673
980283;13933
980291;13466
980300;11285
980308;8475
980316;7851
980324;11874
980335;16442
980344;15978
980352;15129
980360;14472
980368;14096
980376;13798
980385;13601
980393;13462
980401;13332
980409;13419
980417;13370
980425;13254
980434;13054
980442;13088
980450;13064
980458;12860
980466;12628
980475;12584
980483;12327
980491;12226
980499;12017
980507;11854
980516;11834
980524;11776
980532;11766
980540;11998
980548;12132
980557;12566
980565;12723
980573;13185
980581;13574
980589;13833
980598;13864
980606;14009
980614;14124
980622;14250
980630;14244
980642;14206
980650;14279
980658;14189
980666;14125
980674;14113
980682;13976
980691;13958
980699;13964
980707;13900
980715;13845
980723;13835
980732;13708
980740;13667
980748;13669
980756;13544
980764;13431
980773;13527
980781;13654
980789;13765
980797;13703
980805;13737
980814;13920
980822;13931
980830;13914
980838;13845
980846;13814
980855;13795
980863;13720
980871;13939
980879;13399
980887;11233
980895;9261
980904;9388
980912;13543
980920;16545
980928;16122
980936;15426
980948;14587
980956;14352
980964;13995
980972;13714
980980;13658
980989;13574
980997;13481
981005;13499
981013;13335
981021;13235
981030;13158
981038;13168
981046;13017
981054;12747
981062;12633
981071;12417
981079;12136
981087;12088
981095;11925
981103;11871
981112;11887
981120;11983
981128;12088
981136;12379
981144;12803
981153;13154
981161;13527
981169;13821
981177;14015
981185;14037
981193;14184
981202;14255
981210;14264
981218;14258
981226;14246
981234;14252
981246;14184
981254;14296
981262;14226
981270;14122
981278;14123
981287;14115
981295;13994
981303;13987
981311;13979
981319;13943
981328;13914
981336;13798
981344;13826
981352;13758
981360;13744
981369;13723
981377;13692
981385;13699
981393;13749
981401;13625
981410;13658
981418;13646
981426;13611
981434;13553
981442;13549
981450;13556
981459;13581
981467;13496
981475;13519
981483;13489
981491;13474
981500;13415
981508;13514
981516;13462
981524;13361
981532;13343
981541;13482
981552;13551
981560;13495
981568;13420
981576;13419
981585;13246
981593;13248
981601;13213
981609;13242
981617;13296
981626;13330
981634;13341
981642;13464
981650;13513
981658;13469
981667;13440
981675;13351
981683;13334
981691;13420
981699;13193
981708;11902
981716;9623
981724;8967
981732;11078
981740;15656
981748;15772
981757;15035
981765;14211
981773;13924
981781;13654
981789;13414
981798;13315
981806;13269
981814;13261
981822;13206
981830;13167
981839;13137
981850;13113
981858;13168
981866;12982
981874;12930
981883;12819
981891;12611
981899;12482
981907;12222
981915;12051
981924;11849
981932;11844
981940;11830
981948;11834
981956;12143
981965;12351
981973;12631
981981;12971
981989;13318
981997;13667
982006;13983
982014;14143
982022;14250
982030;14233
982038;14342
982046;14297
982055;14318
982063;14362
982071;14241
982079;14210
982087;14151
982096;14083
982104;14036
982112;14071
982120;14140
982128;14110
982137;13862
982145;13803
982155;14064
982163;14140
982171;14015
982180;13955
982188;14030
982196;14061
982204;13986
982212;13864
982221;13941
982229;13856
982237;13891
982245;13737
982253;13773
982262;13719
982270;13769
982278;13674
982286;13577
982294;13562
982302;13522
982311;13557
982319;13697
982327;13716
982335;13564
982343;13423
982352;13370
982360;13344
982368;13194
982376;13257
982385;13302
982394;13532
982402;13433
982410;13424
982418;13498
982426;13505
982435;13485
982443;13499
982451;13354
982461;13458
982469;13496
982478;13375
982486;12210
982494;9968
982502;9264
982510;10909
982519;15952
982527;15899
982535;15020
982543;14362
982551;13981
982559;13795
982568;13775
982576;13648
982584;13414
982592;13266
982600;13096
982609;13179
982617;13104
982625;13090
982633;13138
982641;12927
982650;12815
982658;12771
982666;12691
982674;12551
982682;12219
982691;12097
982699;12040
982707;11806
982715;11487
982723;11602
982732;11877
982740;11911
982748;12181
982759;12814
982767;13290
982776;13639
982784;13753
982792;14032
982800;14019
982808;14059
982817;14024
982825;14110
982833;14142
982841;14109
982849;14146
982857;14076
982866;14032
982874;14084
982882;13951
982890;14007
982898;13946
982907;13888
982915;13745
982923;13799
982931;13823
982939;13701
982948;13679
982956;13761
982964;13738
982972;13727
982980;13745
982989;13740
982997;13722
983005;13705
983013;13811
983021;13764
983030;13619
983038;13752
983046;13752
983054;13746
983065;13831
983074;13934
983082;13916
983090;13808
983098;13786
983106;13702
983114;13598
983123;13560
983131;13565
983139;13590
983147;13525
983155;13619
983164;13577
983172;13678
983180;13681
983188;13831
983196;13853
983205;13770
983213;13648
983221;13675
983229;13693
983237;13401
983246;11988
983254;9902
983262;9396
983270;11847
983278;15927
983287;15900
983295;15210
983303;14481
983311;14147
983319;13869
983327;13699
983336;13648
983344;13483
983352;13347
983360;13397
983372;13418
983380;13415
983388;13436
983396;13390
983404;13203
983412;12975
983421;12829
983429;12718
983437;12538
983445;12301
983453;12056
983462;12135
983470;12143
983478;11807
983486;11890
983494;11825
983503;12075
983511;12497
983519;13076
983527;13549
983535;13855
983544;14102
983552;14332
983560;14454
983568;14379
983576;14417
983585;14426
983593;14446
983601;14388
983609;14313
983617;14325
983625;14295
983634;14231
983642;14214
983650;14189
983658;14115
983670;14061
983678;14103
983686;13977
983694;13910
983702;13876
983710;13853
983719;13858
983727;13846
983735;13826
983743;13818
983751;13804
983760;13797
983768;13776
983776;13776
983784;13762
983792;13804
983801;13766
983809;13745
983817;13706
983825;13693
983833;13650
983842;13698
983850;13626
983858;13659
983866;13653
983874;13645
983882;13595
983891;13559
983899;13514
983907;13560
983915;13574
983923;13607
983932;13559
983940;13611
983948;13546
983956;13578
983964;13415
983976;13317
983984;13244
983992;13217
984000;13210
984008;13246
984017;13278
984025;13351
984033;13297
984041;13414
984049;13341
984058;13389
984066;13340
984074;13343
984082;13334
984090;13394
984099;13118
984107;11720
984115;9131
984123;8003
984131;10012
984140;15201
984148;15472
984156;14890
984164;14238
984172;13845
984180;13548
984189;13347
984197;13182
984205;13154
984213;13065
984221;13042
984230;12954
984238;12964
984246;12899
984254;12830
984262;12710
984274;12728
984282;12639
984290;12483
984298;12218
984306;12049
984315;11845
984323;11595
984331;11345
984339;11281
984347;11317
984356;11429
984364;11549
984372;11854
984380;12307
984388;12760
984397;13134
984405;13499
984413;13695
984421;13871
984429;13972
984438;14134
984446;14230
984454;14349
984462;14293
984470;14261
984478;14231
984487;14251
984495;14231
984503;14222
984511;14115
984519;14096
984528;13994
984536;13994
984544;13913
984552;13917
984560;13797
984569;13814
984580;13860
984588;13990
984596;13911
984604;13894
984613;13794
984621;13862
984629;13725
984637;13772
984645;13703
984654;13702
984662;13632
984670;13641
984678;13593
984686;13629
984695;13592
984703;13619
984711;13588
984719;13626
984727;13549
984735;13608
984744;13563
984752;13558
984760;13547
984768;13641
984776;13562
984785;13519
984793;13518
984801;13497
984809;13514
984817;13442
984826;13364
984834;13294
984842;13293
984850;13242
984858;13279
984867;13237
984875;13246
984885;13353
984893;13436
984901;13593
984910;13615
984918;13640
984926;13559
984934;13547
984942;13607
984951;13845
984959;12652
984967;9705
984975;7352
984983;8590
984991;14680
985000;15782
985008;15320
985016;14651
985024;14347
985032;14058
985041;13841
985049;13737
985057;13666
985065;13599
985073;13533
985082;13478
985091;13484
985099;13368
985107;13273
985115;13123
985124;13056
985132;12887
985140;12785
985148;12638
985156;12485
985165;12178
985173;11975
985183;11760
985191;11744
985199;11764
985208;11895
985216;12046
985224;12375
985232;12794
985240;13286
985249;13690
985257;14071
985265;14344
985273;14534
985281;14596
985289;14669
985298;14612
985306;14638
985314;14575
985322;14603
985330;14530
985339;14494
985347;14403
985355;14371
985363;14250
985371;14249
985380;14148
985388;14133
985396;14073
985404;14084
985412;14037
985421;14046
985429;14007
985437;14012
985445;13984
985453;14018
985462;13991
985470;14000
985478;13985
985489;14054
985497;14092
985506;14076
985514;14017
985522;14035
985530;13940
985538;13897
985546;13842
985555;13816
985563;13752
985571;13783
985579;13713
985587;13641
985596;13462
985604;13388
985612;13291
985620;13339
985628;13343
985637;13349
985645;13335
985653;13400
985661;13442
985669;13561
985678;13571
985686;13555
985694;13456
985702;13398
985710;13266
985719;13666
985727;12746
985735;9859
985743;6472
985751;6507
985759;12861
985768;15506
985776;15220
985784;14566
985795;14278
985804;14102
985812;13865
985820;13778
985828;13683
985836;13625
985844;13535
985853;13469
985861;13381
985869;13312
985877;13179
985885;13067
985894;12963
985902;12855
985910;12677
985918;12499
985926;12251
985935;12006
985943;11766
985951;11572
985959;11449
985967;11453
985976;11511
985984;11626
985992;11882
986000;12331
986008;12856
986017;13332
986025;13757
986033;14048
986041;14262
986049;14362
986057;14406
986066;14374
986074;14338
986082;14289
986093;14340
986102;14320
986110;14244
986118;14184
986126;14128
986134;14139
986142;14136
986151;14084
986159;14060
986167;14000
986175;14031
986183;13969
986192;13927
986200;13884
986208;13859
986216;13832
986224;13779
986233;13712
986241;13696
986249;13650
986257;13664
986265;13634
986274;13615
986282;13644
986290;13716
986298;13705
986306;13634
986314;13482
986323;13341
986331;13212
986339;13202
986347;13143
986355;13176
986364;13174
986372;13309
986380;13335
986388;13504
986399;13575
986408;13641
986416;13599
986424;13545
986432;13500
986440;13916
986449;13479
986457;11303
986465;7283
986473;5200
986481;8797
986490;14951
986498;15476
986506;14909
986514;14428
986522;14309
986531;14045
986539;14013
986547;13900
986555;13923
986563;13697
986572;13636
986580;13547
986588;13513
986596;13328
986604;13260
986612;13124
986621;13053
986629;12839
986637;12688
986645;12441
986653;12196
986662;11905
986670;11739
986678;11531
986686;11484
986694;11449
986706;11703
986714;12004
986722;12532
986730;13055
986738;13664
986747;14146
986755;14609
986763;14933
986771;15178
986779;15236
986788;15350
986796;15276
986804;15294
986812;15222
986820;15163
986829;15005
986837;14970
986845;14807
986853;14808
986861;14664
986870;14696
986878;14565
986886;14580
986894;14414
986902;14435
986910;14422
986919;14423
986927;14249
986935;14260
986943;14148
986951;14156
986960;14133
986968;14217
986976;14149
986984;14113
986992;13913
987004;13880
987012;13741
987020;13642
987028;13401
987036;13391
987045;13416
987053;13534
987061;13636
987069;13726
987077;13716
987086;13782
987094;13749
987102;13741
987110;13672
987118;13617
987127;14106
987135;13178
987143;9785
987151;5734
987159;5640
987167;12594
987176;15716
987184;15479
987192;14882
987200;14709
987208;14421
987217;14297
987225;14184
987233;14125
987241;14043
987249;13949
987258;13805
987266;13817
987274;13711
987282;13610
987290;13476
987299;13352
987309;13147
987317;13006
987325;12670
987333;12454
987342;12179
987350;11976
987358;11757
987366;11755
987374;11799
987383;11925
987391;12031
987399;12323
987407;12784
987415;13252
987423;13687
987432;14212
987440;14597
987448;14657
987456;14542
987464;14375
987473;14354
987481;14458
987489;14583
987497;14626
987505;14621
987514;14534
987523;14468
987531;14330
987539;14261
987547;14222
987556;14165
987564;14077
987572;13962
987580;13790
987588;13737
987597;13644
987605;13663
987615;13751
987623;13853
987631;13794
987640;13720
987648;13510
987656;13432
987664;13411
987672;13439
987681;13438
987689;13561
987697;13626
987705;13777
987713;13893
987721;13997
987730;14038
987738;14088
987746;14019
987754;14005
987762;13916
987771;13870
987779;14393
987787;13449
987795;10011
987803;5807
987812;5543
987820;13104
987828;15906
987836;15499
987844;14732
987853;14586
987861;14275
987869;14097
987877;13961
987885;13928
987894;13786
987902;13815
987913;13750
987921;13744
987929;13565
987938;13448
987946;13269
987954;13201
987962;13045
987970;12947
987978;12692
987987;12460
987995;12144
988003;11953
988011;11745
988019;11713
988028;11690
988036;11795
988044;11886
988052;12215
988060;12619
988069;13166
988077;13598
988085;14012
988093;14216
988101;14471
988110;14588
988118;14685
988126;14639
988134;14659
988142;14571
988151;14548
988159;14461
988167;14448
988175;14373
988183;14360
988191;14297
988200;14324
988208;14296
988219;14394
988227;14406
988236;14424
988244;14349
988252;14338
988260;14256
988268;14165
988276;13949
988285;13893
988293;13858
988301;13896
988309;13816
988317;13840
988326;13858
988334;14016
988342;14008
988350;14036
988358;13982
988367;13973
988375;13888
988383;13889
988391;13821
988399;13798
988408;14223
988416;12854
988424;9187
988432;6480
988440;7513
988449;15312
988457;16584
988465;15844
988473;15108
988481;14546
988489;14267
988498;13972
988506;13776
988514;13666
988525;13565
988534;13577
988542;13461
988550;13401
988558;13252
988566;13181
988574;13054
988583;12945
988591;12765
988599;12595
988607;12332
988615;12048
988624;11778
988632;11659
988640;11604
988648;11641
988656;11746
988665;11908
988673;12108
988681;12466
988689;12943
988697;13365
988706;13805
988714;14072
988722;14247
988730;14332
988738;14421
988746;14393
988755;14375
988763;14310
988771;14249
988779;14103
988787;14023
988796;13900
988804;13846
988812;13763
988823;13846
988831;13881
988840;13859
988848;13843
988856;13794
988864;13739
988872;13580
988881;13466
988889;13443
988897;13398
988905;13416
988913;13450
988922;13601
988930;13648
988938;13774
988946;13817
988954;13842
988963;13796
988971;13871
988979;13806
988987;13757
988995;13620
989004;13763
989012;14030
989020;12379
989028;8442
989036;5375
989044;7703
989053;15225
989061;15973
989069;15394
989077;14716
989085;14509
989094;14166
989102;13987
989110;13842
989118;13826
989129;13789
989138;13842
989146;13705
989154;13681
989162;13544
989170;13493
989179;13353
989187;13238
989195;12978
989203;12804
989211;12475
989220;12268
989228;11986
989236;11837
989244;11768
989252;11904
989261;11947
989269;12140
989277;12340
989285;12776
989293;13144
989302;13577
989310;13880
989318;14159
989326;14270
989334;14379
989342;14350
989351;14427
989359;14348
989367;14323
989375;14208
989383;14211
989392;14151
989400;14133
989408;14028
989416;13961
989424;13868
989436;13952
989444;13981
989452;14035
989460;13936
989468;13882
989477;13764
989485;13665
989493;13485
989501;13462
989509;13387
989518;13447
989526;13457
989534;13570
989542;13644
989550;13806
989559;13812
989567;13867
989575;13828
989583;13878
989591;13847
989599;13872
989608;13775
989616;13874
989624;14249
989632;12537
989640;8336
989649;4708
989657;7213
989665;14958
989673;15988
989681;15456
989690;14951
989698;14788
989706;14456
989714;14260
989722;14162
989733;14112
989741;14022
989749;13943
989757;13783
989765;13665
989774;13518
989782;13464
989790;13289
989798;13187
989806;12960
989816;12984
989824;12645
989832;12180
989840;11881
989848;11805
989857;11773
989865;11830
989873;11949
989881;12091
989889;12363
989897;12755
989906;13230
989914;13623
989922;13960
989930;14126
989938;14285
989947;14380
989955;14413
989963;14357
989971;14367
989979;14304
989988;14275
989996;14194
990004;14195
990012;14132
990020;14156
990029;14068
990039;14121
990047;14159
990055;14103
990063;14098
990072;14127
990080;14113
990088;14074
990096;13995
990104;13896
990113;13784
990121;13755
990129;13702
990137;13726
990145;13732
990153;13803
990162;13818
990170;13962
990178;13961
990186;13975
990194;13897
990203;13878
990211;13740
990219;13690
990227;13571
990235;13506
990244;14087
990252;13286
990260;9729
990268;5359
990276;4671
990285;12348
990293;15610
990301;15333
990309;14680
990317;14493
990326;14191
990334;14027
990345;13896
990353;13882
990361;13784
990370;13756
990378;13653
990386;13590
990394;13459
990402;13397
990410;13197
990419;13115
990427;12887
990435;12767
990443;12507
990451;12301
990460;12008
990468;11884
990476;11774
990484;11859
990492;11816
990501;11978
990509;12130
990517;12523
990525;12907
990533;13401
990542;13729
990550;14094
990558;14264
990566;14460
990574;14460
990583;14529
990591;14430
990599;14372
990607;14256
990615;14263
990623;14190
990632;14166
990643;14089
990651;14198
990659;14095
990668;14117
990676;14066
990684;14112
990692;14024
990700;14061
990708;13980
990717;14039
990725;14021
990733;14100
990741;13965
990749;13855
990758;13596
990766;13610
990774;13519
990782;13577
990790;13542
990799;13603
990807;13606
990815;13775
990823;13863
990831;14010
990840;13951
990848;13884
990856;13795
990864;13803
990872;13730
990881;13655
990889;14148
990897;13867
990905;10868
990913;6443
990921;4539
990930;10828
990938;15674
990949;15378
990957;14741
990966;14528
990974;14187
990982;13995
990990;13833
990998;13777
991006;13687
991015;13709
991023;13647
991031;13644
991039;13579
991047;13558
991056;13448
991064;13359
991072;13166
991080;12976
991088;12725
991097;12460
991105;12184
991113;11962
991121;11849
991129;11900
991138;12046
991146;12176
991154;12364
991162;12632
991170;13011
991178;13437
991187;13855
991195;14134
991203;14316
991211;14415
991219;14515
991228;14515
991236;14522
991244;14388
991255;14317
991263;14276
991272;14106
991280;13950
991288;13862
991296;13827
991304;13808
991313;13771
991321;13770
991329;13704
991337;13694
991345;13649
991354;13621
991362;13592
991370;13584
991378;13611
991386;13600
991395;13509
991403;13296
991411;13141
991419;13221
991427;13259
991436;13330
991444;13309
991452;13370
991460;13438
991468;13650
991476;13654
991485;13723
991493;13713
991501;13773
991509;13724
991517;13692
991526;13570
991534;13572
991542;14106
991553;11528
991561;7305
991570;4667
991578;9350
991586;15585
991594;15724
991602;15011
991611;14550
991619;14374
991627;14055
991635;13982
991643;13875
991652;13845
991660;13769
991668;13746
991676;13644
991684;13622
991693;13490
991701;13457
991709;13325
991717;13277
991725;13106
991734;12937
991742;12677
991750;12518
991758;12272
991766;12153
991774;12048
991783;12108
991791;12166
991799;12288
991807;12451
991815;12804
991824;13122
991832;13529
991840;13844
991848;14113
991859;14364
991868;14528
991876;14483
991884;14445
991892;14329
991900;14285
991909;14214
991917;14228
991925;14156
991933;14142
991941;14036
991950;14063
991958;14024
991966;14088
991974;14104
991982;14148
991991;14115
991999;14168
992007;14137
992015;14140
992023;14118
992031;14127
992040;14143
992048;14083
992056;13920
992064;13757
992072;13647
992081;13624
992089;13624
992097;13669
992105;13689
992113;13731
992122;13801
992130;13868
992138;13847
992146;13816
992154;13813
992166;13877
992174;13837
992182;13778
992190;13574
992198;14124
992207;13643
992215;10518
992223;6236
992231;4869
992239;11642
992248;15935
992256;15567
992264;14863
992272;14472
992280;14263
992289;14012
992297;13957
992305;13840
992313;13781
992321;13698
992329;13628
992338;13581
992346;13501
992354;13435
992362;13365
992370;13282
992379;13131
992387;13004
992395;12791
992403;12614
992411;12366
992420;12200
992428;12049
992436;12016
992444;12000
992452;12084
992463;12332
992471;12647
992479;13037
992487;13403
992495;13807
992504;14086
992512;14302
992520;14439
992528;14444
992536;14460
992545;14431
992553;14344
992561;14294
992569;14249
992577;14145
992585;14091
992594;14047
992602;14015
992610;13931
992618;13917
992626;13898
992635;13937
992643;13913
992651;13952
992659;13966
992667;13958
992676;13923
992684;13942
992692;13884
992700;13971
992708;13948
992717;14004
992725;13884
992733;13806
992741;13597
992749;13557
992758;13519
992769;13581
992777;13627
992785;13660
992793;13725
992802;13863
992810;13882
992818;13884
992826;13820
992834;13848
992842;13817
992851;13797
992859;13714
992867;13658
992875;14276
992883;13233
992892;9475
992900;5537
992908;5803
992916;13686
992924;15830
992933;15329
992941;14550
992949;14396
992957;14051
992965;13776
992974;13620
992982;13593
992990;13464
992998;13399
993006;13275
993015;13192
993023;13093
993031;13059
993039;12896
993047;12845
993055;12658
993064;12481
993075;12292
993083;12185
993091;11868
993100;11723
993108;11657
993116;11839
993124;11987
993132;12210
993140;12448
993149;12799
993157;13125
993165;13536
993173;13861
993181;14192
993190;14368
993198;14593
993206;14655
993214;14630
993222;14463
993231;14402
993239;14272
993247;14191
993255;14101
993263;14008
993272;13963
993280;13942
993288;13733
993296;13707
993304;13617
993313;13604
993321;13575
993329;13642
993337;13675
993345;13735
993353;13723
993362;13822
993373;13888
993381;14010
993389;13984
993398;13921
993406;13695
993414;13601
993422;13524
993430;13558
993438;13475
993447;13525
993455;13607
993463;13621
993471;13663
993479;13778
993488;13732
993496;13759
993504;13716
993512;13751
993520;13755
993529;13723
993537;13768
993545;14199
993553;12479
993561;8643
993570;5617
993578;8123
993586;15407
993594;15953
993602;15219
993610;14734
993619;14546
993627;14281
993635;14115
993643;14005
993651;13949
993660;13895
993668;13820
993679;13763
993687;13722
993695;13694
993704;13561
993712;13454
993720;13365
993728;13188
993736;13038
993745;12833
993753;12568
993761;12403
993769;12340
993777;12286
993786;12381
993794;12461
993802;12592
993810;12794
993818;13088
993827;13465
993835;13805
993843;14082
993851;14411
993859;14653
993868;14698
993876;14636
993884;14843
993892;14519
993900;14380
993908;14287
993917;14272
993925;14147
993933;14176
993941;14118
993949;14138
993958;14084
993966;14060
993974;14121
993985;14194
993993;14298
994002;14290
994010;14209
994018;14185
994026;14070
994034;13947
994043;13745
994051;13771
994059;13708
994067;13776
994075;13833
994084;13940
994092;13935
994100;14037
994108;13983
994116;14057
994125;13935
994133;13991
994141;13921
994149;13649
994157;13377
994166;13630
994174;13655
994182;11674
994190;8369
994198;6811
994206;10848
994215;16560
994223;15991
994231;15194
994239;14604
994247;14332
994256;13954
994264;13663
994272;13469
994282;13153
994290;13183
994299;13269
994307;13208
994315;13269
994323;13031
994331;13025
994340;13043
994348;12681
994356;12492
994364;12365
994372;12135
994381;11985
994389;11744
994397;11695
994405;11781
994413;11969
994422;12043
994430;12121
994438;12499
994446;12912
994454;13261
994462;13683
994471;14051
994479;14333
994487;14369
994495;14470
994503;14451
994512;14443
994520;14446
994528;14453
994536;14391
994544;14264
994553;14167
994561;14113
994569;14071
994578;14019
994588;13982
994597;14072
994605;14006
994613;13971
994621;13888
994629;13901
994638;13897
994646;13803
994654;13689
994662;13723
994670;13723
994679;13807
994687;13830
994695;13884
994703;14002
994711;14091
994719;14053
994728;14045
994736;14009
994744;13962
994752;13919
994760;13920
994769;13825
994777;13883
994785;13829
994793;11875
994801;8617
994810;6957
994818;10453
994826;16334
994834;16223
994842;15482
994851;14849
994859;14483
994867;14206
994875;13929
994883;13884
994895;13855
994903;13840
994911;13782
994919;13735
994927;13664
994936;13485
994944;13369
994952;13296
994960;13178
994968;12911
994977;12718
994985;12491
994993;12242
995001;12056
995009;11903
995017;11905
995026;11892
995034;12045
995042;12228
995050;12573
995058;12924
995067;13386
995075;13798
995083;14163
995091;14345
995099;14557
995108;14649
995116;14709
995124;14712
995132;14727
995140;14654
995149;14662
995157;14508
995165;14421
995173;14264
995181;14249
995193;14180
995201;14161
995209;14065
995217;14051
995225;13997
995234;13885
995242;13835
995250;13761
995258;13654
995266;13585
995274;13520
995283;13528
995291;13550
995299;13664
995307;13639
995315;13847
995324;13863
995332;13958
995340;13895
995348;13938
995356;13862
995365;13833
995373;13841
995381;13668
995389;13814
995397;13453
995406;11012
995414;7842
995422;6478
995430;11636
995438;16172
995447;15862
995455;15159
995463;14566
995471;14243
995479;13962
995487;13795
995499;13777
995507;13680
995515;13668
995523;13623
995532;13452
995540;13287
995548;13249
995556;13104
995564;12969
995572;12786
995581;12617
995589;12290
995597;12072
995605;11795
995613;11522
995622;11426
995630;11369
995638;11496
995646;11775
995654;11931
995663;12299
995671;12781
995679;13138
995687;13527
995695;13715
995704;13887
995712;14065
995720;14061
995728;14036
995736;14070
995745;14062
995753;14025
995761;13995
995769;14015
995777;13912
995785;13799
995797;13783
995805;13776
995813;13760
995821;13723
995830;13711
995838;13723
995846;13698
995854;13669
995862;13570
995870;13448
995879;13357
995887;13364
995895;13392
995903;13493
995911;13535
995920;13644
995928;13719
995936;13891
995944;13943
995952;13884
995961;13864
995969;13890
995977;13888
995985;13876
995993;13814
996002;13816
996010;14175
996018;12828
996026;9424
996034;6520
996042;7531
996051;14751
996059;16021
996067;15599
996075;14988
996083;14706
996092;14417
996103;14222
996111;14108
996119;13999
996127;13940
996136;13907
996144;13750
996152;13697
996160;13570
996168;13496
996177;13357
996185;13253
996193;13109
996201;12822
996209;12404
996218;12222
996226;12017
996234;11919
996242;11876
996250;11942
996259;11942
996267;12126
996275;12371
996283;12804
996291;13215
996300;13669
996308;13952
996316;14377
996324;14603
996332;14772
996340;14702
996349;14684
996357;14642
996365;14616
996373;14453
996381;14429
996390;14369
996398;14376
996408;14318
996416;14346
996424;14263
996433;14266
996441;14184
996449;14180
996457;14179
996465;14194
996474;14089
996482;14111
996490;13915
996498;13815
996506;13754
996515;13753
996523;13684
996531;13751
996539;13787
996547;13848
996556;13813
996564;13833
996572;13811
996580;13847
996589;13806
996598;13805
996606;13852
996614;13755
996622;13613
996630;14043
996638;13601
996647;10855
996655;7139
996663;5393
996671;10988
996679;15614
996688;15512
996696;14896
996706;14398
996714;14274
996722;13993
996731;13905
996739;13810
996747;13776
996755;13720
996763;13707
996772;13639
996780;13607
996788;13513
996796;13417
996804;13322
996813;13211
996821;13053
996829;12881
996837;12634
996845;12399
996854;12172
996862;12046
996870;12021
996878;12025
996886;12103
996894;12304
996903;12690
996911;13102
996919;13593
996927;13951
996935;14177
996944;14363
996952;14440
996960;14474
996968;14536
996976;14565
996985;14570
996993;14497
997001;14445
997012;14464
997020;14481
997029;14365
997037;14291
997045;14288
997053;14283
997061;14185
997070;14100
997078;14064
997086;14077
997094;14027
997102;14030
997111;13968
997119;13971
997127;14007
997135;14036
997143;14023
997151;13914
997160;13726
997168;13689
997176;13661
997184;13731
997192;13743
997201;13813
997209;13858
997217;13918
997225;13980
997233;14014
997242;13896
997250;13791
997258;13700
997266;13723
997274;13662
997283;13645
997291;13621
997299;14076
997307;12640
997318;7732
997327;5606
997335;9677
997343;15499
997351;15759
997359;15076
997368;14549
997376;14300
997384;14082
997392;13847
997400;13729
997409;13661
997417;13664
997425;13522
997433;13456
997441;13321
997449;13227
997458;13143
997466;13041
997474;12831
997482;12700
997490;12468
997499;12315
997507;12079
997515;11817
997523;11607
997531;11524
997540;11562
997548;11597
997556;11692
997564;11984
997572;12385
997581;12852
997589;13283
997597;13649
997605;13915
997616;14247
997625;14312
997633;14360
997641;14293
997649;14319
997657;14254
997666;14214
997674;14122
997682;14106
997690;14049
997698;14005
997706;13951
997715;13936
997723;13887
997731;13911
997739;13852
997747;13833
997756;13791
997764;13820
997772;13788
997780;13831
997788;13807
997797;13775
997805;13766
997813;13718
997821;13729
997829;13742
997838;13723
997846;13672
997854;13611
997862;13419
997870;13309
997879;13328
997887;13371
997895;13423
997903;13364
997911;13385
997923;13567
997931;13741
997939;13724
997947;13698
997955;13618
997964;13598
997972;13617
997980;13589
997988;13545
997996;13715
998004;13974
998013;12165
998021;8438
998029;5906
998037;8325
998045;15102
998054;15907
998062;15403
998070;14839
998078;14568
998086;14270
998095;14062
998103;13933
998111;13885
998119;13865
998127;13703
998136;13660
998144;13605
998152;13518
998160;13367
998168;13268
998177;13149
998185;12972
998193;12820
998201;12646
998209;12340
998217;12078
998229;11795
998237;11768
998245;11780
998253;11896
998262;12064
998270;12327
998278;12687
998286;13141
998294;13541
998302;13957
998311;14227
998319;14457
998327;14502
998335;14562
998343;14565
998352;14503
998360;14451
998368;14458
998376;14393
998384;14365
998393;14287
998401;14331
998409;14269
998417;14215
998425;14131
998434;14190
998442;14072
998450;14041
998458;13954
998466;13920
998474;13909
998483;13944
998491;13870
998499;13868
998507;13802
998515;13842
998526;13824
998534;13871
998542;13819
998550;13778
998558;13660
998567;13674
998575;13736
998583;13729
998591;13609
998599;13594
998608;13439
998616;13374
998624;13312
998632;13383
998640;13350
998649;13387
998657;13419
998665;13518
998673;13592
998681;13722
998690;13649
998698;13646
998706;13594
998714;13615
998722;13526
998730;13490
998739;13608
998747;13734
998755;11773
998763;8084
998772;5770
998781;8527
998789;14969
998797;15624
998805;15053
998813;14428
998822;14198
998832;13941
998840;13809
998848;13739
998856;13634
998865;13599
998873;13552
998881;13478
998889;13382
998897;13330
998906;13211
998914;13140
998922;12978
998930;12854
998938;12655
998947;12458
998955;12164
998963;11981
998971;11789
998979;11732
998988;11737
998996;11860
999004;11980
999012;12215
999020;12543
999028;13000
999037;13446
999045;13882
999053;14071
999061;14270
999069;14382
999078;14482
999086;14526
999094;14510
999102;14522
999110;14485
999119;14492
999127;14376
999138;14369
999146;14409
999154;14314
999163;14304
999171;14237
999179;14221
999187;14180
999195;14123
999204;14071
999212;14050
999220;14017
999228;14007
999236;14039
999245;14024
999253;13937
999261;13978
999269;13894
999277;13845
999286;13875
999294;13888
999302;13828
999310;13786
999318;13768
999326;13723
999335;13699
999343;13664
999351;13525
999359;13356
999367;13265
999376;13261
999384;13309
999392;13307
999400;13295
999408;13324
999417;13385
999425;13444
999444;13940
999452;13975
999461;13892
999469;13793
999477;13655
999485;13588
999493;13665
999502;13837
999510;12040
999518;8472
999526;6030
999534;8139
999543;14834
999551;15625
999559;15012
999567;14444
999575;14243
999583;14001
999592;13812
999600;13668
999608;13603
999616;13606
999624;13547
999633;13509
999641;13472
999649;13435
999657;13317
999665;13271
999674;13150
999682;13076
999690;12835
999698;12656
999706;12409
999715;12202
999723;11944
999731;11810
999739;11692
999750;11803
999759;11952
999767;12163
999775;12504
999783;12941
999791;13401
999800;13821
999808;14085
999816;14305
999824;14420
999832;14530
999841;14537
999849;14513
999857;14468
999865;14449
999873;14377
999881;14323
999890;14188
999898;14116
999906;14000
999914;13927
999922;13824
999931;13737
999939;13655
999947;13635
999955;13653
999963;13687
999972;13656
999980;13691
999988;13726
999996;13792
1000004;13739
1000013;13892
1000021;13960
1000029;14000
1000037;13968
1000048;14041
1000057;14043
1000065;14028
1000073;13971
1000081;14014
1000089;14017
1000098;14034
1000106;13957
1000115;13909
1000123;13774
1000131;13695
1000140;13624
1000148;13687
1000156;13609
1000164;13617
1000172;13576
1000180;13633
1000189;13676
1000197;13740
1000205;13752
1000213;13776
1000221;13727
1000230;13704
1000238;13602
1000246;13560
1000254;13502
1000262;14008
1000271;12621
1000279;9137
1000287;6026
1000295;7055
1000303;14164
1000312;15766
1000320;15150
1000328;14501
1000339;14233
1000347;14044
1000356;13837
1000364;13757
1000372;13634
1000380;13570
1000388;13440
1000397;13344
1000405;13167
1000413;13090
1000421;12950
1000430;12947
1000439;12760
1000447;12658
1000455;12419
1000463;12264
1000471;11923
1000479;11703
1000488;11389
1000496;11267
1000504;11173
1000512;11233
1000520;11244
1000529;11441
1000537;11723
1000545;12213
1000553;12640
1000561;13131
1000570;13498
1000578;13813
1000586;13900
1000594;14021
1000602;14091
1000611;14150
1000622;14153
1000630;14198
1000638;14087
1000646;14079
1000655;13964
1000663;13967
1000671;13821
1000679;13806
1000687;13746
1000696;13753
1000704;13680
1000712;13666
1000720;13599
1000728;13649
1000737;13618
1000746;13646
1000754;13620
1000762;13687
1000770;13654
1000778;13660
1000787;13598
1000795;13606
1000803;13551
1000811;13555
1000819;13491
1000828;13537
1000836;13529
1000844;13582
1000852;13511
1000860;13463
1000869;13296
1000877;13283
1000885;13278
1000893;13364
1000904;13381
1000913;13520
1000921;13542
1000929;13717
1000937;13763
1000945;13843
1000954;13781
1000962;13883
1000970;13853
1000978;13898
1000986;13838
1000995;13912
1001003;14156
1001011;12691
1001019;9171
1001027;6535
1001036;8430
1001044;15421
1001052;16174
1001060;15467
1001068;14756
1001078;14626
1001086;14341
1001094;14177
1001102;14098
1001110;14046
1001118;13968
1001127;13878
1001135;13772
1001143;13710
1001151;13680
1001159;13610
1001168;13475
1001176;13284
1001187;13054
1001195;12924
1001203;12571
1001212;12330
1001220;11970
1001228;11773
1001236;11619
1001244;11689
1001253;11750
1001261;11923
1001269;12083
1001277;12567
1001285;13067
1001294;13604
1001302;13989
1001310;14376
1001318;14528
1001326;14677
1001335;14736
1001343;14768
1001351;14769
1001359;14828
1001367;14764
1001375;14726
1001384;14648
1001393;14568
1001401;14511
1001409;14478
1001417;14448
1001426;14373
1001434;14342
1001442;14288
1001450;14270
1001458;14200
1001470;14233
1001478;14374
1001486;14305
1001494;14311
1001502;14216
1001511;14230
1001519;14145
1001527;14187
1001535;14151
1001543;14085
1001552;13988
1001560;13863
1001568;13779
1001576;13711
1001584;13633
1001593;13633
1001601;13647
1001609;13709
1001617;13766
1001625;13816
1001634;13878
1001642;13912
1001650;13904
1001658;13913
1001666;13932
1001674;13925
1001683;13924
1001691;13689
1001699;14046
1001708;13185
1001716;10159
1001725;7521
1001733;7796
1001741;14697
1001749;17032
1001759;15802
1001769;14955
1001777;14394
1001785;14080
1001793;13755
1001801;13422
1001810;13271
1001818;13143
1001826;12972
1001834;13069
1001842;13144
1001851;13077
1001859;12917
1001867;12732
1001875;12590
1001883;12480
1001892;12289
1001900;12044
1001908;11913
1001916;11743
1001924;11650
1001933;11502
1001941;11386
1001949;11441
1001957;11547
1001965;11771
1001974;12021
1001982;12532
1001990;12952
1001998;13407
1002006;13737
1002014;14044
1002023;14058
1002032;14292
1002042;14355
1002050;14325
1002058;14277
1002067;14192
1002075;14153
1002084;14016
1002092;13909
1002100;13885
1002109;13819
1002117;13777
1002125;13750
1002133;13670
1002141;13577
1002150;13637
1002158;13613
1002166;13595
1002174;13604
1002182;13654
1002191;13671
1002199;13818
1002207;13781
1002215;13809
1002223;13700
1002232;13757
1002240;13633
1002248;13698
1002256;13560
1002264;13649
1002273;13637
1002281;13845
1002289;13806
1002297;13867
1002305;13787
1002313;13941
1002325;13948
1002333;13916
1002341;13813
1002349;13717
1002358;13558
1002366;13803
1002374;13561
1002383;11365
1002391;7795
1002399;6360
1002408;11327
1002416;16195
1002424;15734
1002432;14919
1002440;14242
1002449;14048
1002457;13720
1002465;13702
1002473;13497
1002481;13534
1002490;13380
1002498;13413
1002506;13289
1002514;13338
1002522;13162
1002531;13158
1002539;12911
1002547;12847
1002555;12638
1002563;12571
1002572;12264
1002580;12127
1002588;11811
1002596;11689
1002607;11580
1002616;11584
1002624;11603
1002632;11837
1002640;12149
1002648;12630
1002657;13064
1002665;13662
1002673;14006
1002681;14322
1002690;14459
1002698;14713
1002707;14759
1002715;14852
1002723;14749
1002731;14778
1002739;14670
1002748;14738
1002756;14519
1002764;14610
1002772;14558
1002780;14601
1002789;14441
1002797;14443
1002805;14243
1002813;14273
1002821;14150
1002830;14282
1002838;14130
1002846;14256
1002854;14099
1002862;14191
1002871;14101
1002879;14190
1002890;14138
1002898;14206
1002906;13964
1002915;13866
1002923;13779
1002931;13849
1002939;13810
1002947;13974
1002956;13922
1002964;14052
1002972;14001
1002980;14138
1002988;14010
1002998;14063
1003006;13901
1003014;13958
1003022;13820
1003030;13848
1003038;13644
1003047;14114
1003055;12754
1003063;9509
1003071;6347
1003079;7362
1003088;14559
1003096;16151
1003104;15281
1003112;14621
1003120;14206
1003129;14130
1003137;13781
1003145;13770
1003153;13553
1003161;13536
1003170;13296
1003181;13375
1003189;13250
1003197;13127
1003205;12927
1003214;12952
1003222;12679
1003230;12712
1003238;12529
1003246;12376
1003255;12001
1003263;11864
1003271;11531
1003279;11486
1003287;11349
1003295;11551
1003304;11542
1003312;11841
1003321;12091
1003329;12635
1003337;12957
1003346;13527
1003354;13754
1003362;14049
1003370;14030
1003378;14114
1003387;14081
1003395;14213
1003403;14075
1003411;14129
1003419;14010
1003428;14085
1003436;13947
1003444;13976
1003452;13846
1003463;13945
1003472;13846
1003480;13896
1003488;13767
1003496;13885
1003504;13785
1003513;13850
1003521;13689
1003529;13874
1003537;13815
1003545;13880
1003554;13743
1003562;13837
1003570;13714
1003578;13770
1003586;13592
1003594;13499
1003603;13328
1003611;13450
1003619;13356
1003627;13463
1003636;13391
1003645;13564
1003653;13611
1003661;13831
1003669;13775
1003677;13837
1003686;13719
1003694;13834
1003702;13722
1003710;13803
1003718;13680
1003727;13698
1003735;13987
1003746;11915
1003754;8084
1003762;5984
1003771;9782
1003779;15915
1003787;15879
1003795;15113
1003803;14360
1003812;14220
1003820;13807
1003828;13791
1003836;13704
1003844;13753
1003853;13595
1003861;13675
1003869;13466
1003877;13493
1003885;13291
1003894;13310
1003902;13120
1003910;13046
1003918;12843
1003926;12758
1003934;12433
1003943;12215
1003951;11866
1003959;11730
1003968;11550
1003976;11645
1003985;11610
1003993;11777
1004001;11919
1004009;12353
1004017;12730
1004029;13606
1004037;13938
1004045;14236
1004053;14241
1004061;14444
1004070;14345
1004078;14456
1004086;14353
1004094;14448
1004102;14308
1004111;14379
1004119;14181
1004127;14228
1004135;14161
1004143;14222
1004152;14035
1004160;14084
1004168;14021
1004176;14123
1004184;14065
1004193;14140
1004201;14074
1004209;14109
1004217;14028
1004225;14054
1004233;14003
1004242;14100
1004250;13943
1004258;13904
1004266;13661
1004274;13523
1004284;13396
1004292;13479
1004300;13501
1004310;13636
1004318;13595
1004328;13771
1004336;13734
1004344;13844
1004352;13772
1004360;13846
1004369;13691
1004377;13796
1004385;13628
1004393;13643
1004401;13553
1004410;14134
1004418;12821
1004426;9467
1004434;6209
1004442;7305
1004451;14754
1004459;16287
1004467;15487
1004475;14788
1004483;14465
1004492;14251
1004500;13940
1004508;13891
1004516;13821
1004524;13803
1004532;13729
1004541;13619
1004549;13479
1004557;13407
1004565;13373
1004573;13262
1004582;13170
1004590;13003
1004601;12831
1004609;12685
1004617;12353
1004626;12152
1004634;11822
1004642;11803
1004650;11737
1004659;11829
1004668;11913
1004676;12168
1004684;12432
1004692;12930
1004700;13351
1004709;13779
1004717;14056
1004725;14321
1004733;14395
1004741;14520
1004750;14548
1004758;14594
1004766;14533
1004774;14489
1004782;14427
1004791;14370
1004799;14320
1004807;14337
1004815;14338
1004823;14296
1004831;14301
1004840;14252
1004848;14250
1004856;14224
1004864;14269
1004872;14259
1004884;14340
1004892;14456
1004900;14345
1004908;14389
1004916;14279
1004925;14244
1004933;14038
1004941;13934
1004949;13726
1004958;13675
1004967;13626
1004975;13716
1004983;13789
1004991;13920
1004999;13989
1005008;14014
1005016;14000
1005024;14012
1005032;13986
1005040;13962
1005049;13918
1005057;13817
1005065;13722
1005073;13813
1005081;13894
1005090;11852
1005098;8094
1005106;5816
1005114;9617
1005122;15891
1005130;15962
1005139;15092
1005147;14450
1005155;14134
1005166;13918
1005175;13815
1005183;13604
1005191;13555
1005199;13473
1005207;13409
1005215;13324
1005224;13202
1005232;13090
1005240;13037
1005248;12907
1005256;12747
1005265;12592
1005273;12433
1005281;12245
1005290;11967
1005298;11744
1005307;11570
1005315;11520
1005323;11491
1005331;11671
1005339;11786
1005348;12148
1005356;12509
1005364;12963
1005372;13341
1005380;13758
1005389;13975
1005397;14278
1005405;14344
1005413;14528
1005421;14487
1005430;14534
1005438;14420
1005449;14419
1005457;14429
1005465;14307
1005474;14274
1005482;14246
1005490;14169
1005498;14126
1005506;14059
1005514;14029
1005523;13950
1005531;13991
1005539;13963
1005547;13995
1005555;13944
1005564;13992
1005572;13961
1005580;14014
1005588;13921
1005596;13981
1005606;13869
1005614;13789
1005622;13521
1005630;13508
1005638;13461
1005647;13588
1005655;13568
1005663;13700
1005671;13664
1005679;13855
1005688;13828
1005696;13922
1005704;13849
1005712;13918
1005720;13812
1005732;13879
1005740;13874
1005748;13769
1005756;14179
1005764;13364
1005773;10198
1005781;6490
1005789;6050
1005797;13118
1005805;16083
1005814;15538
1005822;14644
1005830;14325
1005838;13990
1005846;13783
1005854;13554
1005863;13539
1005871;13381
1005879;13357
1005887;13205
1005895;13234
1005904;13052
1005912;13060
1005920;12857
1005928;12813
1005937;12630
1005946;12628
1005954;12358
1005962;12262
1005970;11942
1005978;11843
1005987;11578
1005995;11607
1006003;11547
1006011;11724
1006022;11969
1006031;12383
1006039;12718
1006047;13216
1006055;13602
1006063;13950
1006072;14115
1006080;14303
1006088;14336
1006096;14499
1006104;14404
1006113;14416
1006121;14318
1006129;14367
1006137;14258
1006145;14276
1006153;14143
1006162;14180
1006170;14104
1006178;14194
1006186;14104
1006194;14225
1006203;14093
1006211;14140
1006219;14052
1006227;14123
1006236;14057
1006245;14121
1006253;14046
1006261;14124
1006269;14040
1006277;14096
1006286;13917
1006294;13771
1006305;13686
1006313;13815
1006321;13775
1006330;13732
1006338;13712
1006346;13769
1006354;13790
1006362;13889
1006371;13802
1006379;13817
1006387;13733
1006395;13755
1006403;13662
1006412;13692
1006420;13539
1006428;13683
1006436;13788
1006444;11880
1006452;7839
1006461;5192
1006469;8501
1006477;15505
1006485;15852
1006493;15209
1006502;14576
1006510;14473
1006518;14094
1006526;14010
1006534;13862
1006543;13917
1006551;13788
1006560;13832
1006568;13701
1006576;13690
1006587;13541
1006595;13557
1006603;13331
1006612;13284
1006620;13040
1006629;12856
1006637;12460
1006645;12251
1006653;11907
1006661;11850
1006670;11675
1006678;11764
1006686;11760
1006694;11988
1006702;12135
1006711;12611
1006719;12988
1006727;13551
1006735;13823
1006743;14241
1006751;14360
1006760;14559
1006768;14547
1006776;14695
1006784;14565
1006792;14647
1006801;14445
1006809;14530
1006817;14395
1006825;14395
1006833;14222
1006842;14265
1006850;14123
1006858;14163
1006869;14119
1006877;14274
1006886;14100
1006894;14120
1006902;14010
1006910;14109
1006918;14038
1006928;14120
1006936;14034
1006944;14049
1006952;13824
1006960;13715
1006969;13470
1006977;13567
1006985;13485
1006993;13600
1007001;13484
1007010;13678
1007018;13646
1007026;13811
1007034;13702
1007042;13804
1007050;13727
1007059;13845
1007067;13717
1007075;13802
1007083;13662
1007091;13748
1007100;14064
1007108;12694
1007116;8952
1007124;5761
1007132;7467
1007141;15131
1007149;16014
1007160;15138
1007168;14608
1007176;14488
1007185;14021
1007193;13923
1007201;13675
1007209;13726
1007217;13521
1007226;13547
1007234;13357
1007243;13384
1007251;13191
1007259;13208
1007268;13003
1007276;12968
1007284;12672
1007292;12604
1007300;12324
1007309;12186
1007317;11848
1007325;11766
1007333;11639
1007341;11729
1007350;11727
1007358;11927
1007366;12120
1007374;12558
1007382;12935
1007390;13451
1007399;13767
1007407;14135
1007415;14252
1007423;14404
1007431;14429
1007443;14579
1007451;14479
1007459;14523
1007467;14406
1007475;14461
1007484;14334
1007492;14363
1007500;14229
1007508;14286
1007516;14127
1007525;14177
1007533;14074
1007542;14155
1007550;14034
1007558;14093
1007567;13988
1007575;14101
1007583;14001
1007591;14062
1007599;13990
1007608;13939
1007616;13741
1007624;13566
1007632;13344
1007640;13387
1007649;13352
1007657;13420
1007665;13345
1007673;13426
1007681;13500
1007689;13608
1007698;13538
1007706;13517
1007714;13490
1007725;13624
1007734;13588
1007742;13634
1007750;13471
1007758;13676
1007766;13652
1007774;11847
1007783;7839
1007791;5352
1007799;9227
1007807;15734
1007815;15658
1007824;14899
1007832;14280
1007840;14171
1007848;13823
1007856;13755
1007865;13588
1007874;13558
1007882;13445
1007890;13466
1007898;13372
1007907;13290
1007915;13158
1007923;13097
1007931;12997
1007939;12873
1007948;12750
1007956;12605
1007964;12439
1007972;12170
1007980;11902
1007988;11726
1007997;11617
1008008;11759
1008016;11797
1008024;11979
1008033;12065
1008041;12549
1008049;12899
1008057;13437
1008065;13650
1008073;14010
1008082;14084
1008090;14259
1008098;14228
1008106;14277
1008114;14196
1008123;14206
1008131;14122
1008139;14124
1008147;14038
1008155;14010
1008164;13990
1008172;13930
1008180;13929
1008189;13969
1008197;13890
1008206;13817
1008214;13800
1008222;13839
1008230;13896
1008238;13853
1008247;13911
1008255;13811
1008263;13856
1008271;13776
1008279;13663
1008291;13506
1008299;13514
1008307;13609
1008315;13573
1008323;13714
1008332;13723
1008340;13838
1008348;13860
1008356;13952
1008364;13950
1008372;13925
1008381;13902
1008389;13915
1008397;13872
1008405;13843
1008413;13818
1008422;14159
1008430;12660
1008438;9066
1008446;6518
1008454;8703
1008463;16090
1008471;16538
1008479;15740
1008487;14914
1008495;14566
1008504;14290
1008513;14063
1008521;13857
1008529;13814
1008537;13690
1008546;13693
1008554;13521
1008562;13538
1008570;13378
1008581;13322
1008590;13390
1008598;13170
1008606;12960
1008614;12661
1008622;12446
1008631;12227
1008639;12057
1008647;11923
1008655;11889
1008663;11927
1008671;11986
1008680;12183
1008688;12396
1008696;12787
1008704;13154
1008712;13549
1008721;13905
1008729;14264
1008737;14399
1008745;14588
1008753;14587
1008762;14657
1008770;14573
1008778;14605
1008786;14442
1008794;14497
1008803;14366
1008811;14373
1008819;14236
1008827;14326
1008836;14138
1008845;14181
1008853;14038
1008863;14094
1008872;14174
1008880;14190
1008889;14201
1008897;14161
1008905;14091
1008913;14075
1008921;13980
1008930;13825
1008938;13668
1008946;13646
1008954;13631
1008962;13740
1008970;13681
1008979;13841
1008987;13895
1008995;14002
1009003;14016
1009011;14111
1009020;14034
1009028;14055
1009036;13903
1009044;13932
1009052;13746
1009061;13746
1009069;14101
1009077;12895
1009085;9185
1009093;6190
1009102;7464
1009110;15233
1009118;16252
1009126;15545
1009134;14600
1009146;14418
1009154;14146
1009162;13924
1009170;13713
1009178;13643
1009187;13497
1009196;13469
1009204;13331
1009212;13334
1009220;13180
1009229;13106
1009237;12855
1009245;12793
1009253;12528
1009261;12462
1009270;12252
1009278;12082
1009286;11731
1009294;11642
1009302;11430
1009310;11537
1009319;11505
1009327;11782
1009335;11901
1009343;12383
1009351;12636
1009360;13177
1009368;13460
1009376;13824
1009384;13944
1009392;14234
1009401;14101
1009409;14237
1009417;14098
1009428;14244
1009436;14209
1009445;14233
1009453;14131
1009461;14118
1009469;13969
1009477;14021
1009486;13842
1009494;13892
1009503;13823
1009511;13928
1009519;13778
1009528;13879
1009536;13826
1009544;13956
1009552;13879
1009560;13997
1009569;13923
1009577;14052
1009585;13869
1009593;13820
1009601;13478
1009609;13591
1009618;13481
1009626;13628
1009634;13518
1009642;13646
1009650;13562
1009659;13856
1009667;13792
1009675;13949
1009683;13811
1009691;13925
1009700;13784
1009711;13949
1009719;13830
1009727;13782
1009735;14098
1009744;13417
1009752;10339
1009760;6598
1009768;5811
1009776;12861
1009785;16148
1009793;15676
1009801;14756
1009809;14508
1009817;14124
1009827;13942
1009835;13686
1009843;13761
1009851;13524
1009859;13580
1009868;13355
1009876;13443
1009884;13281
1009892;13320
1009900;13104
1009908;13118
1009917;12874
1009925;12835
1009933;12490
1009941;12383
1009949;12026
1009958;11915
1009966;11658
1009974;11805
1009982;11706
1009990;11967
1010002;12208
1010010;12647
1010018;12894
1010026;13305
1010034;13661
1010043;14181
1010051;14259
1010059;14519
1010067;14423
1010075;14578
1010084;14398
1010092;14565
1010100;14358
1010108;14470
1010116;14296
1010125;14362
1010133;14200
1010141;14268
1010149;14042
1010158;14244
1010167;14082
1010175;14163
1010183;14005
1010191;14160
1010199;14056
1010207;14182
1010216;14047
1010224;14159
1010232;14060
1010240;14223
1010248;14018
1010257;14005
1010265;13679
1010273;13638
1010284;13628
1010292;13781
1010301;13568
1010309;13776
1010317;13735
1010325;13937
1010333;13932
1010342;14043
1010350;13866
1010358;14022
1010366;13842
1010374;13893
1010383;13722
1010391;13896
1010399;13668
1010407;14277
1010415;13162
1010424;10031
1010432;6140
1010440;6198
1010448;13466
1010456;16149
1010465;15373
1010473;14668
1010482;14256
1010490;14150
1010498;13779
1010506;13753
1010515;13601
1010523;13623
1010531;13448
1010539;13444
1010547;13209
1010556;13232
1010567;13076
1010575;13109
1010583;12843
1010591;12878
1010600;12524
1010608;12448
1010616;12028
1010624;11892
1010632;11536
1010641;11587
1010649;11452
1010657;11612
1010665;11580
1010673;11967
1010682;12193
1010690;12724
1010698;13029
1010706;13575
1010714;13806
1010723;14143
1010731;14202
1010739;14370
1010747;14294
1010755;14396
1010764;14238
1010772;14268
1010780;14217
1010788;14288
1010797;14141
1010806;14193
1010814;14107
1010822;14129
1010830;14073
1010838;14129
1010850;13998
1010858;14112
1010866;14025
1010874;14128
1010882;13939
1010890;14065
1010899;13962
1010907;14103
1010915;13959
1010923;14026
1010931;13729
1010940;13651
1010948;13507
1010956;13650
1010964;13524
1010972;13643
1010981;13581
1010989;13740
1010997;13791
1011005;13969
1011013;13883
1011022;13901
1011030;13769
1011038;13836
1011046;13781
1011054;13826
1011063;13733
1011071;13755
1011079;14058
1011087;12529
1011095;8718
1011103;5701
1011113;8065
1011121;15352
1011129;15937
1011139;14932
1011148;14371
1011157;14296
1011165;13839
1011173;13827
1011181;13659
1011190;13680
1011198;13470
1011206;13466
1011214;13301
1011222;13317
1011230;13099
1011239;13114
1011247;12943
1011255;12879
1011263;12693
1011271;12633
1011280;12335
1011288;12113
1011296;11858
1011304;11782
1011312;11672
1011321;11727
1011329;11767
1011337;11918
1011345;12065
1011353;12513
1011362;12932
1011370;13331
1011378;13739
1011386;14044
1011394;14188
1011402;14280
1011412;14402
1011422;14538
1011430;14408
1011438;14504
1011447;14258
1011455;14276
1011464;14112
1011472;14149
1011480;14019
1011489;14011
1011497;13898
1011505;13973
1011513;13894
1011521;13904
1011529;13863
1011538;13965
1011546;13903
1011554;13980
1011562;13948
1011570;14000
1011579;13955
1011587;14040
1011595;14000
1011603;13891
1011611;13686
1011620;13648
1011628;13717
1011636;13723
1011644;13806
1011652;13803
1011661;13914
1011669;14017
1011677;14106
1011685;14053
1011693;14107
1011705;14132
1011713;14035
1011721;13997
1011729;13840
1011737;13882
1011746;14142
1011754;13786
1011762;11239
1011771;7477
1011779;6038
1011788;12056
1011796;16390
1011804;15849
1011812;14970
1011820;14452
1011828;14210
1011837;13923
1011845;13772
1011853;13590
1011861;13501
1011869;13518
1011878;13510
1011886;13430
1011894;13363
1011902;13275
1011910;13221
1011919;13049
1011927;13016
1011935;12871
1011943;12789
1011951;12456
1011960;12332
1011968;12012
1011976;11908
1011987;11892
1011995;11935
1012004;12061
1012012;12120
1012020;12436
1012028;12758
1012036;13238
1012045;13546
1012053;13904
1012061;14164
1012069;14360
1012078;14416
1012087;14407
1012095;14387
1012103;14338
1012111;14383
1012119;14291
1012127;14348
1012136;14268
1012144;14263
1012152;14132
1012160;14189
1012168;14153
1012177;14231
1012185;14164
1012193;14295
1012201;14162
1012209;14250
1012218;14154
1012226;14286
1012234;14138
1012242;14217
1012250;14017
1012259;13991
1012270;13894
1012278;13902
1012286;13845
1012294;13813
1012303;13812
1012311;13879
1012319;13927
1012327;14009
1012335;14001
1012344;14029
1012352;13973
1012360;13962
1012368;13892
1012376;13903
1012385;13779
1012394;13802
1012402;14154
1012410;12953
1012418;9402
1012426;6598
1012435;7504
1012443;15283
1012451;16557
1012459;15752
1012467;14812
1012476;14487
1012484;14134
1012492;13947
1012500;13638
1012508;13654
1012517;13464
1012525;13487
1012533;13320
1012541;13365
1012549;13152
1012561;13139
1012569;13027
1012577;12906
1012585;12730
1012593;12625
1012602;12312
1012610;12125
1012618;11843
1012626;11735
1012634;11567
1012643;11645
1012651;11614
1012659;11815
1012667;11919
1012675;12367
1012684;12744
1012692;13292
1012700;13577
1012708;13935
1012716;13961
1012724;14223
1012733;14242
1012742;14421
1012750;14275
1012758;14338
1012766;14191
1012775;14299
1012783;14110
1012791;14184
1012799;14026
1012807;14116
1012816;13848
1012824;14012
1012832;13888
1012843;13969
1012851;14003
1012860;13998
1012868;13906
1012876;13954
1012884;13941
1012892;14065
1012901;13931
1012909;14024
1012917;13905
1012925;13852
1012933;13584
1012942;13680
1012950;13602
1012958;13739
1012966;13657
1012974;13783
1012983;13725
1012991;13986
1012999;13962
1013007;14088
1013015;13954
1013023;14075
1013032;13849
1013040;13981
1013048;13795
1013057;13883
1013065;14035
1013074;13863
1013082;11286
1013090;7549
1013098;5649
1013106;11045
1013115;16054
1013126;15727
1013134;14904
1013142;14650
1013150;14292
1013159;14148
1013167;13942
1013175;13922
1013183;13754
1013191;13836
1013200;13655
1013208;13665
1013216;13488
1013224;13496
1013232;13253
1013241;13238
1013249;12953
1013257;12903
1013265;12571
1013273;12495
1013282;12064
1013290;11987
1013298;11734
1013306;11812
1013314;11685
1013322;11958
1013331;12008
1013339;12376
1013347;12653
1013355;13276
1013363;13506
1013373;14037
1013381;14122
1013389;14367
1013397;14343
1013407;14549
1013416;14492
1013425;14551
1013433;14320
1013441;14382
1013449;14284
1013458;14349
1013466;14153
1013474;14274
1013482;14098
1013490;14142
1013499;13945
1013507;14084
1013515;13865
1013523;13994
1013531;13805
1013540;13922
1013548;13782
1013556;13928
1013564;13822
1013572;13935
1013581;13634
1013589;13577
1013597;13438
1013605;13675
1013613;13550
1013622;13694
1013630;13638
1013638;13842
1013646;13834
1013654;14018
1013662;13877
1013671;13996
1013679;13787
1013690;13896
1013698;13721
1013706;13853
1013715;13552
1013723;14050
1013732;13102
1013740;10371
1013748;6479
1013757;5926
1013765;12795
1013773;16039
1013781;15281
1013789;14594
1013798;14103
1013806;14070
1013814;13629
1013822;13647
1013830;13418
1013839;13469
1013847;13326
1013855;13375
1013863;13176
1013871;13250
1013880;13104
1013888;13120
1013896;12884
1013904;12929
1013912;12754
1013921;12672
1013929;12339
1013937;12154
1013945;11818
1013953;11838
1013961;11691
1013973;11927
1013981;11954
1013989;12229
1013997;12343
1014006;12877
1014014;13143
1014022;13622
1014030;13788
1014038;14143
1014047;14104
1014056;14390
1014064;14330
1014072;14451
1014080;14300
1014088;14398
1014097;14212
1014105;14295
1014113;14128
1014121;14178
1014129;13962
1014138;14014
1014146;13854
1014154;13927
1014162;13724
1014170;13860
1014179;13753
1014187;13865
1014195;13774
1014203;13916
1014211;13852
1014220;13916
1014228;13742
1014236;13575
1014244;13387
1014252;13482
1014264;13449
1014272;13613
1014280;13497
1014288;13711
1014296;13676
1014305;13898
1014313;13740
1014321;13832
1014329;13646
1014337;13760
1014345;13585
1014354;13736
1014363;13583
1014371;13775
1014379;13902
1014387;12378
1014396;8526
1014404;5704
1014412;8553
1014420;15686
1014428;15873
1014437;15191
1014445;14494
1014453;14443
1014461;14100
1014469;13973
1014478;13778
1014486;13742
1014494;13563
1014502;13528
1014510;13417
1014519;13412
1014527;13461
1014535;13498
1014546;13299
1014554;13398
1014563;13052
1014571;13042
1014579;12677
1014587;12596
1014595;12232
1014604;12199
1014612;12010
1014620;12212
1014628;12247
1014636;12537
1014644;12685
1014653;13161
1014661;13441
1014669;13925
1014677;14100
1014686;14411
1014695;14499
1014703;14690
1014711;14582
1014719;14660
1014727;14582
1014736;14621
1014744;14440
1014752;14357
1014760;14197
1014768;14188
1014777;14045
1014785;13945
1014793;13847
1014801;13832
1014809;13768
1014818;13788
1014829;13804
1014837;14043
1014845;13846
1014853;13945
1014862;13655
1014870;13611
1014878;13340
1014886;13467
1014894;13318
1014903;13450
1014911;13389
1014919;13535
1014927;13538
1014935;13590
1014943;13461
1014952;13511
1014960;13371
1014968;13436
1014976;13358
1014984;13396
1014993;13229
1015001;13175
1015010;13772
1015018;12851
1015026;9528
1015035;5643
1015043;5941
1015051;13898
1015059;16040
1015067;15413
1015076;14758
1015084;14502
1015092;14229
1015100;13969
1015111;13840
1015120;13953
1015128;13764
1015136;13812
1015144;13648
1015152;13672
1015161;13546
1015169;13560
1015177;13316
1015185;13270
1015193;13033
1015202;12886
1015210;12586
1015218;12441
1015226;12234
1015234;12145
1015242;12059
1015251;12100
1015259;12142
1015267;12296
1015275;12545
1015283;12942
1015292;13381
1015300;13837
1015308;14131
1015316;14380
1015324;14575
1015333;14734
1015342;14912
1015350;14990
1015358;15086
1015366;15031
1015375;15020
1015383;14892
1015391;14871
1015402;14936
1015410;14857
1015419;14842
1015427;14719
1015435;14738
1015443;14684
1015451;14755
1015460;14696
1015468;14678
1015476;14512
1015484;14382
1015492;14206
1015501;14011
1015509;13846
1015517;13860
1015525;13928
1015533;13864
1015542;13955
1015550;14089
1015558;14160
1015566;14178
1015574;14252
1015582;14142
1015591;14096
1015599;14022
1015607;14084
1015615;13983
1015623;14262
1015632;14356
1015640;12083
1015648;8037
1015656;5723
1015665;9959
1015674;16156
1015684;15837
1015692;15283
1015700;14863
1015708;14591
1015718;14318
1015726;14100
1015734;14018
1015742;13913
1015750;13843
1015759;13791
1015767;13663
1015775;13630
1015783;13503
1015791;13401
1015800;13225
1015808;13095
1015816;12909
1015824;12712
1015832;12397
1015841;12230
1015849;12050
1015857;11993
1015865;11890
1015873;12023
1015881;12092
1015890;12331
1015898;12529
1015906;13014
1015914;13372
1015922;13831
1015931;13997
1015939;14311
1015947;14344
1015955;14571
1015966;14682
1015975;14733
1015983;14710
1015991;14659
1015999;14630
1016007;14581
1016016;14442
1016025;14420
1016033;14357
1016041;14366
1016049;14315
1016058;14337
1016066;14247
1016074;14190
1016082;14026
1016090;13939
1016099;13771
1016107;13704
1016115;13587
1016123;13579
1016131;13506
1016140;13592
1016148;13556
1016156;13720
1016164;13653
1016172;13762
1016180;13641
1016189;13797
1016197;13735
1016205;13547
1016213;13380
1016221;13483
1016230;13375
1016238;14129
1016249;11892
1016257;7716
1016265;4745
1016274;7933
1016282;14925
1016290;15419
1016298;14821
1016306;14322
1016315;14052
1016323;13848
1016332;13613
1016340;13569
1016348;13501
1016357;13492
1016365;13352
1016373;13382
1016381;13209
1016389;13180
1016398;13032
1016406;13015
1016414;12807
1016422;12672
1016430;12438
1016439;12253
1016447;11908
1016455;11779
1016463;11499
1016471;11584
1016479;11531
1016488;11753
1016496;11862
1016504;12214
1016512;12449
1016520;12971
1016532;13464
1016540;13846
1016548;13955
1016556;14095
1016564;14122
1016573;14252
1016581;14141
1016589;14185
1016597;14086
1016605;14031
1016614;13896
1016622;13914
1016630;13814
1016639;13842
1016647;13729
1016656;13844
1016664;13676
1016672;13780
1016680;13734
1016688;13866
1016697;13751
1016705;13878
1016713;13606
1016721;13607
1016729;13507
1016738;13617
1016746;13489
1016754;13663
1016762;13658
1016770;13847
1016778;13846
1016787;14043
1016795;13953
1016803;14060
1016811;13954
1016823;14085
1016831;14017
1016839;14027
1016847;13815
1016855;14630
1016863;13715
1016872;9998
1016880;5278
1016888;4845
1016896;12453
1016904;15750
1016913;15431
1016921;15044
1016929;14749
1016937;14607
1016945;14268
1016954;14235
1016963;14014
1016971;14023
1016979;13851
1016987;13904
1016996;13748
1017004;13770
1017012;13569
1017020;13563
1017028;13336
1017037;13257
1017045;12945
1017053;12844
1017061;12508
1017069;12421
1017078;12126
1017086;12178
1017094;12096
1017105;12397
1017113;12448
1017122;12713
1017130;12957
1017138;13423
1017146;13667
1017154;14088
1017162;14204
1017171;14471
1017179;14438
1017187;14589
1017195;14426
1017203;14448
1017212;14258
1017220;14304
1017228;14146
1017236;14220
1017244;14048
1017253;14097
1017261;13964
1017270;14088
1017278;13907
1017286;13943
1017295;13806
1017303;14005
1017311;13902
1017319;13973
1017327;13722
1017336;13689
1017344;13484
1017352;13573
1017360;13461
1017368;13556
1017377;13477
1017388;13812
1017396;13852
1017404;13995
1017412;13820
1017421;13930
1017429;13831
1017437;13959
1017445;13782
1017453;13840
1017462;13640
1017470;13748
1017478;14220
1017486;12616
1017494;8085
1017502;4268
1017511;5930
1017519;14073
1017527;15282
1017535;14963
1017543;14379
1017552;14376
1017560;14009
1017568;13964
1017576;13710
1017584;13708
1017593;13501
1017602;13441
1017610;13211
1017618;13235
1017626;13089
1017635;13127
1017643;12967
1017651;12984
1017659;12769
1017679;12729
1017687;12639
1017695;12221
1017703;12145
1017711;11943
1017720;12099
1017728;12041
1017736;12321
1017744;12409
1017752;12956
1017761;13277
1017769;13771
1017777;13982
1017785;14362
1017793;14399
1017801;14545
1017810;14449
1017818;14601
1017826;14455
1017834;14497
1017842;14343
1017851;14374
1017859;14209
1017867;14238
1017875;14067
1017883;14113
1017892;13990
1017900;14052
1017908;14005
1017917;14068
1017925;14035
1017934;14079
1017942;13982
1017950;13940
1017958;13713
1017968;13755
1017978;13640
1017986;13682
1017994;13604
1018002;13757
1018010;13687
1018019;13923
1018027;13838
1018035;13928
1018043;13710
1018051;13789
1018060;13612
1018068;13689
1018076;13542
1018084;13565
1018092;13631
1018100;14247
1018109;12207
1018117;8065
1018125;4560
1018133;7582
1018141;15016
1018150;15684
1018158;15035
1018166;14614
1018174;14408
1018182;14229
1018191;13962
1018199;13885
1018207;13802
1018215;13838
1018223;13707
1018232;13602
1018240;13503
1018251;13552
1018259;13422
1018267;13390
1018276;13140
1018285;13068
1018293;12749
1018301;12667
1018309;12412
1018318;12323
1018326;12120
1018334;12194
1018342;12143
1018350;12318
1018359;12418
1018367;12816
1018375;13170
1018383;13656
1018391;13977
1018399;14261
1018408;14459
1018416;14663
1018424;14701
1018432;14857
1018440;14839
1018449;14871
1018457;14812
1018465;14816
1018473;14745
1018481;14740
1018490;14705
1018498;14673
1018506;14592
1018514;14592
1018522;14606
1018534;14606
1018542;14614
1018550;15426
1018558;15029
1018566;14817
1018575;14534
1018583;14488
1018591;14308
1018600;14353
1018608;14263
1018617;14332
1018625;14347
1018633;14422
1018641;14312
1018649;14285
1018658;14188
1018666;14220
1018674;14165
1018682;14148
1018690;14004
1018698;13899
1018707;14425
1018715;13575
1018723;9987
1018731;6668
1018739;6182
1018748;13333
1018756;16418
1018764;15695
1018772;15054
1018780;14414
1018789;14315
1018797;13926
1018805;13775
1018816;13673
1018824;13611
1018833;13555
1018841;13431
1018849;13367
1018857;13264
1018865;13182
1018874;13110
1018882;13010
1018890;12804
1018898;12597
1018906;12362
1018916;12138
1018924;11956
1018932;11745
1018940;11709
1018948;11719
1018957;11864
1018965;12022
1018973;12282
1018981;12615
1018989;12887
1018998;13154
1019006;13612
1019014;13828
1019022;14068
1019030;14075
1019038;14138
1019047;14057
1019055;14121
1019063;14001
1019071;14064
1019079;13882
1019088;13971
1019099;13861
1019107;13806
1019115;13730
1019123;13639
1019132;13426
1019140;13548
1019148;13470
1019156;13363
1019164;13262
1019173;13202
1019181;13452
1019189;13098
1019197;12710
1019205;12856
1019214;12924
1019222;13036
1019231;13107
1019239;13329
1019247;13332
1019256;13460
1019264;13404
1019272;13467
1019280;13380
1019288;13461
1019297;13363
1019305;13397
1019313;13620
1019321;13774
1019329;11111
1019337;7013
1019346;4374
1019354;9277
1019362;15273
1019370;15520
1019378;14924
1019390;14652
1019398;14450
1019406;14187
1019414;13998
1019422;13946
1019431;13777
1019439;13767
1019447;13653
1019455;13628
1019463;13424
1019472;13389
1019480;13164
1019488;13074
1019496;12835
1019504;12678
1019513;12372
1019521;12250
1019529;11946
1019537;11854
1019545;11606
1019554;11760
1019563;11711
1019571;11940
1019579;11977
1019587;12360
1019596;12633
1019604;13188
1019612;13413
1019620;13817
1019628;13961
1019636;14174
1019645;13929
1019653;14110
1019661;14033
1019672;14135
1019681;14084
1019689;14087
1019697;13989
1019705;14009
1019713;13875
1019721;13874
1019730;13800
1019738;13903
1019746;13836
1019754;13951
1019762;13896
1019771;14008
1019779;13865
1019787;13767
1019795;13563
1019803;13624
1019812;13506
1019820;13569
1019828;13491
1019836;13695
1019844;13664
1019853;13874
1019861;13906
1019869;13913
1019878;13753
1019886;13885
1019895;13722
1019903;13802
1019911;13652
1019919;13730
1019927;13904
1019935;14174
1019944;11495
1019955;5452
1019963;4508
1019971;12102
1019980;15517
1019988;15297
1019996;14723
1020004;14647
1020012;14363
1020020;14207
1020029;13996
1020037;14085
1020045;13902
1020053;13956
1020061;13776
1020070;13833
1020078;13632
1020086;13667
1020094;13471
1020102;13502
1020111;13215
1020119;13163
1020127;12812
1020135;12709
1020143;12309
1020152;12228
1020160;11976
1020168;12115
1020176;12036
1020184;12296
1020193;12359
1020202;12765
1020210;13091
1020218;13644
1020226;13905
1020237;14490
1020246;14561
1020254;14726
1020262;14720
1020270;14830
1020279;14667
1020287;14702
1020295;14494
1020303;14489
1020311;14338
1020319;14430
1020328;14236
1020336;14201
1020344;13877
1020352;13959
1020360;13841
1020369;13945
1020377;13823
1020385;13921
1020393;13793
1020401;13824
1020410;13546
1020418;13566
1020426;13468
1020434;13606
1020442;13506
1020451;13657
1020459;13616
1020467;13848
1020475;13804
1020483;13929
1020492;13788
1020500;13890
1020508;13763
1020519;14040
1020527;13691
1020536;13675
