Tempo (ms);Valor
900500;14430
900508;14381
900517;14235
900525;14158
900533;14059
900541;14019
900549;13822
900558;13823
900566;13767
900574;13804
900582;13627
900590;13740
900599;13694
900607;13634
900615;13592
900623;13521
900631;13474
900639;13486
900648;13405
900656;13470
900664;13662
900672;13693
900680;13668
900689;13654
900697;13596
900705;13526
900713;13559
900721;13604
900730;13596
900738;13538
900746;13499
900754;13417
900762;13415
900771;13380
900779;13316
900787;13371
900798;13443
900806;13573
900815;13495
900823;13532
900831;13387
900839;13412
900847;13319
900856;13409
900864;12688
900872;11035
900880;9275
900888;9685
900897;12641
900905;16294
900913;15938
900921;15073
900929;14360
900937;13967
900946;13677
900954;13395
900962;13290
900970;13209
900978;13148
900987;13150
900995;13097
901003;13017
901011;12962
901019;12989
901028;12939
901036;12829
901044;12725
901052;12592
901060;12511
901069;12291
901077;12079
901085;11868
901093;11782
901104;11826
901113;11954
901121;12022
901129;12185
901137;12472
901145;12852
901154;13351
901162;13740
901170;14011
901178;14212
901186;14404
901194;14454
901203;14491
901211;14517
901219;14440
901227;14416
901235;14370
901244;14401
901252;14351
901260;14381
901268;14319
901276;14295
901285;14199
901293;14214
901301;14134
901309;14106
901317;13989
901326;14009
901334;13946
901342;13993
901350;13936
901358;13999
901367;13959
901375;13989
901383;13947
901391;13983
901402;14032
901411;14070
901419;14017
901427;14011
901435;13924
901443;13952
901452;13881
901460;13853
901468;13858
901476;13881
901484;13853
901492;13848
901501;13857
901509;13873
901517;13759
901525;13786
901533;13731
901542;13763
901550;13713
901558;13731
901566;13671
901574;13716
901583;13621
901591;13706
901599;13620
901607;13624
901615;13574
901624;13643
901632;13590
901640;13670
901648;13557
901656;13605
901665;13539
901673;13574
901681;13496
901689;13436
901697;13305
901709;13248
901717;13178
901725;13182
901733;13189
901741;13244
901750;13205
901758;13221
901766;13255
901774;13487
901782;13525
901790;13558
901799;13436
901807;13404
901815;13549
901823;12824
901831;10464
901840;8146
901848;7958
901856;13001
901864;15967
901872;15701
901881;14930
901889;14421
901897;14082
901905;13789
901913;13585
901922;13508
901930;13432
901938;13387
901946;13266
901954;13237
901962;13159
901971;13145
901979;13034
901987;12963
901995;12827
902007;12690
902015;12508
902023;12331
902031;12010
902039;11800
902047;11523
902056;11384
902064;11261
902072;11385
902080;11465
902088;11719
902097;11994
902105;12515
902113;12993
902121;13464
902129;13750
902138;14005
902146;14067
902154;14235
902162;14269
902170;14304
902179;14240
902187;14210
902195;14177
902203;14186
902211;14120
902220;14088
902228;14095
902236;14038
902244;13964
902252;13864
902260;13860
902269;13769
902277;13726
902285;13687
902293;13670
902301;13598
902312;13619
902320;13654
902328;13628
902336;13698
902344;13695
902353;13688
902361;13641
902369;13679
902377;13685
902385;13680
902394;13675
902402;13704
902410;13694
902418;13737
902426;13786
902435;13792
902443;13800
902452;13822
902460;13828
902468;13811
902477;13851
902485;13780
902493;13776
902501;13744
902509;13745
902518;13713
902526;13712
902534;13685
902542;13720
902550;13659
902558;13626
902567;13567
902575;13616
902583;13506
902591;13521
902599;13379
902608;13229
902618;13291
902626;13407
902634;13365
902642;13404
902651;13351
902659;13385
902667;13399
902675;13559
902683;13497
902692;13516
902700;13380
902708;13297
902716;13338
902724;13077
902733;11426
902741;7994
902749;6353
902757;9793
902765;15188
902774;15712
902782;14998
902790;14481
902798;14122
902806;13933
902814;13712
902823;13709
902831;13575
902839;13525
902847;13406
902855;13383
902864;13224
902872;13204
902880;13123
902888;13105
902896;12922
902905;12837
902916;12630
902924;12555
902932;12220
902940;11924
902949;11584
902957;11401
902965;11210
902973;11253
902981;11258
902990;11515
902998;11787
903006;12304
903014;12726
903022;13259
903031;13606
903039;13904
903047;14031
903055;14185
903063;14266
903071;14296
903080;14212
903088;14263
903096;14220
903104;14240
903112;14192
903121;14250
903129;14207
903137;14196
903145;14105
903153;14120
903162;14077
903170;14108
903178;14109
903186;14124
903194;14088
903203;14074
903211;14000
903222;14029
903230;14062
903238;14111
903247;14033
903255;14030
903263;13999
903271;14045
903279;13932
903288;13683
903296;13492
903304;13452
903312;13441
903320;13604
903329;13676
903337;13750
903345;13687
903353;13699
903361;13657
903369;13662
903378;13639
903386;13527
903394;13547
903402;13623
903410;13615
903419;13599
903427;13549
903435;13437
903443;13333
903451;13246
903460;13273
903468;13304
903476;13304
903484;13073
903492;13210
903501;13398
903509;13560
903520;13705
903528;13724
903536;13669
903545;13569
903553;13494
903561;13621
903569;13146
903577;11355
903586;7884
903594;6652
903602;10582
903610;15383
903618;15529
903626;14812
903635;14277
903643;14045
903651;13764
903659;13662
903667;13483
903676;13427
903684;13338
903692;13310
903700;13315
903708;13323
903717;13238
903725;13267
903733;13138
903741;13088
903749;12913
903758;12845
903766;12624
903774;12471
903782;12170
903790;11944
903799;11676
903807;11631
903815;11512
903826;11703
903834;11819
903843;12147
903851;12674
903859;13202
903867;13631
903875;14030
903884;14279
903892;14482
903900;14559
903908;14672
903916;14631
903924;14629
903933;14573
903941;14575
903949;14494
903957;14478
903965;14387
903974;14407
903982;14342
903990;14372
903998;14315
904006;14328
904015;14254
904023;14301
904031;14206
904039;14228
904047;14160
904056;14248
904064;14199
904072;14285
904080;14237
904088;14279
904097;14254
904105;14301
904113;14201
904121;14239
904132;14252
904141;14345
904149;14285
904157;14292
904165;14178
904173;14115
904182;13898
904190;13931
904198;13859
904206;13927
904214;13841
904222;13922
904231;13906
904239;14084
904247;14119
904255;14174
904263;14064
904272;14080
904280;13981
904288;13975
904296;13849
904304;14159
904313;13152
904321;10244
904329;7178
904337;7619
904345;13891
904354;15929
904362;15413
904370;14442
904378;13914
904386;13480
904394;13195
904403;13165
904411;13023
904419;13110
904429;13209
904438;13098
904446;12751
904454;12743
904462;12642
904470;12657
904478;12526
904487;12465
904495;12261
904503;12098
904511;11803
904519;11563
904528;11221
904536;10988
904544;10771
904552;10782
904561;10804
904570;10939
904578;11130
904586;11653
904594;12349
904602;12995
904611;13492
904619;13855
904627;14132
904635;14297
904643;14439
904652;14541
904660;14556
904668;14569
904676;14547
904684;14454
904692;14384
904701;14263
904709;14248
904717;14154
904725;14143
904735;14229
904744;14238
904752;14213
904760;14118
904768;14114
904776;14048
904785;14012
904793;13976
904801;14107
904809;14156
904817;14205
904826;14197
904834;14159
904842;14121
904850;14101
904858;14088
904867;13957
904875;13930
904883;13932
904891;13960
904899;13947
904908;13931
904916;13810
904924;13694
904932;13520
904940;13525
904948;13513
904957;13588
904965;13530
904973;13587
904981;13648
904989;13748
904998;13790
905006;13848
905014;13786
905022;13828
905030;13775
905042;13833
905050;13828
905058;14030
905066;12896
905074;9805
905083;7003
905091;8126
905099;14830
905107;16531
905115;15724
905124;14898
905132;14480
905140;14211
905148;13901
905156;13842
905165;13679
905173;13610
905181;13450
905189;13549
905197;13394
905206;13415
905214;13223
905222;13197
905230;13057
905238;12958
905246;12680
905255;12498
905263;12215
905271;12169
905279;11900
905287;11794
905296;11502
905304;11503
905312;11452
905320;11603
905328;11743
905340;12403
905348;12857
905356;13421
905364;13783
905372;14148
905381;14276
905389;14443
905397;14420
905405;14394
905413;14256
905422;14261
905430;14143
905438;14158
905446;14136
905454;14221
905463;14152
905471;14140
905479;13985
905487;13938
905495;13837
905503;13821
905512;13723
905520;13707
905528;13611
905536;13575
905544;13469
905553;13447
905561;13359
905569;13385
905577;13307
905585;13375
905594;13394
905602;13457
905610;13495
905618;13572
905626;13573
905635;13576
905646;13573
905654;13709
905662;13667
905670;13726
905679;13657
905687;13713
905695;13501
905703;13374
905711;13229
905720;13285
905728;13228
905736;13287
905744;13225
905752;13330
905761;13416
905769;13563
905777;13607
905785;13649
905793;13637
905801;13615
905810;13560
905818;13525
905826;13548
905834;13400
905842;11643
905851;8080
905859;6313
905867;9913
905875;16085
905883;16313
905892;15399
905900;14673
905908;14478
905916;14168
905924;14042
905933;13946
905941;13818
905952;13805
905960;13782
905968;13769
905977;13691
905985;13671
905993;13566
906001;13521
906009;13371
906018;13261
906026;13095
906034;12886
906042;12606
906050;12340
906058;12107
906067;11979
906075;11898
906083;11961
906091;12078
906099;12239
906108;12590
906116;12975
906124;13486
906132;13925
906140;14323
906149;14551
906157;14737
906165;14804
906173;14863
906181;14796
906190;14803
906198;14719
906206;14719
906214;14665
906222;14701
906231;14600
906239;14556
906250;14440
906258;14434
906266;14324
906275;14232
906283;14126
906291;14109
906299;14006
906307;13973
906316;13874
906324;13845
906332;13807
906340;13780
906348;13713
906356;13706
906365;13645
906373;13563
906381;13462
906389;13437
906397;13316
906406;13323
906414;13265
906422;13249
906430;13162
906438;13214
906447;13157
906455;13186
906463;12962
906471;12835
906479;12675
906488;12711
906496;12662
906504;12719
906512;12720
906520;12911
906529;12999
906537;13249
906545;13350
906556;13531
906564;13592
906573;13642
906581;13578
906589;13552
906597;13522
906605;13708
906614;12312
906622;9147
906630;7127
906638;9374
906646;16200
906654;16866
906663;15850
906671;14890
906679;14480
906687;14292
906695;13959
906704;13887
906712;13752
906720;13774
906728;13637
906736;13572
906745;13425
906753;13408
906761;13252
906769;13202
906777;13024
906786;12917
906794;12725
906802;12613
906810;12327
906818;12162
906826;11829
906835;11679
906843;11556
906851;11580
906862;11724
906871;12007
906879;12198
906887;12604
906895;13020
906903;13505
906911;13860
906920;14206
906928;14346
906936;14527
906944;14555
906952;14611
906961;14568
906969;14611
906977;14537
906985;14516
906993;14380
907002;14337
907010;14235
907018;14201
907026;14152
907034;14176
907043;14091
907051;14105
907059;14069
907067;14055
907075;14045
907084;14090
907092;14100
907100;14084
907108;14098
907116;14176
907124;14245
907133;14250
907141;14213
907149;14119
907160;13881
907169;13856
907177;13753
907185;13754
907193;13728
907201;13823
907209;13879
907218;13990
907226;13982
907234;14012
907242;13945
907250;13983
907259;13915
907267;13862
907275;13737
907283;13918
907291;13453
907300;11122
907308;7974
907316;7462
907324;12826
907332;17449
907341;16710
907349;15689
907357;14761
907365;14275
907373;13986
907382;13635
907390;13467
907398;13412
907406;13424
907414;13377
907422;13369
907431;13225
907439;13111
907447;13009
907455;12929
907466;12808
907475;12722
907483;12505
907491;12237
907499;11993
907507;11739
907516;11445
907524;11318
907532;11317
907540;11443
907548;11637
907557;11994
907565;12431
907573;12957
907581;13470
907589;13917
907598;14219
907606;14470
907614;14588
907622;14684
907630;14733
907639;14783
907647;14692
907655;14603
907663;14409
907671;14307
907679;14125
907688;14018
907696;13827
907704;13760
907712;13655
907720;13724
907729;13678
907737;13733
907745;13635
907753;13695
907761;13646
907772;13754
907780;13735
907788;13767
907796;13729
907804;13754
907813;13641
907821;13609
907829;13435
907837;13381
907845;13325
907854;13396
907862;13368
907870;13429
907878;13465
907886;13655
907895;13669
907903;13756
907911;13683
907919;13722
907927;13657
907935;13690
907944;13582
907952;13559
907960;13893
907968;12761
907976;9565
907985;6955
907993;7858
908002;15208
908010;16765
908018;16114
908027;15140
908035;14704
908043;14411
908051;14127
908059;13846
908070;13741
908078;13672
908086;13633
908094;13486
908102;13473
908111;13320
908119;13239
908127;13056
908135;12970
908143;12749
908152;12548
908160;12216
908168;11965
908176;11581
908184;11345
908193;11087
908201;11074
908209;11062
908217;11198
908225;11318
908233;11679
908242;12062
908250;12543
908258;12937
908266;13341
908274;13609
908283;13804
908291;13896
908299;13975
908307;13945
908315;13991
908324;13913
908332;13878
908340;13872
908348;13880
908356;13866
908365;13868
908376;13942
908384;14076
908392;14011
908400;14052
908409;14007
908417;14046
908425;14079
908433;14142
908441;14158
908450;14165
908458;14105
908466;14112
908474;14058
908482;14060
908490;14035
908499;14043
908507;14043
908515;13999
908523;13798
908531;13594
908540;13444
908548;13348
908556;13338
908564;13328
908572;13341
908581;13418
908589;13514
908597;13569
908605;13588
908613;13612
908622;13645
908630;13654
908638;13596
908646;13475
908654;13389
908663;13697
908674;11882
908682;8283
908690;6037
908698;8887
908707;15588
908715;16292
908723;15496
908731;14705
908739;14401
908748;14068
908756;13867
908764;13782
908772;13688
908780;13574
908788;13540
908797;13524
908805;13517
908813;13448
908821;13340
908829;13249
908838;13191
908846;13068
908854;12898
908862;12715
908870;12585
908879;12291
908887;12089
908895;11819
908903;11833
908911;11585
908920;11735
908928;11878
908936;12310
908944;12637
908952;13193
908961;13690
908969;14131
908980;14367
908988;14518
908996;14514
909005;14560
909013;14477
909021;14580
909029;14467
909037;14325
909046;14240
909054;14201
909062;14075
909070;14005
909078;13902
909086;13905
909095;13740
909103;13725
909111;13802
909119;13718
909127;13116
909136;13389
909144;13513
909152;13533
909160;13392
909168;13378
909177;13314
909185;13393
909193;13348
909201;13394
909209;13340
909218;13325
909226;13155
909234;13036
909242;13001
909250;13082
909258;13021
909267;12888
909275;12530
909286;12389
909294;12398
909303;12078
909311;11922
909319;11998
909327;11991
909335;12167
909343;12099
909352;12001
909360;12108
909368;11990
909376;9759
909384;6014
909393;4012
909401;9460
909409;15089
909417;16339
909425;15903
909434;15508
909442;15316
909450;15050
909458;14881
909466;14858
909475;14752
909483;14648
909491;14529
909499;14476
909507;14323
909516;14197
909524;14006
909532;13893
909540;13707
909548;13545
909556;13341
909565;13100
909573;12862
909581;12643
909592;12381
909601;12386
909609;12326
909617;12396
909625;12469
909633;12688
909641;12914
909650;13311
909658;13704
909666;14135
909674;14374
909682;14624
909691;14772
909699;14930
909707;14953
909715;14973
909723;14889
909732;14902
909740;14821
909748;14823
909756;14861
909764;14879
909773;14867
909781;14876
909789;14837
909797;14750
909805;14767
909814;14728
909822;14656
909830;14577
909838;14614
909846;14466
909854;14427
909863;14414
909871;14554
909879;14736
909889;14770
909897;14696
909906;14477
909914;14213
909922;14016
909930;14027
909938;14071
909947;13968
909955;13831
909963;13718
909971;13790
909979;13847
909988;13903
909996;13802
910004;13750
910012;13691
910020;13715
910029;13667
910037;13663
910045;14291
910053;13478
910061;9930
910070;6228
910078;5954
910087;14107
910095;16886
910103;15990
910111;15117
910120;14725
910128;14533
910136;14324
910144;14053
910152;13780
910161;13591
910169;13548
910177;13367
910185;13283
910195;13212
910204;13149
910212;12969
910220;12836
910228;12633
910236;12472
910245;12208
910253;12008
910261;11706
910269;11535
910277;11394
910286;11389
910294;11428
910302;11575
910310;11713
910318;12061
910327;12444
910335;12959
910343;13324
910351;13728
910359;13984
910367;14308
910376;14439
910384;14925
910392;15100
910400;15185
910408;15119
910417;15160
910425;15086
910433;14699
910441;14372
910449;14347
910458;14229
910466;14249
910474;14165
910482;14408
910490;14535
910502;14819
910510;14787
910518;14793
910526;14690
910534;14744
910543;14697
910551;14753
910559;14632
910567;14380
910575;13840
910584;13726
910592;13533
910600;13546
910608;13493
910616;13590
910625;13628
910633;13764
910641;13832
910649;13870
910657;13795
910665;13825
910674;13779
910682;13818
910690;13750
910698;13734
910706;13665
910715;14210
910723;12790
910731;9222
910739;6098
910747;7760
910756;15666
910764;16523
910772;15613
910780;14702
910788;14276
910800;14024
910808;13770
910816;13700
910824;13588
910832;13557
910841;13506
910849;13518
910857;13431
910865;13349
910873;13474
910882;13567
910890;13411
910898;13256
910906;12995
910914;12834
910922;12562
910931;12288
910939;11794
910947;11486
910955;11396
910963;11433
910972;11558
910980;11733
910988;12018
910996;12416
911004;12883
911013;13296
911021;13669
911029;13918
911037;14160
911045;14247
911054;14364
911062;14434
911070;14429
911078;14317
911086;14294
911095;14207
911106;14233
911114;14264
911122;14150
911130;14079
911139;13958
911147;13832
911155;13839
911163;14018
911171;14113
911180;14007
911188;13893
911196;13789
911204;13606
911212;13465
911220;13416
911229;13400
911237;13383
911245;13519
911253;13920
911261;14087
911270;14254
911278;14286
911286;14303
911294;14219
911302;14234
911311;14143
911319;14045
911327;13922
911335;14002
911343;14068
911352;12170
911360;8173
911368;6010
911376;9278
911384;16617
911393;16766
911401;15999
911412;14883
911420;14636
911428;14257
911437;13949
911445;13749
911453;13696
911461;13570
911469;13519
911478;13411
911486;13397
911494;13277
911502;13218
911510;13028
911518;12917
911527;12680
911535;12548
911543;12280
911551;12051
911559;11731
911568;11600
911576;11438
911584;11498
911592;11550
911600;11721
911609;11898
911617;12351
911625;12786
911633;13361
911641;13729
911650;14106
911658;14293
911666;14448
911674;14459
911682;14459
911690;14153
911699;14089
911710;14207
911718;14479
911726;14397
911735;14330
911743;14206
911751;14181
911759;14069
911767;14072
911775;14003
911784;14054
911792;14028
911800;14068
911808;13950
911816;13992
911825;13779
911833;13704
911841;13581
911849;13625
911857;13525
911866;13600
911874;13610
911882;13738
911890;13839
911898;13928
911907;13882
911915;13906
911923;13865
911931;13844
911939;13653
911948;13342
911956;13128
911964;13643
911972;13344
911980;10566
911988;6795
911997;5709
912005;12479
912016;16591
912024;15618
912033;14589
912041;14020
912049;13769
912057;13392
912065;13270
912073;13137
912082;13115
912090;13062
912098;13173
912106;13152
912114;13099
912123;13000
912131;12912
912139;12755
912147;12622
912155;12437
912164;12241
912172;11912
912180;11506
912188;11221
912196;11340
912205;11474
912213;11580
912221;11703
912229;11849
912237;12146
912246;12576
912254;13075
912262;13492
912270;13857
912278;14120
912286;14282
912295;14376
912303;14464
912311;14483
912321;14535
912329;14545
912338;14463
912346;14405
912354;14293
912362;14229
912370;14189
912379;14128
912387;14110
912395;14106
912403;14065
912411;14019
912420;14021
912428;14082
912436;14095
912444;14017
912452;13981
912461;13806
912469;13689
912477;13622
912485;13637
912494;13574
912503;13703
912511;13753
912519;13855
912527;13908
912535;14005
912543;13994
912552;14024
912560;14021
912568;14049
912576;13958
912584;13962
912593;13800
912601;14395
912609;13438
912619;8665
912627;5492
912636;7863
912644;15568
912652;16543
912660;15761
912668;15020
912677;14718
912685;14425
912693;14124
912701;14032
912709;13906
912718;13844
912726;13752
912734;13718
912742;13607
912750;13552
912759;13390
912767;13278
912775;13097
912783;12950
912791;12724
912799;12542
912808;12260
912816;12067
912824;11817
912832;11728
912840;11635
912849;11808
912857;11946
912865;12209
912873;12493
912881;12997
912890;13419
912898;13901
912906;14179
912914;14456
912925;14661
912934;14734
912942;14481
912950;14428
912958;14471
912966;14364
912975;14162
912983;14276
912991;14135
912999;14047
913007;13888
913016;14002
913024;13975
913032;14033
913040;13882
913048;13749
913057;13641
913065;13631
913073;13655
913081;13707
913089;13669
913097;13730
913106;13716
913114;13720
913122;13540
913130;13391
913138;13278
913147;13263
913155;13330
913163;13392
913171;13369
913179;13416
913188;13491
913196;13601
913204;13612
913212;13609
913220;13585
913232;13650
913240;13616
913248;13591
913256;13413
913264;13845
913273;13208
913281;10225
913289;6036
913297;5104
913305;11328
913314;16045
913322;15798
913330;15060
913338;14743
913346;14508
913354;14161
913363;14043
913371;13952
913379;13923
913387;13831
913395;13752
913404;13709
913412;13644
913420;13531
913428;13402
913436;13244
913445;13151
913453;13032
913461;12849
913469;12617
913477;12358
913486;12146
913494;11954
913502;11874
913510;11841
913518;11940
913530;12207
913538;12512
913546;12890
913554;13293
913562;13709
913571;13996
913579;14245
913587;14450
913595;14586
913603;14632
913612;14619
913620;14616
913628;14568
913636;14585
913644;14515
913652;14442
913661;14343
913669;14285
913677;14209
913685;14241
913693;14188
913702;14203
913710;14132
913718;14099
913726;14076
913734;14136
913743;14060
913751;14000
913759;14005
913767;14099
913775;14078
913784;14102
913792;14083
913800;13959
913808;13653
913816;13630
913825;13606
913836;13730
913844;13741
913852;13788
913860;13784
913869;13931
913877;13897
913885;13887
913893;13843
913901;13830
913910;13762
913918;13784
913926;13718
913934;13689
913942;14201
913950;13280
913959;9857
913967;6030
913975;6071
913983;13474
913991;16285
914000;15915
914008;15162
914016;14879
914024;14610
914032;14393
914041;14062
914049;14065
914057;13916
914065;13826
914073;13694
914082;13625
914090;13540
914098;13535
914106;13317
914114;13165
914122;12962
914131;12832
914142;12568
914150;12404
914158;12039
914167;11882
914175;11638
914183;11604
914191;11599
914199;11751
914207;11873
914216;12257
914224;12683
914232;13196
914240;13525
914248;13954
914257;14213
914265;14424
914273;14453
914281;14532
914289;14491
914298;14530
914306;14391
914314;14408
914322;14393
914330;14376
914339;14277
914347;14228
914355;14147
914363;14154
914371;14141
914380;14124
914388;14028
914396;14014
914404;13951
914412;13934
914420;13874
914429;13901
914440;13884
914448;13956
914456;13883
914465;13902
914473;13808
914481;13742
914489;13575
914497;13461
914505;13461
914514;13581
914522;13597
914530;13662
914538;13722
914546;13917
914555;14023
914563;14109
914571;14061
914579;14088
914587;14036
914596;13996
914604;13946
914612;13858
914620;13747
914628;14275
914637;13456
914645;10365
914653;6843
914661;6650
914669;13884
914678;16870
914686;16216
914694;15274
914702;14808
914710;14553
914718;14282
914727;14113
914735;14017
914745;13916
914753;13826
914761;13708
914770;13557
914778;13467
914786;13307
914794;13151
914802;12989
914811;12772
914819;12533
914827;12308
914835;11984
914843;11653
914852;11381
914860;11287
914869;11308
914877;11398
914885;11512
914894;11679
914902;11983
914910;12319
914918;12747
914926;13158
914935;13510
914943;13733
914951;13930
914959;14050
914967;14096
914975;14103
914984;14158
914992;14060
915000;14028
915008;13954
915016;13913
915025;13756
915033;13729
915043;13732
915051;13766
915059;13711
915068;13737
915076;13705
915084;13659
915092;13586
915100;13615
915109;13606
915117;13619
915125;13640
915133;13690
915141;13646
915150;13688
915158;13570
915166;13514
915174;13250
915182;13205
915191;13167
915199;13277
915207;13255
915215;13297
915223;13317
915231;13519
915240;13621
915248;13669
915256;13634
915264;13671
915272;13652
915281;13676
915289;13575
915297;13575
915305;13515
915313;14059
915322;12495
915330;8742
915338;5782
915349;10353
915357;16564
915366;16462
915374;15470
915382;14737
915390;14416
915398;14135
915407;13861
915415;13753
915423;13636
915431;13573
915439;13443
915448;13412
915456;13302
915464;13284
915472;13146
915480;13094
915489;12903
915497;12784
915505;12542
915513;12365
915521;12037
915529;11757
915538;11505
915546;11413
915554;11438
915562;11581
915570;11678
915579;11944
915587;12292
915595;12726
915603;13104
915611;13499
915620;13816
915628;14118
915636;14250
915644;14321
915655;14450
915664;14494
915672;14388
915680;14367
915688;14262
915696;14212
915705;14115
915713;14151
915721;14071
915729;14065
915737;14016
915746;14086
915754;14008
915762;14029
915770;13983
915778;14024
915786;13981
915795;14042
915803;14077
915811;14077
915819;14058
915827;14068
915836;14051
915844;13964
915852;13830
915860;13598
915868;13506
915877;13577
915885;13678
915893;13689
915901;13696
915909;13763
915918;13879
915926;13920
915934;13948
915942;13870
915953;13880
915962;13928
915970;13837
915978;13802
915986;13667
915994;14160
916003;13011
916011;9546
916019;6092
916027;6511
916035;14307
916044;16610
916052;15820
916060;14863
916068;14430
916076;14132
916084;13829
916093;13674
916101;13634
916109;13553
916117;13461
916125;13380
916134;13343
916142;13243
916150;13172
916158;13069
916166;12992
916175;12845
916183;12711
916191;12501
916199;12376
916207;12116
916216;11902
916224;11707
916232;11725
916240;11765
916248;11900
916260;12135
916268;12442
916276;12859
916284;13350
916292;13734
916301;14029
916309;14279
916317;14518
916325;14597
916333;14682
916342;14642
916350;14616
916358;14540
916366;14463
916374;14374
916382;14370
916391;14328
916399;14307
916407;14225
916415;14215
916423;14182
916432;14229
916440;14149
916448;14146
916456;14127
916464;14153
916473;14114
916481;14184
916489;14165
916497;14153
916505;14118
916514;14001
916522;13792
916530;13745
916538;13758
916546;13845
916554;13845
916566;14040
916574;14263
916582;14388
916590;14342
916599;14325
916607;14242
916615;14248
916623;14162
916631;14139
916639;13973
916648;13899
916656;14254
916664;13632
916672;10851
916680;7430
916689;6700
916697;13737
916705;17168
916713;16435
916721;15371
916730;14740
916738;14407
916746;14103
916754;13849
916762;13744
916771;13655
916779;13621
916787;13491
916795;13461
916803;13349
916812;13289
916820;13162
916828;13084
916836;12926
916844;12741
916852;12500
916864;12321
916872;12102
916880;11942
916888;11709
916897;11712
916905;11743
916913;11915
916921;12035
916929;12387
916937;12744
916946;13228
916954;13618
916962;13989
916970;14224
916978;14469
916987;14524
916995;14644
917003;14649
917011;14634
917019;14560
917028;14521
917036;14435
917044;14373
917052;14273
917060;14242
917069;14217
917077;14107
917085;14022
917093;14022
917101;13986
917110;13957
917118;13962
917126;14000
917134;13993
917142;13949
917150;13932
917159;13807
917170;13740
917178;13772
917186;13712
917194;13746
917203;13777
917211;13879
917219;13973
917227;14037
917235;14017
917244;13990
917252;13961
917260;13918
917268;13877
917276;13907
917285;13788
917293;13741
917301;14219
917309;13555
917317;10906
917326;7535
917334;6758
917342;13283
917350;17208
917358;16474
917367;15540
917375;14694
917383;14391
917391;14008
917399;13741
917407;13582
917416;13453
917424;13354
917432;13282
917440;13172
917448;13154
917457;12999
917465;12922
917475;12742
917483;12627
917491;12378
917500;12155
917508;11928
917516;11704
917524;11413
917532;11312
917541;11308
917549;11382
917557;11509
917565;11738
917573;12007
917582;12502
917590;12970
917598;13432
917606;13756
917614;14096
917623;14287
917631;14428
917639;14441
917647;14523
917655;14453
917663;14433
917673;14309
917681;14308
917689;14214
917697;14193
917705;14059
917714;14017
917722;13967
917730;13993
917738;13891
917746;13903
917755;13859
917763;14048
917773;14095
917781;14135
917789;14041
917798;13886
917806;13721
917814;13717
917822;13648
917830;13652
917839;13640
917847;13787
917855;13849
917863;14064
917871;14073
917880;14095
917888;13998
917896;14049
917904;13991
917912;13985
917921;13882
917929;13814
917937;14044
917945;13553
917953;10968
917961;7570
917970;6579
917978;12677
917986;17003
917994;16532
918002;15676
918011;14960
918019;14578
918027;14251
918035;13999
918043;13910
918052;13867
918060;13783
918068;13678
918079;13630
918087;13563
918096;13463
918104;13250
918112;13114
918120;12909
918128;12729
918137;12503
918145;12323
918153;12025
918161;11832
918169;11660
918178;11717
918186;11718
918194;11843
918202;12046
918210;12365
918218;12758
918227;13213
918235;13572
918243;13978
918251;14167
918259;14309
918268;14392
918276;14394
918284;14410
918292;14382
918300;14355
918309;14286
918317;14243
918325;14207
918333;14186
918341;14148
918350;14138
918358;14102
918366;14054
918374;14011
918385;14088
918394;14128
918402;14074
918410;14031
918418;13955
918426;13849
918435;13707
918443;13615
918451;13527
918459;13553
918467;13609
918476;13707
918484;13745
918492;13857
918500;13920
918508;13991
918516;13963
918525;13905
918533;13915
918541;13935
918549;13866
918557;13781
918566;13725
918574;14052
918582;12812
918590;9562
918598;6597
918607;7216
918615;14650
918623;16512
918631;15932
918639;15036
918648;14522
918656;14143
918664;13845
918672;13655
918683;13613
918692;13549
918700;13515
918708;13485
918716;13381
918724;13297
918733;13208
918741;13070
918749;12923
918757;12690
918765;12515
918774;12330
918782;12138
918790;11858
918798;11640
918806;11590
918814;11695
918823;11740
918831;11853
918839;12028
918847;12425
918855;12833
918864;13320
918872;13597
918880;13983
918888;14203
918896;14327
918905;14285
918913;14362
918921;14355
918929;14289
918937;14149
918946;14222
918954;14137
918962;14137
918970;14070
918978;14060
918990;14033
918998;14072
919006;13977
919014;13948
919022;13867
919031;13884
919039;13906
919047;13874
919055;13772
919063;13726
919071;13586
919080;13562
919088;13524
919096;13564
919104;13542
919112;13665
919121;13743
919129;13868
919137;13939
919145;14035
919153;13961
919162;14025
919170;13938
919178;13943
919186;13941
919194;13920
919203;13687
919211;14023
919219;13659
919227;11240
919235;7475
919244;6087
919252;11449
919260;16352
919268;16114
919276;15352
919284;14643
919296;14298
919304;13941
919312;13797
919320;13636
919329;13556
919337;13395
919345;13400
919353;13309
919361;13190
919369;13003
919378;12954
919386;12834
919394;12753
919402;12569
919410;12432
919419;12201
919427;12007
919435;11783
919443;11762
919451;11676
919460;11724
919468;11795
919476;11996
919484;12256
919492;12650
919501;13094
919509;13530
919517;13834
919525;14083
919533;14266
919542;14390
919550;14420
919558;14430
919566;14388
919574;14328
919582;14265
919594;14318
919602;14314
919610;14242
919618;14099
919626;14088
919635;13976
919643;13943
919651;13889
919659;13880
919667;13815
919676;13822
919684;13792
919692;13801
919700;13780
919708;13776
919717;13651
919725;13577
919733;13466
919741;13551
919749;13552
919758;13597
919766;13636
919774;13722
919782;13851
919790;13935
919799;14021
919807;13970
919815;13934
919823;13940
919831;13916
919839;13805
919848;13817
919856;13762
919864;14049
919872;12473
919880;8884
919889;6146
919908;16626
919916;16638
919924;15765
919933;15023
919941;14667
919949;14290
919957;14025
919965;13836
919974;13729
919982;13695
919990;13588
919998;13506
920006;13388
920015;13305
920023;13158
920031;13074
920039;12894
920047;12758
920056;12607
920064;12438
920072;12192
920080;11909
920088;11620
920097;11580
920105;11551
920113;11680
920121;11839
920129;12080
920137;12456
920146;12965
920154;13397
920162;13890
920170;14129
920178;14301
920187;14354
920195;14497
920205;14539
920213;14583
920221;14489
920230;14444
920238;14325
920246;14293
920254;14187
920262;14170
920271;14126
920279;14090
920287;14019
920295;13979
920303;13915
920312;13960
920320;13970
920328;14052
920336;13906
920344;14014
920353;14021
920361;14088
920369;14007
920377;13944
920386;13812
920394;13711
920403;13533
920411;13462
920419;13473
920427;13641
920435;13736
920444;13706
920452;13731
920460;13925
920468;13977
920476;13953
920485;13882
920493;13933
920501;13877
920511;13915
920519;13844
920528;13811
920536;13915
920544;13691
920552;11359
920560;7610
920569;5896
920577;10588
920585;16134
920593;16270
920601;15384
920610;14727
920618;14435
920626;14167
920634;13919
920642;13873
920650;13786
920659;13724
920667;13566
920675;13501
920683;13404
920691;13342
920700;13269
920708;13213
920716;13069
920724;12961
920732;12796
920741;12575
920749;12306
920757;12056
920765;11877
920773;11770
920782;11793
920790;11858
920798;11856
920806;11975
920817;12754
920826;13338
920834;13708
920842;14077
920850;14315
920858;14514
920867;14575
920875;14624
920883;14561
920891;14524
920899;14413
920908;14356
920916;14287
920924;14277
920932;14215
920940;14135
920948;14084
920957;14078
920965;14116
920973;14171
920981;14171
920989;14238
920998;14267
921006;14239
921014;14105
921022;13989
921030;13906
921039;13827
921047;13761
921055;13687
921063;13606
921071;13506
921080;13512
921088;13419
921096;13290
921104;13038
921115;13024
921124;13150
921132;13142
921140;13150
921148;13151
921156;13295
921165;13401
921173;13491
921181;13467
921189;13421
921197;13360
921206;13345
921214;13304
921222;13274
921230;13201
921238;13264
921246;13561
921255;11726
921263;7691
921271;4705
921279;7058
921287;14638
921296;15790
921304;15079
921312;14347
921320;14049
921328;13741
921337;13513
921345;13467
921353;13346
921361;13299
921369;13243
921378;13270
921386;13211
921394;13217
921402;13119
921410;13011
921422;12868
921430;12809
921438;12589
921446;12252
921454;11992
921463;11718
921471;11499
921479;11339
921487;11344
921495;11461
921503;11626
921512;11869
921520;12229
921528;12741
921536;13212
921544;13648
921553;13930
921561;14142
921569;14223
921577;14303
921585;14305
921594;14314
921602;14272
921610;14253
921618;14136
921626;14158
921635;14075
921643;14066
921651;13988
921659;13974
921667;13891
921676;13927
921684;13934
921692;13999
921700;13975
921708;14044
921716;14056
921728;14180
921736;14194
921744;14178
921752;14119
921761;14102
921769;14037
921777;14028
921785;13926
921793;13898
921801;13851
921810;13869
921818;13786
921826;13689
921834;13461
921842;13438
921851;13438
921859;13471
921867;13443
921875;13415
921883;13409
921892;13558
921900;13690
921908;13774
921916;13731
921924;13773
921933;13737
921941;13808
921949;13749
921957;13686
921965;13526
921974;13851
921982;13290
921990;10665
921998;6663
922006;5491
922014;11202
922026;16147
922034;15522
922042;14671
922050;14253
922058;14046
922067;13743
922075;13666
922083;13572
922091;13499
922099;13406
922108;13408
922116;13310
922124;13292
922132;13158
922140;13051
922149;12840
922157;12708
922165;12505
922173;12304
922181;12085
922190;11862
922198;11595
922206;11378
922214;11242
922222;11270
922231;11344
922239;11489
922247;11768
922255;12174
922263;12667
922271;13127
922280;13558
922288;13914
922296;14134
922304;14253
922312;14372
922321;14415
922332;14534
922340;14635
922348;14589
922356;14530
922365;14457
922373;14441
922381;14324
922389;14246
922397;14177
922406;14132
922414;14127
922422;14061
922430;14008
922438;13966
922447;13933
922455;13923
922463;13909
922471;13894
922479;13941
922488;13949
922496;13916
922504;13873
922512;13887
922520;13839
922529;13773
922537;13735
922545;13652
922553;13428
922561;13305
922569;13225
922578;13281
922586;13263
922594;13332
922602;13352
922610;13469
922619;13514
922627;13535
922638;13552
922646;13592
922654;13525
922663;13491
922671;13446
922679;13445
922687;13430
922695;13658
922704;11955
922712;8203
922720;5684
922728;8362
922736;15545
922745;15992
922753;14974
922761;14229
922769;14025
922777;13753
922786;13437
922794;13400
922802;13313
922810;13304
922818;13218
922826;13201
922835;13120
922843;13147
922851;13060
922859;13014
922867;12840
922876;12758
922884;12606
922892;12465
922900;12208
922908;12012
922917;11722
922925;11618
922935;11647
922943;11810
922951;11898
922960;12157
922968;12495
922976;13002
922984;13466
922992;13945
923001;14279
923009;14569
923017;14654
923025;14721
923033;14754
923042;14866
923050;14810
923058;14813
923066;14732
923074;14721
923082;14602
923092;14621
923100;14567
923108;14551
923116;14475
923124;14510
923133;14472
923141;14488
923149;14411
923157;14457
923165;14420
923174;14410
923182;14374
923190;14429
923198;14433
923206;14478
923215;14434
923223;14457
923231;14416
923241;14417
923249;14202
923258;14075
923266;14030
923274;14079
923282;14031
923290;14096
923299;14121
923307;14254
923315;14334
923323;14419
923331;14359
923340;14397
923348;14344
923356;14359
923364;14294
923372;14273
923380;14174
923389;14614
923397;13353
923405;10172
923413;7426
923421;8397
923430;15962
923438;17494
923446;16575
923454;15581
923462;15029
923471;14813
923479;14528
923487;14318
923495;14209
923503;14143
923512;14056
923520;13962
923528;13882
923536;13790
923547;13692
923556;13703
923564;13500
923572;13321
923580;13067
923588;12840
923597;12546
923605;12303
923613;12035
923621;11848
923629;11810
923638;11878
923646;11963
923654;12136
923662;12414
923670;12828
923678;13316
923687;13738
923695;14068
923703;14326
923711;14516
923719;14585
923728;14636
923736;14654
923744;14658
923752;14571
923760;14522
923769;14428
923777;14398
923785;14316
923793;14269
923801;14163
923810;14164
923818;14077
923826;14063
923834;13984
923845;14111
923854;14146
923862;14128
923870;14109
923878;14024
923886;13929
923895;13756
923903;13638
923911;13563
923919;13532
923927;13550
923935;13558
923944;13609
923952;13715
923960;13823
923968;13799
923976;13768
923985;13685
923993;13666
924001;13611
924009;13594
924017;13483
924026;13474
924034;13471
924042;13496
924050;11489
924058;7972
924067;6148
924075;9790
924083;16422
924091;16385
924099;15398
924108;14544
924116;14067
924124;13827
924132;13481
924140;13440
924152;13329
924160;13303
924168;13177
924176;13141
924184;13029
924193;12949
924201;12799
924209;12688
924217;12548
924225;12435
924233;12267
924242;12065
924250;11757
924258;11534
924266;11327
924274;11299
924283;11289
924291;11455
924299;11564
924307;11884
924315;12237
924324;12749
924332;13181
924340;13607
924348;13892
924356;14150
924365;14181
924373;14303
924381;14335
924389;14355
924397;14290
924406;14310
924414;14208
924422;14149
924430;14030
924438;14016
924446;13925
924458;13976
924466;13996
924474;14027
924482;13911
924490;13952
924499;13920
924507;14016
924515;13972
924523;14020
924531;13865
924540;13724
924548;13574
924556;13596
924564;13559
924572;13623
924581;13602
924589;13697
924597;13756
924605;13864
924613;13857
924622;13835
924630;13786
924638;13803
924646;13743
924654;13735
924663;13658
924671;13564
924679;13938
924687;12975
924695;10023
924703;6822
924712;6495
924720;13615
924728;16742
924736;16079
924744;15187
924756;14536
924764;14238
924772;13914
924780;13727
924788;13654
924797;13520
924805;13426
924813;13358
924821;13300
924829;13209
924838;13110
924846;12951
924854;12799
924862;12671
924870;12525
924879;12312
924887;12126
924895;11898
924903;11704
924911;11598
924920;11569
924928;11655
924936;11777
924944;12006
924952;12307
924961;12749
924969;13195
924977;13619
924985;13910
924993;14141
925001;14294
925010;14386
925018;14400
925026;14449
925034;14433
925042;14402
925051;14348
925062;14338
925070;14298
925078;14230
925086;14187
925095;14117
925103;14049
925111;14011
925119;13984
925127;13964
925136;13967
925144;13952
925152;13991
925160;14017
925168;13972
925177;13913
925185;13773
925193;13714
925201;13632
925209;13647
925218;13662
925226;13742
925234;13769
925242;13912
925250;13958
925258;14033
925267;14022
925275;14005
925283;13987
925291;14056
925299;13993
925308;13970
925316;13914
925324;14085
925332;13958
925340;11909
925349;8078
925360;6277
925368;13015
925376;16724
925384;16241
925393;15393
925401;14733
925409;14425
925417;14026
925425;13838
925434;13664
925442;13598
925450;13485
925458;13488
925466;13426
925475;13383
925483;13212
925491;13092
925499;12934
925507;12843
925516;12658
925524;12472
925532;12187
925540;11957
925548;11645
925556;11519
925565;11486
925573;11603
925581;11692
925589;11912
925597;12127
925606;12520
925614;12968
925622;13474
925630;13820
925638;14140
925647;14321
925655;14434
925665;14531
925673;14653
925681;14584
925690;14551
925698;14455
925706;14421
925714;14289
925722;14219
925731;14132
925739;14134
925747;14054
925755;14091
925763;14074
925772;14075
925780;14003
925788;14009
925796;13939
925804;13997
925812;13913
925821;13871
925829;13754
925837;13632
925845;13463
925853;13451
925863;13377
925871;13411
925879;13432
925887;13500
925895;13524
925904;13676
925912;13700
925920;13711
925928;13697
925936;13709
925945;13718
925953;13725
925961;13638
925971;13707
925979;14113
925988;12746
925996;9192
926004;6002
926012;7078
926020;14702
926029;16427
926037;15889
926045;14986
926053;14591
926061;14183
926070;13882
926078;13668
926086;13586
926094;13461
926102;13416
926110;13302
926119;13224
926127;13120
926135;13008
926143;12873
926151;12763
926160;12611
926168;12443
926176;12190
926184;11975
926192;11779
926201;11539
926209;11414
926217;11396
926225;11450
926233;11586
926242;11886
926250;12227
926258;12657
926269;13377
926277;13818
926286;14121
926294;14309
926302;14426
926310;14429
926318;14423
926327;14436
926335;14414
926343;14358
926351;14279
926359;14171
926367;14126
926376;14081
926384;13981
926392;13908
926400;13850
926408;13816
926417;13798
926425;13789
926433;13756
926441;13773
926449;13786
926458;13704
926466;13690
926474;13632
926482;13466
926490;13386
926499;13373
926507;13361
926515;13347
926523;13404
926531;13447
926540;13549
926548;13608
926556;13681
926564;13621
926575;13675
926584;13675
926592;13629
926600;13566
926608;13480
926616;13402
926625;13810
926633;12324
926641;8610
926649;5259
926657;6653
926665;14365
926674;16041
926682;15321
926690;14559
926698;14233
926706;13948
926715;13710
926723;13605
926731;13480
926739;13443
926747;13376
926756;13355
926764;13268
926772;13228
926780;13129
926788;13069
926797;12903
926805;12807
926813;12606
926821;12457
926829;12248
926838;12074
926846;11831
926854;11754
926862;11645
926870;11727
926882;11925
926890;12226
926898;12550
926906;12992
926914;13390
926922;13797
926931;14069
926939;14319
926947;14463
926955;14509
926963;14439
926972;14461
926980;14425
926988;14405
926996;14302
927004;14293
927013;14185
927021;14174
927029;14054
927037;14041
927045;14049
927054;14024
927062;13927
927070;13935
927078;13861
927086;13910
927095;13948
927103;13987
927111;13934
927119;13958
927127;13896
927135;13884
927144;13657
927152;13610
927160;13569
927168;13643
927180;13749
927188;13856
927196;13824
927204;13938
927212;13970
927220;14020
927229;14000
927237;13962
927245;13890
927253;13931
927261;13819
927270;13736
927278;13573
927286;14036
927294;12780
927302;9412
927311;5888
927319;6493
927327;14266
927335;16479
927343;15711
927352;14792
927360;14398
927368;14124
927376;13900
927384;13759
927393;13681
927401;13606
927409;13520
927417;13450
927425;13419
927433;13379
927442;13244
927450;13126
927458;12969
927466;12820
927474;12678
927486;12464
927494;12265
927502;12070
927510;11870
927518;11740
927527;11737
927535;11848
927543;11959
927551;12161
927559;12496
927568;12900
927576;13354
927584;13773
927592;14115
927600;14332
927609;14404
927617;14481
927625;14522
927633;14528
927641;14517
927650;14504
927658;14469
927666;14423
927674;14377
927682;14281
927690;14293
927699;14256
927707;14238
927715;14178
927723;14092
927731;14064
927740;14090
927748;14001
927756;14003
927764;13921
927772;13914
927781;13886
927792;13859
927800;13783
927808;13516
927816;13419
927825;13475
927833;13561
927841;13598
927849;13600
927857;13669
927866;13723
927874;13860
927882;13878
927890;13846
927898;13833
927907;13826
927915;13799
927923;13802
927931;13745
927939;13723
927948;14162
927956;13322
927964;10220
927972;6688
927980;6360
927988;13810
927997;16867
928005;16287
928013;15276
928021;14829
928029;14525
928038;14242
928046;14041
928054;13966
928062;13845
928070;13850
928079;13747
928090;13702
928098;13648
928106;13630
928114;13467
928123;13349
928131;13132
928139;12988
928147;12737
928155;12596
928164;12342
928172;12171
928180;12068
928188;12088
928196;12139
928205;12355
928213;12433
928221;12769
928229;13164
928237;13652
928246;13979
928254;14305
928262;14528
928270;14722
928278;14755
928286;14833
928295;14813
928303;14830
928311;14776
928319;14715
928327;14636
928336;14582
928344;14457
928352;14482
928360;14416
928368;14365
928377;14347
928385;14366
928395;14401
928403;14470
928411;14394
928420;14389
928428;14312
928436;14374
928444;14328
928452;14171
928461;13969
928469;13905
928477;13879
928485;13921
928493;13946
928502;14002
928510;14018
928518;14124
928526;14125
928534;14130
928542;14105
928551;14134
928560;14092
928568;14049
928576;14005
928584;13961
928593;13830
928601;14169
928609;13238
928617;10326
928624;7162
928634;7072
928642;14454
928650;17339
928658;16468
928666;15391
928675;14635
928683;14349
928691;14020
928701;13859
928709;13820
928718;13695
928726;13562
928734;13445
928742;13377
928750;13365
928759;13221
928767;13157
928775;13051
928783;12916
928791;12734
928799;12494
928808;12208
928816;11976
928824;11833
928832;11739
928840;11692
928849;11749
928857;11930
928865;12103
928873;12352
928881;12739
928890;13173
928898;13567
928906;13934
928914;14144
928922;14302
928931;14403
928939;14471
928947;14433
928955;14398
928963;14336
928972;14305
928980;14274
928988;14240
928999;14195
929007;14209
929016;14145
929024;14104
929032;14061
929040;14002
929048;14011
929057;13995
929065;14075
929073;14091
929081;14038
929089;13987
929097;13863
929106;13736
929114;13624
929122;13638
929130;13589
929138;13615
929147;13661
929155;13808
929163;13837
929171;13890
929179;13888
929188;13928
929196;13831
929204;13829
929212;13790
929220;13797
929229;13692
929237;13635
929245;13931
929253;12977
929261;9932
929270;6797
929278;6728
929286;14201
929294;16877
929305;15834
929314;14917
929322;14465
929330;14102
929338;13750
929346;13557
929354;13517
929363;13442
929371;13383
929379;13261
929387;13196
929395;13100
929404;13027
929412;12871
929420;12769
929428;12603
929436;12435
929445;12223
929453;12030
929461;11738
929469;11574
929477;11439
929486;11435
929494;11509
929502;11712
929510;11888
929518;12255
929527;12678
929535;13153
929543;13509
929551;13833
929559;14029
929567;14172
929576;14181
929584;14257
929592;14233
929600;14189
929612;14208
929620;14246
929628;14149
929636;14083
929644;13995
929652;13992
929661;13909
929669;13907
929677;13822
929685;13819
929693;13789
929702;13817
929710;13796
929718;13845
929726;13832
929734;13816
929743;13738
929751;13649
929759;13499
929767;13465
929775;13416
929784;13379
929792;13419
929800;13505
929808;13590
929816;13771
929825;13828
929833;13880
929841;13903
929849;13930
929857;13891
929865;13900
929874;13818
929882;13769
929890;13673
929898;14098
929910;11953
929918;8254
929926;5833
929934;9311
929942;16170
929950;16483
929959;15553
929967;14808
929975;14446
929983;14133
929991;13817
930000;13679
930008;13588
930016;13519
930024;13404
930032;13280
930041;13197
930049;13138
930057;13094
930065;12988
930073;12816
930082;12682
930090;12545
930098;12321
930106;12046
930114;11785
930122;11566
930131;11492
930139;11510
930147;11601
930155;11726
930163;11929
930172;12331
930180;12763
930188;13214
930196;13596
930204;13927
930216;14263
930224;14435
930232;14491
930240;14582
930248;14590
930257;14475
930265;14388
930273;14314
930281;14228
930289;14140
930298;14063
930306;14047
930314;14030
930322;14012
930330;13937
930339;13906
930347;13869
930355;13884
930363;13897
930371;13945
930380;13901
930388;13888
930396;13830
930404;13728
930412;13571
930420;13484
930429;13455
930437;13498
930445;13538
930453;13611
930461;13660
930470;13823
930478;13820
930486;13853
930494;13803
930502;13788
930511;13746
930522;13789
930530;13761
930538;13665
930546;13848
930555;13584
930563;11192
930571;7199
930579;5331
930587;10211
930596;16041
930604;16059
930612;15233
930620;14675
930628;14396
930637;14137
930645;13910
930653;13819
930661;13702
930669;13643
930678;13554
930686;13479
930694;13346
930702;13216
930710;13058
930718;13004
930727;12853
930735;12742
930743;12525
930751;12358
930759;12091
930768;11885
930776;11704
930784;11647
930792;11638
930800;11716
930809;11842
930820;12289
930828;12677
930836;13160
930844;13530
930853;13862
930861;14084
930869;14281
930877;14355
930885;14413
930894;14414
930902;14439
930910;14339
930918;14298
930926;14202
930935;14193
930943;14112
930951;14106
930959;14049
930967;14024
930975;13959
930984;13941
930992;13942
931000;13977
931008;13956
931016;13962
931025;13941
931033;13961
931041;13882
931049;13795
931057;13632
931066;13519
931074;13509
931082;13554
931090;13584
931098;13655
931107;13716
931115;13852
931125;13978
931133;14071
931141;14048
931150;14045
931158;13969
931166;13943
931174;13873
931182;13816
931191;13716
931199;14146
931207;12757
931215;9194
931223;5965
931231;7307
931241;15037
931249;16591
931257;15787
931265;15003
931273;14672
931282;14294
931290;14027
931298;13897
931306;13794
931314;13757
931323;13666
931331;13575
931339;13540
931347;13486
931355;13401
931364;13289
931372;13162
931380;12968
931388;12811
931396;12554
931405;12370
931413;12132
931421;11932
931431;11830
931439;11840
931448;11935
931456;12075
931464;12290
931472;12659
931480;13088
931489;13494
931497;13812
931505;14116
931513;14336
931521;14476
931529;14506
931538;14543
931546;14537
931554;14511
931562;14459
931570;14423
931579;14366
931587;14337
931595;14251
931603;14199
931611;14117
931620;14123
931628;14059
931636;14042
931644;13946
931652;13983
931661;13941
931669;13971
931677;13903
931685;13794
931693;13621
931702;13572
931710;13531
931718;13572
931729;13625
931737;13749
931746;13799
931754;13906
931762;13932
931770;13903
931778;13880
931786;13833
931795;13770
931803;13808
931811;13711
931819;13630
931827;13551
931836;13774
931844;12021
931852;8240
931860;5455
931868;8263
931877;15696
931885;16313
931893;15408
931901;14703
931909;14382
931918;14085
931926;13816
931934;13690
931942;13568
931950;13533
931959;13434
931967;13340
931975;13218
931983;13175
931991;13066
931999;12976
932008;12796
932016;12656
932024;12437
932035;12152
932044;11955
932052;11757
932060;11521
932068;11518
932076;11531
932084;11641
932093;11748
932101;12061
932109;12491
932117;12951
932125;13363
932134;13767
932142;14025
932150;14175
932158;14212
932166;14282
932175;14350
932183;14427
932191;14320
932199;14231
932207;14159
932216;14120
932224;14040
932232;14026
932240;13931
932248;13919
932257;13857
932265;13792
932273;13713
932281;13702
932289;13722
932297;13695
932306;13579
932314;13580
932322;13443
932330;13237
932342;13244
932350;13351
932358;13325
932366;13440
932374;13500
932382;13633
932391;13763
932399;13855
932407;13820
932415;13834
932423;13809
932432;13834
932440;13787
932448;13734
932456;13668
932464;13732
932473;13909
932481;12129
932489;8268
932497;5500
932505;8720
932514;16097
932522;16453
932530;15545
932538;14821
932546;14554
932554;14221
932563;13990
932571;13862
932579;13776
932587;13745
932595;13626
932604;13531
932612;13454
932620;13401
932628;13287
932639;13187
932648;13093
932656;12882
932664;12714
932672;12448
932680;12226
932689;11997
932697;11825
932705;11769
932713;11812
932721;11945
932730;12082
932738;12323
932746;12664
932754;13086
932762;13492
932771;13872
932779;14160
932787;14367
932795;14455
932803;14569
932812;14590
932820;14610
932828;14534
932836;14537
932844;14431
932852;14375
932861;14300
932869;14272
932877;14193
932885;14243
932893;14188
932902;14170
932910;14160
932918;14219
932926;14199
932934;14131
932946;13994
932954;13867
932962;13675
932970;13603
932978;13563
932987;13599
932995;13630
933003;13717
933011;13843
933019;14002
933028;14033
933036;14038
933044;13984
933052;14036
933060;14029
933069;14010
933077;13895
933085;13835
933093;13774
933101;14120
933110;12465
933118;8745
933126;5666
933134;8364
933142;16042
933150;16535
933159;15540
933167;14766
933175;14447
933183;14171
933191;13958
933200;13823
933208;13614
933216;13694
933224;13642
933232;13512
933241;13428
933252;13437
933260;13313
933268;13183
933276;12964
933285;12789
933293;12536
933301;12346
933309;12065
933317;11850
933326;11671
933334;11660
933342;11715
933350;11836
933358;11924
933367;12212
933375;12541
933383;12980
933391;13403
933399;13809
933407;14062
933416;14292
933424;14427
933432;14490
933440;14493
933448;14486
933457;14394
933465;14388
933473;14332
933481;14309
933489;14276
933498;14273
933506;14235
933514;14243
933522;14192
933530;14163
933539;14173
933549;14266
933557;14301
933565;14280
933573;14188
933582;14045
933590;13867
933598;13796
933606;13773
933614;13809
933623;13833
933631;13905
933639;13964
933647;14117
933655;14164
933663;14187
933672;14193
933680;14193
933688;14201
933696;14225
933704;14168
933713;14096
933721;13968
933729;14282
933737;12882
933745;9483
933754;6659
933762;8079
933771;16086
933779;17130
933787;16149
933796;15095
933804;14634
933812;14351
933820;14076
933828;13854
933837;13757
933845;13656
933855;13618
933863;13571
933871;13474
933880;13386
933888;13284
933896;13150
933904;12981
933912;12824
933921;12647
933929;12414
933937;12180
933945;11960
933953;11788
933961;11773
933970;11885
933978;12013
933986;12176
933994;12385
934002;12741
934011;13144
934019;13573
934027;13936
934035;14273
934043;14422
934052;14555
934060;14601
934068;14651
934076;14583
934084;14540
934093;14441
934101;14402
934109;14309
934117;14261
934125;14235
934134;14234
934142;14193
934150;14182
934161;14230
934169;14283
934178;14188
934186;14132
934194;13953
934202;13845
934210;13767
934218;13859
934227;13903
934235;13963
934243;13989
934251;14069
934259;14123
934268;14159
934276;14150
934284;14210
934292;14130
934300;14117
934309;14089
934317;14126
934325;14026
934333;13914
934341;14179
934350;13268
934358;10183
934366;6937
934374;6617
934382;14154
934391;17307
934399;16490
934407;15493
934415;14784
934423;14428
934431;14108
934440;13834
934448;13758
934459;13662
934467;13653
934476;13531
934484;13432
934492;13298
934500;13228
934508;13099
934516;13003
934525;12773
934533;12610
934541;12398
934549;12222
934557;11967
934566;11804
934574;11735
934582;11821
934590;11933
934598;12076
934607;12213
934615;12623
934623;13088
934631;13476
934639;13779
934648;14134
934656;14340
934664;14455
934672;14493
934680;14541
934689;14541
934697;14530
934705;14450
934713;14388
934721;14331
934729;14250
934738;14119
934746;14065
934754;14013
934765;14046
934774;14097
934782;14111
934790;14047
934798;13969
934806;13892
934814;13782
934823;13632
934831;13526
934839;13535
934847;13568
934855;13606
934864;13685
934872;13761
934880;13872
934888;13912
934896;13916
934905;13876
934913;13870
934921;13836
934929;13816
934937;13736
934946;13704
934954;13613
934962;13933
934970;13305
934978;10571
934986;7010
934995;5923
935003;12372
935011;16630
935019;16150
935027;15269
935036;14516
935044;14206
935052;13866
935060;13605
935071;13513
935080;13498
935088;13372
935096;13326
935104;13231
935112;13140
935121;13017
935129;12876
935137;12701
935145;12522
935153;12351
935162;12148
935170;11906
935178;11697
935186;11520
935194;11419
935203;11421
935211;11485
935219;11627
935227;11812
935235;12194
935244;12614
935252;13057
935260;13393
935268;13729
935276;13921
935284;14062
935293;14107
935301;14125
935309;14119
935317;14120
935325;14028
935334;14053
935342;13990
935350;13914
935358;13817
935369;13821
935378;13815
935386;13747
935394;13662
935402;13641
935410;13643
935419;13689
935427;13671
935435;13688
935443;13648
935451;13559
935460;13481
935468;13473
935476;13500
935484;13546
935492;13569
935501;13671
935509;13731
935517;13873
935525;13922
935533;13972
935542;13950
935550;13909
935558;13828
935566;13801
935574;13702
935582;13626
935591;13612
935599;13819
935607;11842
935615;7978
935623;5111
935632;7953
935640;15420
935648;16267
935656;15430
935664;14739
935676;14323
935684;14033
935692;13815
935700;13741
935708;13579
935717;13568
935725;13454
935733;13485
935741;13388
935749;13340
935758;13192
935766;13119
935774;12977
935782;12848
935790;12605
935799;12404
935807;12119
935815;11931
935823;11769
935831;11759
935839;11742
935848;11856
935856;12013
935864;12315
935872;12669
935880;13142
935889;13589
935897;13943
935905;14139
935913;14305
935921;14362
935930;14416
935938;14409
935946;14423
935954;14367
935962;14314
935971;14264
935982;14326
935990;14300
935998;14228
936006;14111
936015;14081
936023;14026
936031;14017
936039;13958
936047;13959
936056;13908
936064;13943
936072;13936
936080;13974
936088;13913
936097;13814
936105;13561
936113;13508
936121;13556
936129;13624
936137;13574
936146;13601
936154;13631
936162;13710
936170;13828
936178;13826
936187;13774
936195;13748
936203;13744
936211;13706
936219;13666
936228;13604
936236;13506
936244;13872
936252;13042
936260;9893
936269;6040
936280;7079
936288;14818
936296;16298
936304;15599
936313;14799
936321;14401
936329;14020
936337;13744
936345;13648
936354;13593
936362;13537
936370;13486
936378;13427
936386;13361
936394;13303
936403;13232
936411;13121
936419;13008
936427;12815
936435;12630
936444;12363
936452;12190
936460;11977
936468;11810
936476;11717
936485;11747
936493;11789
936501;11961
936509;12152
936517;12454
936526;12857
936534;13361
936542;13730
936550;14036
936558;14202
936567;14328
936575;14372
936585;14476
936593;14489
936601;14480
936610;14407
936618;14361
936626;14289
936634;14323
936642;14284
936650;14282
936659;14248
936667;14248
936675;14227
936683;14247
936691;14214
936700;14258
936708;14226
936717;14268
936725;14266
936733;14294
936742;14262
936750;14207
936758;14035
936766;13858
936774;13747
936783;13774
936791;13771
936799;13841
936807;13843
936815;13934
936824;13972
936832;14112
936840;14100
936848;14107
936856;14034
936865;14005
936873;13999
936881;13995
936891;13918
936899;13878
936908;14156
936916;13614
936924;10822
936932;7064
936940;5897
936948;11844
936957;16414
936965;16090
936973;15087
936981;14532
936989;14181
936998;13898
937006;13687
937014;13616
937022;13531
937030;13475
937039;13387
937047;13371
937055;13262
937063;13188
937071;13081
937080;13027
937088;12932
937096;12774
937104;12513
937112;12269
937121;12009
937129;11795
937137;11618
937145;11600
937153;11651
937161;11779
937170;11945
937178;12171
937189;12745
937197;13251
937206;13562
937214;13919
937222;14111
937230;14275
937238;14302
937246;14317
937255;14242
937263;14194
937271;14203
937279;14201
937287;14085
937296;14052
937304;13976
937312;13913
937320;13858
937328;13834
937337;13819
937345;13824
937353;13804
937361;13829
937369;13794
937378;13809
937386;13794
937394;13763
937402;13758
937410;13768
937418;13797
937427;13724
937435;13608
937443;13384
937451;13344
937459;13431
937468;13485
937476;13471
937484;13502
937495;13690
937503;13845
937512;13915
937520;13863
937528;13824
937536;13771
937544;13758
937553;13692
937561;13633
937569;13559
937577;13723
937585;13676
937594;11617
937602;7882
937610;5694
937618;9593
937626;16159
937635;16252
937643;15277
937651;14600
937659;14328
937667;13991
937676;13821
937684;13770
937692;13640
937700;13576
937708;13509
937716;13496
937725;13398
937733;13368
937741;13233
937749;13131
937757;12966
937766;12807
937774;12594
937782;12461
937790;12204
937801;11954
937810;11851
937818;11818
937826;11811
937834;11888
937842;12024
937851;12312
937859;12700
937867;13144
937875;13551
937883;13959
937892;14177
937900;14357
937908;14432
937916;14511
937924;14488
937933;14471
937941;14374
937949;14356
937957;14254
937965;14233
937974;14129
937982;14066
937990;13993
937998;14007
938006;13973
938014;13990
938023;13942
938031;13935
938039;13915
938047;13976
938055;13930
938064;13951
938072;13935
938080;13988
938088;13950
938099;13991
938108;13766
938116;13649
938124;13571
938132;13715
938140;13730
938149;13761
938157;13770
938165;13872
938173;13944
938181;14013
938190;14013
938198;14047
938206;14019
938214;13994
938222;13897
938231;13859
938239;13726
938247;14171
938255;12962
938263;9645
938271;6334
938280;6936
938288;14622
938296;16577
938304;15757
938312;14843
938321;14434
938329;14123
938337;13849
938345;13728
938353;13661
938362;13563
938370;13485
938378;13431
938386;13391
938394;13335
938406;13290
938414;13227
938422;13025
938430;12887
938438;12700
938447;12509
938455;12242
938463;12006
938471;11807
938479;11760
938488;11765
938496;11855
938504;11955
938512;12208
938520;12545
938529;12944
938537;13366
938545;13842
938553;14167
938561;14332
938569;14448
938578;14498
938586;14537
938594;14561
938602;14590
938610;14564
938619;14548
938627;14458
938635;14423
938643;14354
938651;14288
938660;14270
938668;14291
938676;14215
938684;14192
938692;14158
938701;14230
938711;14288
938719;14322
938727;14319
938735;14332
938744;14334
938752;14325
938760;14256
938768;14165
938776;13881
938785;13787
938793;13732
938801;13744
938809;13765
938817;13829
938825;13814
938834;13945
938842;14022
938850;14050
938858;13967
938866;13978
938875;13906
938883;13888
938891;13810
938899;13759
938907;13691
938916;13900
938924;12199
938932;8610
938940;5930
938948;8625
938958;15970
938966;16475
938974;15433
938982;14636
938990;14267
938999;13941
939009;13736
939017;13686
939025;13557
939033;13504
939042;13405
939050;13361
939058;13231
939066;13159
939074;13049
939082;13003
939091;12838
939099;12753
939107;12575
939115;12382
939123;12123
939132;11931
939140;11759
939148;11785
939156;11799
939164;11901
939173;12002
939181;12287
939189;12607
939197;13036
939205;13407
939214;13770
939222;13990
939230;14138
939238;14220
939246;14301
939255;14298
939263;14290
939271;14206
939279;14186
939287;14122
939295;14056
939304;13980
939323;14226
939331;14252
939340;14128
939348;14103
939356;14044
939364;14037
939372;13983
939380;14001
939389;13999
939397;14017
939405;13983
939413;14010
939421;14014
939430;13928
939438;13794
939446;13611
939454;13539
939462;13565
939471;13551
939479;13546
939487;13535
939495;13614
939503;13674
939512;13770
939520;13732
939528;13723
939536;13649
939544;13690
939553;13685
939561;13642
939569;13579
939577;13472
939585;13845
939593;12979
939602;9955
939610;6539
939618;6282
939629;15714
939638;16511
939646;15593
939654;14644
939662;14310
939670;13961
939678;13710
939687;13604
939695;13576
939703;13511
939711;13475
939719;13399
939728;13347
939736;13273
939744;13198
939752;13086
939760;12982
939769;12784
939777;12643
939785;12434
939793;12112
939801;11855
939810;11672
939818;11579
939826;11576
939834;11656
939842;11781
939850;11977
939859;12285
939867;12736
939875;13161
939883;13526
939891;13849
939900;14107
939908;14231
939916;14319
939927;14447
939935;14478
939944;14422
939952;14344
939960;14280
939968;14214
939976;14129
939985;14060
939993;14003
940001;13984
940009;13919
940017;13891
940026;13847
940034;13837
940042;13818
940050;13801
940058;13777
940067;13795
940075;13782
940083;13828
940091;13796
940099;13880
940108;13789
940116;13710
940124;13446
940132;13464
940140;13481
940148;13585
940157;13655
940165;13765
940173;13813
940181;13917
940189;13973
940198;14018
940206;13960
940214;14002
940222;13956
940233;14033
940242;13988
940250;13898
940258;13791
940266;14087
940274;12400
940283;8817
940291;6251
940299;9001
940307;16258
940315;16657
940324;15591
940332;14767
940340;14426
940348;14109
940356;13834
940365;13738
940373;13636
940381;13573
940389;13447
940397;13427
940406;13366
940414;13273
940422;13062
940430;12949
940438;12793
940446;12653
940455;12432
940463;12262
940471;12028
940479;11822
940487;11628
940496;11555
940504;11525
940512;11603
940520;11730
940528;11987
940540;12503
940548;13029
940556;13391
940564;13781
940572;14024
940581;14239
940589;14364
940597;14482
940605;14479
940613;14472
940622;14379
940630;14321
940638;14242
940646;14225
940654;14114
940663;14077
940671;13984
940679;13919
940687;13827
940695;13820
940703;13773
940712;13801
940720;13773
940728;13753
940736;13867
940744;13908
940753;13896
940761;13915
940769;13884
940777;13828
940785;13599
940794;13443
940802;13440
940810;13490
940818;13511
940826;13493
940838;13665
940846;13876
940854;14008
940862;14022
940870;13957
940879;13949
940887;13906
940895;13939
940903;13935
940911;13902
940920;13838
940928;14284
940936;13309
940944;10131
940952;6720
940961;6862
940969;14535
940977;16932
940985;16075
940993;15036
941001;14547
941010;14259
941018;14007
941026;13843
941034;13734
941042;13629
941051;13562
941059;13472
941067;13446
941075;13332
941083;13244
941092;13099
941100;12985
941108;12806
941116;12736
941124;12523
941133;12296
941143;12027
941151;11865
941159;11734
941167;11725
941176;11777
941184;11907
941192;12181
941200;12477
941208;12884
941217;13318
941225;13683
941233;13971
941241;14179
941249;14376
941257;14454
941266;14509
941274;14522
941282;14504
941290;14464
941298;14433
941307;14336
941315;14287
941324;14220
941332;14210
941340;14128
941349;14090
941357;14069
941365;14144
941373;14118
941381;14189
941390;14242
941398;14312
941406;14248
941414;14219
941422;14114
941431;13992
941441;13912
941449;13951
941457;13917
941465;13960
941474;14041
941482;14163
941490;14215
941498;14233
941506;14192
941514;14105
941523;14092
941531;14119
941539;14002
941547;13907
941555;13775
941564;13829
941572;13777
941580;11828
941588;8125
941596;6176
941605;10346
941613;17128
941621;16834
941629;15771
941637;14777
941646;14429
941654;14086
941662;13788
941670;13638
941678;13541
941687;13448
941695;13432
941703;13322
941711;13225
941719;13100
941727;13036
941736;12907
941747;12809
941755;12606
941763;12406
941772;12189
941780;11949
941788;11688
941796;11542
941804;11491
941812;11586
941821;11632
941829;11843
941837;12093
941845;12492
941853;12887
941862;13302
941870;13614
941878;13904
941886;14080
941894;14192
941903;14275
941911;14316
941919;14298
941927;14278
941935;14221
941944;14194
941952;14084
941960;14053
941968;14007
941976;13965
941985;13938
941993;13906
942001;13850
942009;13891
942017;13904
942025;13918
942034;13917
942042;13916
942053;13959
942061;13909
942070;13673
942078;13543
942086;13507
942094;13565
942102;13599
942110;13644
942119;13755
942127;13929
942135;13954
942143;13937
942151;13869
942160;13878
942168;13796
942176;13768
942184;13748
942192;13647
942201;13555
942209;13960
942217;12739
942225;9297
942233;6113
942242;6996
942250;15005
942258;16721
942266;15891
942274;14919
942282;14432
942291;14122
942299;13825
942307;13685
942315;13616
942323;13453
942332;13439
942340;13344
942348;13271
942359;13224
942367;13155
942376;13023
942384;12830
942392;12655
942400;12432
942408;12193
942417;11932
942425;11684
942433;11567
942441;11521
942449;11573
942458;11668
942466;11806
942474;12038
942482;12416
942490;12892
942499;13341
942507;13689
942515;13932
942523;14117
942531;14291
942540;14330
942548;14333
942556;14306
942564;14333
942572;14271
942580;14260
942589;14213
942597;14214
942605;14192
942613;14207
942621;14112
942630;14117
942638;14060
942646;14050
942657;14098
942665;14133
942674;14119
942682;14107
942690;14070
942698;14044
942706;13984
942715;13852
942723;13631
942731;13606
942739;13646
942747;13750
942756;13706
942764;13739
942772;13790
942780;13918
942788;13971
942797;13969
942805;13924
942813;13922
942821;13858
942829;13806
942838;13704
942846;13596
942854;13550
942862;13819
942870;12063
942878;8205
942887;5234
942895;8021
942903;15619
942911;16391
942919;15520
942928;14796
942936;14469
942944;14094
942952;13829
942963;13777
942972;13751
942980;13741
942988;13612
942996;13589
943004;13464
943013;13358
943021;13229
943029;13126
943037;12956
943045;12817
943054;12547
943062;12366
943070;12117
943078;11885
943086;11690
943095;11676
943103;11685
943111;11802
943119;11918
943127;12179
943135;12565
943144;13067
943152;13436
943160;13802
943168;14074
943176;14276
943185;14316
943193;14352
943201;14326
943209;14338
943217;14264
943226;14198
943234;14182
943242;14156
943250;14174
943261;14171
943270;14233
943278;14265
943286;14164
943294;14133
943302;14068
943311;14052
943319;14023
943327;14048
943335;14021
943343;14051
943352;13953
943360;13858
943368;13590
943376;13531
943384;13564
943393;13610
943401;13600
943409;13652
943417;13700
943425;13811
943433;13877
943442;13945
943450;13920
943458;13939
943466;13858
943474;13858
943483;13830
943491;13760
943499;13650
943507;14064
943515;13289
943524;10280
943532;6408
943540;5809
943548;13163
943556;16577
943568;15583
943576;14829
943584;14515
943592;14135
943600;13840
943609;13720
943617;13640
943625;13602
943633;13538
943641;13458
943650;13367
943658;13300
943666;13231
943674;13154
943682;13048
943690;12865
943699;12681
943707;12468
943715;12176
943723;11905
943731;11729
943740;11609
943748;11600
943756;11634
943764;11785
943772;11974
943781;12308
943789;12726
943797;13183
943805;13586
943813;13909
943822;14088
943830;14248
943838;14317
943846;14351
943854;14341
943863;14338
943874;14333
943882;14380
943890;14310
943898;14225
943907;14151
943915;14111
943923;14057
943931;14071
943939;14038
943948;14019
943956;13981
943964;13939
943972;13936
943980;14026
943988;13962
943997;14011
944005;13925
944013;13868
944021;13618
944029;13586
944038;13583
944046;13658
944054;13602
944062;13655
944070;13692
944079;13850
944087;13931
944095;13990
944103;13963
944111;13974
944120;13927
944128;13923
944136;13781
944144;13732
944152;13624
944161;14086
944172;12065
944180;8379
944188;5636
944196;9229
944205;16338
944213;16449
944221;15437
944229;14731
944237;14430
944246;14117
944254;13871
944262;13819
944270;13724
944278;13704
944286;13569
944295;13498
944303;13493
944311;13477
944319;13360
944327;13244
944336;13033
944344;12870
944352;12642
944360;12436
944368;12134
944377;11918
944385;11741
944393;11691
944401;11652
944409;11779
944418;11870
944426;12097
944434;12463
944442;12905
944450;13343
944458;13746
944467;14057
944477;14418
944485;14564
944493;14627
944502;14628
944510;14646
944518;14589
944526;14535
944534;14420
944542;14407
944551;14317
944559;14307
944568;14249
944576;14279
944584;14225
944593;14199
944601;14168
944609;14164
944617;14154
944625;14090
944634;14081
944642;14057
944650;14061
944658;14024
944666;13930
944675;13758
944683;13694
944691;13775
944699;13804
944707;13807
944716;13847
944724;13898
944732;13975
944740;14017
944748;13996
944756;13954
944765;13946
944773;13912
944783;13986
944791;14107
944799;14077
944808;14265
944816;13977
944824;11781
944832;8169
944840;6429
944849;11912
944857;17521
944865;16943
944873;15866
944881;15062
944890;14717
944898;14413
944906;14181
944914;14054
944922;13926
944931;13856
944939;13794
944947;13731
944955;13618
944963;13541
944972;13411
944980;13346
944988;13198
944996;13098
945004;12887
945012;12731
945021;12377
945029;12089
945037;11873
945045;11770
945053;11720
945062;11857
945070;11975
945081;12454
945089;12895
945097;13305
945106;13711
945114;14122
945122;14298
945130;14537
945138;14654
945147;14742
945155;14780
945163;14796
945171;14766
945179;14796
945188;14702
945196;14691
945204;14535
945212;14489
945220;14396
945229;14382
945237;14284
945245;14315
945253;14270
945261;14274
945270;14183
945278;14180
945286;13935
945294;13801
945302;13708
945310;13723
945319;13681
945327;13700
945335;13753
945343;13853
945351;13912
945360;13985
945368;13984
945376;13945
945387;13948
945395;14000
945404;13911
945412;13862
945420;13716
945428;13714
945436;13858
945445;12080
945453;8372
945461;6130
945469;8702
945477;16150
945486;16491
945494;15602
945502;14626
945510;14210
945518;13845
945527;13554
945535;13350
945543;13313
945551;13250
945559;13179
945567;13088
945576;13036
945584;12925
945592;12869
945600;12752
945608;12597
945617;12394
945625;12199
945633;11973
945641;11736
945649;11470
945658;11271
945666;11260
945674;11287
945682;11409
945693;11666
945702;11939
945710;12373
945718;12785
945726;13188
945734;13430
945743;13638
945751;13778
945759;13887
945767;13892
945775;13888
945784;13832
945792;13802
945800;13730
945808;13644
945816;13505
945825;13454
945833;13361
945841;13313
945849;13320
945857;13302
945865;13264
945874;13272
945882;13290
945890;13309
945898;13340
945906;13342
945915;13335
945923;13236
945931;13178
945939;13163
945947;13233
945956;13288
945964;13399
945972;13478
945980;13631
945991;13851
946000;13940
946008;13935
946016;13916
946024;13925
946032;13862
946041;13879
946049;13841
946057;13741
946065;14159
946073;13016
946082;9578
946090;5799
946098;6067
946106;13841
946114;16318
946122;15664
946131;14833
946139;14476
946147;14233
946155;13954
946163;13871
946172;13751
946180;13677
946188;13599
946196;13593
946204;13533
946213;13483
946221;13370
946229;13307
946237;13133
946245;13021
946254;12809
946262;12607
946270;12324
946278;12095
946286;11811
946298;11747
946306;11758
946314;11845
946322;11946
946330;12218
946339;12542
946347;12993
946355;13350
946363;13751
946371;14022
946380;14253
946388;14279
946396;14335
946404;14321
946412;14317
946420;14224
946429;14221
946437;14092
946445;14060
946453;13988
946461;13978
946470;13920
946478;13944
946486;13908
946494;13938
946502;13858
946511;13848
946519;13770
946527;13785
946535;13767
946543;13789
946552;13795
946560;13842
946568;13791
946576;13641
946584;13416
946593;13411
946603;13599
946611;13728
946619;13690
946627;13733
946636;13749
946644;13908
946652;13923
946660;13945
946668;13886
946676;13910
946685;13846
946693;13805
946701;13714
946709;13615
946717;13952
946726;13237
946734;10294
946742;6413
946750;5586
946759;12688
946768;16395
946776;15757
946784;14784
946792;14358
946800;14069
946809;13811
946817;13699
946825;13676
946833;13558
946841;13500
946850;13461
946858;13418
946866;13336
946874;13262
946882;13145
946890;13022
946901;12853
946909;12764
946917;12489
946925;12244
946934;11943
946942;11810
946950;11663
946958;11646
946966;11668
946974;11787
946983;11953
946991;12319
946999;12749
947007;13247
947015;13652
947024;14031
947032;14307
947040;14473
947048;14613
947056;14719
947065;14730
947073;14738
947081;14709
947089;14650
947097;14610
947106;14538
947114;14444
947122;14378
947130;14380
947138;14307
947146;14313
947155;14322
947163;14327
947171;14260
947179;14239
947187;14228
947196;14231
947207;14280
947215;14300
947223;14306
947231;14200
947240;14082
947248;13893
947256;13878
947264;13903
947272;13962
947281;13963
947289;14008
947297;14085
947305;14212
947313;14302
947322;14289
947330;14253
947338;14248
947346;14243
947354;14234
947363;14230
947371;14134
947379;14081
947387;14411
947395;12970
947404;9434
947412;6699
947420;8379
947428;16213
947436;17162
947444;16249
947453;15230
947461;14890
947469;14595
947477;14367
947485;14159
947494;14091
947502;13968
947513;13936
947521;13920
947529;13865
947538;13744
947546;13638
947554;13475
947562;13326
947570;13120
947579;12943
947587;12649
947595;12373
947603;12087
947611;11922
947620;11824
947628;11852
947636;11847
947644;11979
947652;12143
947661;12497
947669;12967
947677;13449
947685;13739
947693;14070
947702;14240
947710;14350
947718;14399
947726;14540
947734;14479
947742;14472
947751;14435
947759;14415
947767;14298
947775;14291
947783;14251
947792;14205
947800;14107
947811;14142
947819;14128
947827;14100
947836;14003
947844;14008
947852;13972
947860;13968
947868;13841
947877;13671
947885;13526
947893;13574
947901;13487
947909;13523
947918;13563
947926;13704
947934;13777
947942;13873
947950;13855
947959;13923
947967;13884
947975;13894
947983;13821
947991;13811
947999;13691
948008;13592
948016;13952
948024;13276
948032;10331
948040;6825
948049;6198
948057;13375
948065;17020
948073;16284
948081;15301
948090;14604
948098;14261
948106;13920
948117;13656
948125;13603
948134;13418
948142;13289
948150;13123
948158;13061
948166;12975
948175;12906
948183;12780
948191;12674
948199;12508
948207;12354
948216;12122
948224;11916
948232;11630
948240;11489
948248;11376
948257;11397
948265;11447
948273;11619
948281;11834
948289;12166
948297;12606
948306;13063
948314;13480
948322;13828
948330;14060
948338;14150
948347;14195
948355;14227
948363;14230
948371;14185
948379;14121
948388;14056
948396;14031
948404;13981
948412;13949
948423;13907
948432;13933
948440;13922
948448;13884
948456;13847
948464;13785
948473;13727
948481;13719
948489;13727
948497;13730
948505;13727
948514;13716
948522;13662
948530;13514
948538;13286
948546;13286
948554;13412
948563;13483
948571;13501
948579;13568
948587;13623
948595;13810
948604;13872
948612;13895
948620;13883
948628;13862
948636;13800
948645;13800
948653;13722
948661;13667
948669;13918
948677;13743
948686;11210
948694;7139
948702;5173
948710;10243
948721;16540
948730;16008
948738;15077
948746;14605
948754;14220
948762;13949
948771;13795
948779;13719
948787;13590
948795;13580
948803;13479
948812;13461
948820;13402
948828;13368
948836;13246
948844;13156
948852;12989
948861;12876
948869;12634
948877;12460
948885;12220
948893;12066
948902;11890
948910;11908
948918;11922
948926;12126
948934;12260
948943;12573
948951;12944
948959;13417
948967;13841
948975;14213
948984;14422
948992;14628
949000;14675
949008;14715
949016;14714
949028;14797
949036;14771
949044;14722
949052;14588
949060;14550
949069;14474
949077;14417
949085;14286
949093;14262
949101;14161
949110;14188
949118;14138
949126;14142
949134;14082
949142;14094
949150;14004
949159;14042
949167;14052
949175;14032
949183;13973
949191;13907
949200;13740
949208;13548
949216;13470
949224;13552
949232;13661
949241;13683
949249;13695
949257;13793
949265;13874
949273;13957
949282;13944
949290;13912
949298;13867
949306;13845
949314;13833
949325;13876
949333;13826
949341;13848
949349;14002
949357;12125
949366;8133
949374;5455
949382;8346
949391;15704
949399;16260
949407;15393
949416;14593
949424;14287
949432;13947
949440;13733
949448;13672
949457;13591
949465;13528
949473;13481
949481;13397
949489;13364
949498;13279
949506;13132
949514;13003
949522;12901
949530;12685
949539;12534
949547;12377
949555;12085
949563;11827
949571;11572
949580;11563
949588;11585
949596;11588
949604;11741
949612;12203
949620;12508
949631;13339
949639;13789
949647;14074
949655;14254
949663;14608
949672;14766
949680;14796
949688;14958
949696;15018
949704;14971
949713;15063
949721;15001
949729;14882
949737;14740
949745;14720
949754;14972
949762;15296
949770;15302
949778;15487
949786;15382
949795;15494
949803;15242
949811;15329
949819;15077
949827;15192
949836;15034
949844;15142
949852;14956
949860;15010
949868;14738
949876;14696
949885;14641
949893;14769
949901;14516
949909;14460
949917;14198
949926;13935
949937;13775
949945;14003
949953;13834
949961;13920
949970;13737
949978;13939
949986;13906
949994;13999
950002;13838
950011;13900
950019;13773
950027;13939
950035;13745
950043;13749
950052;13567
950060;13756
950068;13366
950076;11459
950084;7976
950093;7269
950101;11338
950109;16519
950117;16036
950125;15022
950134;14070
950142;13695
950150;13307
950158;13141
950166;12957
950174;13039
950183;12921
950191;12877
950199;12705
950207;12673
950215;12683
950224;12685
950232;12637
950243;12682
950251;12466
950259;12385
950268;12031
950276;11846
950284;11456
950292;11297
950300;11088
950309;11037
950317;11138
950325;11360
950333;11169
950341;11559
950350;12334
950358;13046
950366;13464
950374;13772
950382;13945
950391;14109
950399;14092
950407;14089
950415;14368
950423;14273
950431;14228
950440;14148
950448;14012
950456;13680
950464;13629
950472;13425
950481;13359
950489;13268
950497;13418
950505;13482
950513;13682
950522;13692
950530;13846
950541;13983
950549;14003
950557;14146
950566;14202
950574;14274
950582;14464
950590;14606
950598;14722
950607;14573
950615;14431
950623;14192
950631;14150
950639;14147
950648;14193
950656;14192
950664;14249
950672;14167
950680;14331
950689;14331
950697;14426
950705;14384
950713;14499
950721;14450
950729;14556
950738;14442
950746;14552
950754;14428
950762;14604
950770;13222
950779;10331
950787;9114
950795;11215
950803;16891
950811;17732
950820;16551
950828;15307
950836;14577
950847;14383
950855;14248
950864;14191
950872;14123
950880;14192
950888;14074
950896;14031
950905;13946
950913;14120
950921;14017
950929;13951
950937;13792
950946;13822
950954;13472
950962;13487
950970;13104
950978;13054
950986;12673
950995;12676
951003;12495
951011;12638
951019;12655
951027;12976
951036;13082
951044;13566
951052;13606
951060;13970
951068;14215
951077;14525
951085;14542
951093;14693
951101;14425
951109;14373
951118;14185
951126;14661
951134;14490
951145;14557
951153;14475
951162;14540
951170;14272
951178;14283
951186;14107
951194;14151
951203;13837
951211;13914
951219;13630
951227;13678
951235;13485
951244;13540
951252;13384
951260;13490
951268;13311
951276;13410
951284;13344
951293;13388
951301;13192
951309;13134
951317;12827
951325;12873
951334;12855
951342;12923
951350;12811
951358;12966
951366;13015
951375;13185
951383;13248
951391;13229
951399;13107
951407;13117
951416;13024
951424;13082
951432;12999
951440;12960
951451;13004
951460;12498
951468;10261
951476;7411
951484;7257
951492;12256
951501;16426
951509;15876
951517;14551
951525;13689
951533;13262
951542;12998
951550;12765
951558;12717
951566;12582
951574;12540
951582;12464
951591;12470
951599;12468
951607;12492
951615;12470
951623;12432
951632;12272
951640;12138
951648;12028
951656;11748
951664;11494
951673;11203
951681;11103
951689;10899
951697;11117
951705;11128
951714;11367
951722;11589
951730;12098
951738;12409
951746;12914
951758;13463
951766;13793
951774;13955
951782;13966
951790;13968
951799;13932
951807;13926
951815;13962
951823;13962
951831;13964
951839;13943
951848;13970
951856;13895
951864;13906
951872;13830
951880;13854
951889;13790
951897;13876
951905;13795
951913;13860
951921;13731
951930;13771
951938;13664
951946;13768
951954;13649
951962;13754
951971;13678
951979;13817
951987;13621
951995;13738
952003;13416
952012;13505
952020;13412
952028;13610
952036;13511
952044;13687
952056;13808
952064;14054
952072;14225
952080;14421
952088;14315
952097;14483
952105;14339
952113;14482
952121;14318
952129;14432
952137;14319
952146;14590
952154;12936
952162;9633
952170;7523
952178;10213
952187;16688
952195;17277
952203;16175
952211;15249
952219;14701
952228;14578
952236;14149
952244;14109
952252;13835
952260;13839
952269;13587
952277;13607
952285;13401
952293;13493
952301;13237
952310;13231
952318;12942
952326;12865
952334;12529
952342;12433
952350;11975
952362;11704
952370;11351
952378;11336
952386;11102
952394;11291
952403;11280
952411;11613
952419;11823
952427;12443
952435;12738
952444;13246
952452;13438
952460;13838
952468;13901
952476;14137
952485;14204
952493;14427
952501;14291
952509;14351
952517;14188
952526;14332
952534;14097
952542;14122
952550;13988
952558;13978
952567;13825
952575;13856
952583;13715
952591;13729
952599;13717
952607;13769
952616;13743
952624;13824
952632;13807
952640;13925
952648;13893
952660;13864
952668;13658
952676;13605
952684;13530
952692;13600
952701;13447
952709;13598
952717;13591
952725;13761
952733;13737
952742;13871
952750;13719
952758;13787
952766;13660
952774;13702
952783;13631
952791;13588
952799;13469
952807;13870
952815;12972
952824;10180
952832;7232
952840;7433
952848;14033
952856;16940
952865;16188
952873;15147
952881;14338
952889;14114
952897;13839
952905;13566
952914;13461
952922;13357
952930;13239
952938;13146
952946;13160
952955;13003
952966;12905
952974;12848
952982;12605
952990;12455
952999;12199
953007;12003
953015;11653
953023;11337
953031;11097
953040;11006
953048;10924
953056;10946
953064;11038
953072;11250
953081;11619
953089;11995
953097;12450
953105;12836
953113;13229
953122;13440
953130;13713
953138;13783
953146;13872
953154;13874
953162;13907
953171;13861
953179;13946
953187;13805
953195;13891
953203;13819
953212;13881
953220;13701
953228;13742
953236;13614
953244;13752
953253;13644
953261;13798
953271;13838
953279;13985
953287;14003
953296;14033
953304;14011
953312;13954
953320;13897
953328;13950
953337;13831
953345;13865
953353;13920
953361;14030
953369;14036
953378;14238
953386;14292
953394;14414
953402;14307
953411;14430
953420;14353
953428;14406
953436;14289
953444;14337
953452;14172
953460;14443
953469;13036
953477;9990
953485;7663
953493;9551
953501;16250
953510;17216
953518;16197
953526;15285
953534;14684
953542;14378
953551;13977
953559;13925
953567;13814
953577;13737
953585;13724
953594;13617
953602;13524
953610;13456
953618;13362
953626;13198
953635;13100
953643;12972
953651;12799
953659;12578
953667;12354
953676;12084
953684;11882
953692;11706
953700;11718
953708;11707
953716;11855
953725;12026
953733;12393
953741;12845
953749;13297
953757;13692
953766;13993
953774;14195
953782;14352
953790;14451
953798;14480
953807;14443
953815;14391
953823;14369
953831;14352
953839;14308
953848;14267
953856;14197
953864;14157
953875;14131
953883;14140
953892;14074
953900;14048
953908;14005
953916;13999
953924;13972
953933;13958
953941;13946
953949;13961
953957;13918
953965;13930
953974;13844
953982;13685
953990;13501
953998;13406
954006;13398
954014;13461
954023;13407
954031;13364
954039;13469
954047;13535
954055;13665
954064;13612
954072;13676
954080;13650
954088;13615
954096;13580
954105;13579
954113;13530
954121;13438
954129;13528
954137;12229
954146;8995
954154;6792
954162;8856
954170;15524
954181;16230
954190;15122
954198;14388
954206;14085
954214;13789
954222;13627
954231;13575
954239;13436
954247;13369
954255;13301
954263;13181
954271;13073
954280;13014
954288;12947
954296;12837
954304;12702
954312;12570
954321;12442
954329;12203
954337;11967
954345;11764
954353;11591
954362;11473
954370;11470
954378;11474
954386;11685
954394;11879
954403;12236
954411;12640
954419;13100
954427;13414
954435;13726
954444;13932
954452;14114
954460;14142
954468;14179
954479;14201
954488;14234
954496;14115
954504;14104
954512;14061
954520;14002
954529;13896
954537;13887
954545;13816
954553;13840
954561;13755
954569;13738
954578;13733
954586;13751
954594;13729
954602;13823
954610;13770
954619;13755
954627;13592
954635;13568
954643;13553
954651;13587
954660;13541
954668;13617
954676;13660
954684;13842
954692;13821
954701;13919
954709;13873
954717;13954
954725;13905
954733;13915
954742;13870
954750;13847
954758;13706
954766;13799
954774;13349
954786;10349
954794;7514
954802;8025
954810;14469
954818;16780
954826;15886
954835;14826
954843;14323
954851;14100
954859;13757
954867;13671
954876;13546
954884;13490
954892;13362
954900;13316
954908;13227
954917;13236
954925;13093
954933;13002
954941;12896
954949;12816
954958;12611
954966;12481
954974;12291
954982;12091
954990;11822
954999;11726
955007;11697
955015;11735
955023;11803
955031;11945
955039;12156
955048;12549
955056;12961
955064;13383
955072;13754
955080;14008
955092;14233
955100;14420
955108;14380
955116;14429
955124;14373
955133;14341
955141;14284
955149;14312
955157;14262
955165;14235
955174;14175
955182;14127
955190;14111
955198;14086
955206;14072
955215;14064
955223;14063
955231;14116
955239;14130
955247;14126
955256;14030
955264;13859
955272;13715
955280;13687
955288;13648
955297;13700
955305;13739
955313;13802
955321;13905
955329;13977
955337;13983
955346;13977
955354;13978
955362;13949
955370;13936
955378;13870
955390;13844
955398;13819
955406;14024
955414;13261
955422;10774
955431;7624
955439;7461
955447;13934
955455;17013
955463;16233
955472;15135
955480;14472
955488;14239
955496;13933
955504;13710
955513;13617
955521;13584
955529;13557
955537;13499
955545;13398
955554;13341
955562;13230
955570;13210
955578;13058
955586;13019
955594;12787
955603;12692
955611;12419
955619;12203
955627;11996
955635;11879
955644;11734
955652;11756
955660;11834
955668;12064
955676;12206
955685;12614
955695;13194
955703;13652
955711;13937
955719;14173
955728;14279
955736;14450
955744;14499
955752;14536
955760;14484
955769;14498
955777;14460
955785;14283
955794;14395
955802;14310
955811;14356
955819;14237
955827;14393
955835;14276
955843;14381
955852;14200
955860;14335
955868;14152
955876;14235
955884;14040
955892;14249
955901;14109
955909;14279
955917;14224
955925;14432
955933;14397
955942;14610
955950;14497
955958;14642
955966;14483
955974;14605
955983;14511
955991;14587
956001;14450
956009;14551
956017;14369
956026;14269
956034;12016
956042;8717
956050;7709
956058;11724
956067;17363
956075;17145
956083;15988
956091;15098
956099;14482
956108;14343
956116;13933
956124;13920
956132;13665
956140;13702
956148;13530
956157;13605
956165;13415
956173;13403
956181;13143
956189;13158
956198;12920
956206;12837
956214;12541
956222;12390
956230;12005
956239;11778
956247;11492
956255;11435
956263;11371
956271;11485
956280;11503
956288;11746
956299;12199
956307;12819
956315;13095
956324;13412
956332;13451
956340;13717
956348;13718
956356;13899
956365;13887
956373;13994
956381;13859
956389;13891
956397;13820
956406;13877
956414;13802
956422;13824
956430;13726
956438;13720
956446;13634
956455;13643
956463;13583
956471;13572
956479;13511
956487;13502
956496;13386
956504;13291
956512;13357
956520;13358
956528;13380
956537;13471
956545;13647
956553;13772
956561;13950
956569;13949
956578;14083
956586;14078
956594;14094
956605;14215
956613;14160
956622;14078
956630;13904
956638;14024
956646;13611
956654;11652
956663;8166
956671;6846
956679;11851
956687;16537
956695;16246
956703;15281
956712;14568
956720;14295
956728;13987
956736;13729
956744;13635
956753;13454
956761;13372
956769;13298
956777;13262
956785;13126
956794;13127
956802;12934
956810;12921
956818;12712
956826;12630
956835;12297
956843;12253
956851;11979
956859;11857
956867;11609
956876;11640
956884;11552
956892;11681
956900;11625
956911;12084
956920;12449
956928;12942
956936;13246
956944;13341
956952;13474
956961;13664
956969;14025
956977;14184
956985;14123
956993;13993
957001;13812
957010;13814
957018;13771
957026;13933
957034;13978
957042;14095
957051;14003
957059;14242
957067;14259
957075;14381
957083;14279
957092;14325
957100;14262
957108;14229
957116;14031
957124;13915
957133;14054
957141;14089
957149;13956
957157;14040
957165;13994
957174;14066
957182;14045
957190;14125
957198;13950
957209;13793
957218;14012
957226;14048
957234;14011
957242;13926
957250;13834
957258;13807
957267;12021
957275;8123
957283;5454
957291;9118
957299;15514
957308;15746
957316;14910
957324;14548
957332;14318
957340;14067
957349;13852
957357;13766
957365;13561
957373;13540
957381;13447
957390;13385
957398;13205
957406;13153
957414;13018
957422;12928
957431;12688
957439;12670
957447;12544
957455;12339
957463;12064
957471;11816
957480;11607
957488;11532
957496;11591
957504;11732
957516;12037
957524;12380
957532;12729
957540;13242
957548;13631
957556;14015
957565;14164
957573;14257
957581;14386
957589;14551
957597;14491
957606;14519
957614;14400
957622;14232
957630;14077
957638;13979
957647;13977
957655;14100
957663;14122
957671;14098
957679;14062
957688;14065
957696;13984
957704;13839
957712;13838
957720;13592
957729;13448
957737;13564
957745;13682
957753;13602
957761;13645
957769;13656
957778;13807
957786;13924
957794;13968
957802;13899
957810;13930
957821;13829
957829;13789
957837;13692
957845;13811
957853;13759
957862;13736
957870;13945
957878;12161
957886;8080
957894;5126
957903;8071
957911;15480
957919;15949
957927;15296
957935;14514
957944;14348
957952;14044
957960;13863
957968;13819
957976;13719
957985;13579
957993;13608
958001;13529
958009;13558
958017;13429
958026;13341
958035;13155
958043;13138
958051;12956
958059;12772
958067;12422
958076;12213
958084;11875
958092;11779
958100;11691
958108;11728
958119;11833
958127;12102
958135;12281
958143;12684
958151;13075
958160;13459
958168;13790
958176;14114
958184;14197
958192;14303
958201;14247
958209;14313
958217;14166
958225;14228
958233;14138
958242;14187
958250;14058
958258;14046
958266;13996
958274;14044
958282;13932
958291;13967
958299;13897
958307;13974
958315;13885
958323;14088
958332;14040
958340;13962
958348;13737
958356;13712
958364;13498
958373;13715
958381;13817
958389;13950
958397;13882
958405;14001
958414;14054
958425;14121
958433;14073
958441;14053
958449;13854
958458;13896
958466;13726
958474;13751
958482;13554
958490;14182
958499;13224
958507;9825
958515;5811
958523;6142
958531;13925
958540;16396
958548;15668
958556;14988
958564;14565
958572;14331
958580;14090
958589;14061
958597;13881
958605;13819
958613;13710
958621;13597
958630;13482
958638;13417
958646;13321
958654;13394
958662;13188
958671;12952
958679;12753
958687;12626
958695;12383
958703;12062
958712;11796
958720;11817
958739;12324
958747;12405
958756;12563
958764;12719
958772;13169
958780;13484
958788;13835
958797;14097
958805;14243
958813;14281
958821;14405
958829;14425
958838;14453
958846;14421
958854;14346
958862;14339
958870;14266
958878;14234
958887;14170
958895;14182
958903;14124
958911;14145
958919;14159
958928;14240
958936;14198
958944;14230
958952;14154
958960;14220
958969;14179
958977;14251
958985;14007
958993;13807
959001;13687
959010;13714
959018;13691
959026;13704
959037;13793
959045;13896
959054;13961
959062;14062
959070;14063
959078;14078
959086;14042
959095;14083
959103;14005
959111;13980
959119;13875
959127;14089
959135;13996
959144;11913
959152;7858
959160;6068
959168;10869
959176;16633
959185;16283
959193;15327
959201;14611
959209;14477
959217;14157
959226;13971
959234;13815
959242;13736
959250;13658
959258;13714
959267;13593
959275;13559
959283;13404
959291;13307
959299;13088
959308;13082
959316;12814
959324;12743
959332;12371
959343;12166
959352;11902
959360;11941
959368;11751
959376;11908
959384;11890
959393;12113
959401;12272
959409;12725
959417;13130
959425;13615
959433;13824
959442;14234
959450;14308
959458;14533
959466;14424
959474;14584
959483;14402
959491;14557
959499;14347
959507;14385
959515;14167
959524;14237
959532;14082
959540;14152
959548;13980
959556;14104
959565;14067
959573;14150
959581;13970
959589;13994
959597;13737
959606;13717
959614;13565
959622;13674
959630;13617
959638;13785
959650;13783
959658;14030
959666;13943
959674;14091
959682;13924
959690;14121
959699;13964
959707;14059
959715;13957
959723;14059
959731;13858
959740;14058
959748;13555
959756;11432
959764;7979
959772;7228
959781;12372
959789;17245
959797;16498
959805;15628
959813;14771
959822;14543
959830;14232
959838;14028
959846;13846
959854;13838
959863;13697
959871;13655
959879;13541
959887;13520
959895;13350
959903;13221
959912;13135
959920;13002
959928;12796
959936;12574
959948;12333
959956;12253
959964;11898
959972;11815
959980;11770
959988;11964
959997;12093
960005;12407
960013;12566
960021;13070
960029;13441
960038;13802
960046;13980
960054;14231
960062;14328
960070;14449
960079;14462
960087;14483
960095;14499
960103;14482
960111;14452
960120;14398
960128;14276
960136;14117
960144;14081
960152;13986
960161;14022
960169;13899
960177;13886
960185;13752
960193;13738
960201;13549
960210;13552
960218;13410
960226;13453
960234;13309
960242;13463
960254;13665
960262;13806
960270;13948
960278;14084
960286;14083
960295;14070
960303;14074
960311;14133
960319;14029
960327;13959
960336;13802
960344;13969
960352;13441
960360;11430
960368;8029
960377;7142
960385;12373
960393;16763
960401;16024
960409;15064
960418;14290
960426;14198
960434;13809
960442;13744
960450;13538
960458;13629
960467;13482
960475;13564
960483;13327
960491;13377
960499;13172
