Tempo (ms);Valor
660360;14756
660368;14634
660376;14408
660385;14251
660393;14077
660401;14001
660409;13982
660417;13984
660425;13921
660434;13839
660442;13770
660450;13605
660458;13485
660466;13409
660475;13358
660483;13313
660491;13322
660499;13381
660507;13438
660516;13529
660524;13566
660532;13539
660540;13546
660548;13495
660557;13454
660565;13445
660573;13432
660581;13391
660589;13309
660598;13616
660606;13244
660614;10769
660622;7165
660630;5555
660638;11161
660647;16000
660658;15458
660666;14735
660674;14216
660682;13960
660691;13634
660699;13471
660707;13404
660715;13330
660723;13269
660732;13191
660740;13130
660748;13103
660756;13071
660764;12947
660773;12807
660781;12648
660789;12546
660797;12364
660805;12142
660814;11895
660822;11731
660830;11617
660838;11672
660846;11771
660855;11926
660863;12123
660871;12451
660879;12807
660887;13219
660895;13528
660904;13811
660912;14026
660920;14186
660928;14253
660936;14326
660945;14334
660953;14342
660963;14327
660971;14320
660979;14241
660988;14198
660996;14116
661004;14041
661012;13946
661020;13891
661029;13815
661037;13792
661045;13791
661053;13818
661061;13776
661070;13757
661078;13629
661086;13454
661094;13327
661102;13323
661111;13308
661119;13362
661127;13401
661135;13487
661143;13574
661151;13718
661160;13732
661168;13766
661176;13730
661184;13731
661192;13691
661201;13669
661209;13580
661217;13536
661225;13594
661233;13969
661242;12277
661250;8405
661261;5014
661269;10320
661277;15709
661286;15686
661294;14943
661302;14511
661310;14272
661318;14002
661327;13814
661335;13752
661343;13672
661351;13634
661359;13592
661368;13588
661376;13509
661384;13432
661392;13332
661400;13273
661409;13094
661417;12967
661425;12795
661433;12586
661441;12311
661449;12102
661458;11944
661466;11889
661474;11923
661482;12036
661490;12208
661499;12467
661507;12797
661515;13184
661523;13553
661531;13877
661540;14079
661548;14217
661556;14327
661567;14421
661575;14443
661584;14376
661592;14277
661600;14206
661608;14136
661616;14103
661625;14047
661633;14054
661641;14032
661649;14055
661657;14043
661666;14055
661674;14085
661682;14098
661690;14106
661698;14110
661706;14085
661715;14086
661723;14034
661731;13967
661739;13958
661747;13877
661756;13748
661764;13521
661772;13426
661780;13445
661788;13464
661797;13459
661805;13457
661813;13498
661821;13595
661829;13687
661838;13751
661846;13735
661854;13744
661865;13754
661873;13778
661882;13713
661890;13695
661898;13644
661906;14123
661914;12994
661923;9554
661931;5755
661939;6091
661947;13282
661955;15880
661964;15364
661972;14616
661980;14297
661988;14032
661996;13756
662004;13644
662013;13572
662021;13511
662029;13416
662037;13330
662045;13240
662054;13156
662062;13076
662070;12971
662078;12841
662086;12740
662095;12543
662103;12408
662111;12212
662119;12028
662127;11853
662136;11725
662144;11693
662152;11832
662160;11964
662171;12263
662180;12622
662188;13014
662196;13383
662204;13774
662212;13965
662221;14270
662229;14371
662237;14375
662245;14368
662253;14358
662262;14310
662270;14286
662278;14198
662286;14245
662294;14224
662302;14185
662311;14164
662319;14165
662327;14073
662335;14058
662343;14000
662352;14010
662360;14019
662368;13990
662376;13965
662384;13972
662393;13929
662401;13921
662409;13888
662417;13951
662425;13948
662434;13954
662442;13879
662450;13815
662458;13635
662466;13495
662478;13644
662486;13742
662494;13690
662502;13731
662510;13743
662519;13819
662527;13880
662535;13903
662543;13872
662551;13920
662559;13884
662568;13869
662576;13828
662584;13757
662592;13699
662600;13911
662609;13790
662617;11761
662625;7973
662633;5865
662641;9619
662650;15737
662658;15820
662666;15034
662674;14492
662682;14304
662691;14031
662699;13855
662707;13718
662715;13702
662723;13614
662732;13557
662740;13521
662748;13492
662756;13424
662764;13315
662772;13219
662784;13143
662792;13047
662800;12881
662808;12564
662817;12320
662825;12143
662833;12080
662841;11948
662849;12018
662857;12174
662866;12312
662874;12511
662882;12857
662890;13221
662898;13579
662907;13880
662915;14181
662923;14373
662931;14422
662939;14462
662948;14479
662956;14455
662964;14361
662972;14345
662980;14347
662989;14316
662997;14210
663005;14128
663013;14110
663021;14114
663030;14066
663038;14031
663046;13944
663054;13970
663062;13977
663070;13997
663081;14016
663089;14043
663097;13984
663105;14031
663113;14070
663122;13987
663130;13958
663138;14020
663146;14049
663154;14022
663163;13920
663171;13776
663179;13644
663187;13624
663195;13742
663204;13800
663212;13690
663221;13695
663229;13805
663237;13935
663246;13936
663254;13948
663262;13896
663270;13888
663278;13898
663287;13933
663295;13868
663303;13823
663311;13838
663319;14016
663327;12419
663336;9090
663344;7320
663352;10118
663360;16407
663368;16594
663377;15737
663387;14814
663395;14634
663403;14351
663411;14161
663420;14068
663428;13954
663436;13915
663444;13863
663452;13799
663461;13648
663469;13609
663477;13434
663485;13319
663493;13176
663502;13051
663510;12848
663518;12658
663526;12366
663534;12142
663543;11900
663551;11840
663559;11838
663567;12002
663575;12179
663583;12388
663592;12669
663600;13110
663608;13511
663616;13886
663624;14111
663633;14298
663641;14414
663649;14475
663657;14491
663665;14500
663674;14477
663685;14519
663693;14475
663701;14461
663709;14348
663718;14253
663726;14189
663734;14222
663742;14131
663750;14133
663759;14048
663767;14044
663775;13993
663783;13959
663791;13905
663800;13913
663808;13877
663816;13880
663824;13835
663832;13823
663841;13822
663849;13846
663857;13748
663865;13673
663873;13534
663881;13395
663890;13340
663898;13333
663906;13358
663914;13345
663922;13397
663931;13505
663939;13615
663947;13702
663955;13772
663963;13770
663972;13778
663980;13759
663991;13838
663999;13798
664007;13678
664016;13845
664024;13821
664032;11944
664040;8483
664048;6773
664057;10223
664065;16203
664073;16106
664081;15355
664089;14615
664098;14311
664106;13961
664114;13784
664122;13671
664130;13563
664138;13494
664147;13480
664155;13464
664163;13384
664171;13296
664179;13177
664188;13192
664196;13040
664204;12878
664212;12740
664220;12558
664229;12259
664237;11988
664245;11739
664253;11659
664261;11627
664270;11733
664278;11920
664286;12178
664297;12617
664305;13072
664314;13407
664322;13720
664330;13936
664338;14144
664346;14193
664355;14241
664363;14228
664371;14229
664379;14240
664387;14191
664396;14164
664404;14140
664412;14075
664420;14017
664428;13951
664436;13937
664445;13879
664453;13883
664461;13810
664469;13822
664477;13829
664486;13882
664494;13884
664502;13916
664510;13883
664518;13947
664527;13902
664535;13885
664543;13872
664551;13887
664559;13859
664568;13911
664576;13888
664584;13894
664595;13851
664603;13750
664612;13568
664620;13564
664628;13597
664636;13617
664644;13568
664653;13519
664661;13563
664669;13694
664677;13750
664685;13749
664694;13678
664702;13690
664710;13700
664718;13664
664726;13552
664734;13557
664743;13636
664751;13725
664759;12069
664767;8652
664775;6363
664784;8964
664792;15390
664800;15943
664808;15180
664816;14500
664825;14185
664833;13924
664841;13658
664849;13512
664857;13402
664866;13358
664874;13277
664882;13255
664890;13154
664901;13180
664910;13132
664918;13011
664926;12790
664934;12668
664942;12522
664951;12325
664959;12068
664967;11824
664975;11658
664983;11603
664991;11571
665000;11713
665008;11864
665016;12121
665024;12517
665032;12986
665041;13385
665049;13767
665057;14010
665065;14199
665073;14289
665082;14358
665090;14412
665098;14415
665106;14351
665114;14244
665123;14217
665131;14236
665139;14164
665147;14093
665155;14044
665164;14009
665172;14016
665180;13971
665188;13932
665196;13902
665207;13927
665215;13994
665223;13978
665231;13963
665239;13907
665247;13919
665256;13893
665264;13897
665272;13882
665280;13862
665288;13845
665297;13861
665305;13836
665313;13828
665321;13800
665329;13720
665338;13626
665346;13495
665354;13489
665362;13487
665370;13561
665379;13580
665387;13624
665395;13688
665403;13752
665411;13876
665421;13864
665429;13768
665437;13765
665445;13731
665453;13695
665462;13643
665470;13608
665478;13498
665486;13929
665494;12878
665505;8589
665513;6450
665521;9236
665529;15527
665537;15934
665545;15100
665554;14419
665562;14168
665570;13909
665578;13730
665586;13605
665595;13473
665603;13411
665611;13351
665619;13330
665627;13285
665636;13222
665644;13122
665652;13054
665660;12893
665668;12769
665677;12594
665685;12438
665693;12159
665701;11908
665709;11708
665718;11644
665726;11602
665734;11663
665742;11764
665750;11947
665758;12218
665767;12658
665775;13050
665783;13471
665791;13754
665799;14004
665811;14240
665819;14363
665827;14317
665835;14314
665843;14273
665852;14213
665860;14109
665868;14078
665876;14024
665884;13983
665893;13916
665901;13928
665909;13878
665917;13876
665925;13888
665934;13858
665942;13771
665950;13797
665958;13852
665966;13900
665975;13859
665983;13821
665991;13764
665999;13817
666007;13751
666015;13750
666024;13760
666032;13884
666040;13921
666048;14003
666056;13898
666065;13767
666073;13650
666081;13652
666089;13696
666097;13764
666106;13740
666117;13852
666125;13926
666133;13968
666141;13948
666150;13935
666158;13897
666166;13881
666174;13852
666182;13817
666191;13740
666199;13627
666207;13841
666215;13433
666223;11111
666232;7732
666240;6447
666248;11336
666256;15848
666264;15574
666273;14746
666281;14336
666289;14074
666297;13764
666305;13597
666313;13510
666322;13440
666330;13400
666338;13332
666346;13302
666354;13202
666363;13132
666371;13067
666379;12940
666387;12787
666395;12655
666404;12483
666415;12254
666423;12061
666431;11838
666439;11632
666448;11583
666456;11522
666464;11629
666472;11761
666480;12011
666489;12328
666497;12776
666505;13126
666513;13487
666521;13736
666530;13892
666538;13979
666546;14032
666554;14100
666562;14134
666570;14123
666579;14124
666587;14095
666595;14050
666603;13988
666611;13943
666620;13867
666628;13857
666636;13897
666644;13832
666652;13832
666661;13874
666669;13918
666677;13891
666685;13881
666693;13876
666702;13881
666710;13903
666721;13912
666729;13956
666737;13976
666746;13969
666754;13928
666762;13892
666770;13751
666778;13555
666787;13464
666795;13453
666803;13494
666811;13546
666819;13538
666828;13571
666836;13647
666844;13721
666852;13780
666860;13759
666868;13770
666877;13750
666885;13821
666893;13789
666901;13695
666909;13566
666918;14012
666926;13243
666934;10301
666942;6853
666950;6460
666959;13022
666967;16197
666975;15598
666983;14803
666991;14388
667000;14146
667008;13862
667016;13829
667027;13746
667035;13729
667044;13624
667052;13536
667060;13457
667068;13335
667076;13250
667085;13203
667093;13109
667101;13023
667109;12911
667117;12812
667126;12628
667134;12403
667142;12175
667150;12083
667158;12105
667166;12220
667175;12360
667183;12576
667191;12829
667199;13219
667207;13639
667216;14009
667224;14268
667232;14460
667240;14592
667248;14691
667257;14707
667265;14732
667273;14674
667281;14640
667289;14559
667298;14490
667306;14384
667314;14337
667324;14297
667332;14295
667341;14212
667349;14175
667357;14117
667365;14105
667373;14056
667382;14087
667390;14110
667398;14114
667406;14094
667414;14116
667422;14067
667431;14012
667439;13846
667447;13777
667455;13760
667463;13751
667472;13742
667480;13840
667488;13911
667496;14066
667504;14115
667513;14156
667522;14146
667530;14171
667538;14091
667546;14115
667555;14076
667563;14066
667571;14021
667579;14034
667587;14192
667596;12466
667603;9054
667612;7251
667620;10454
667630;17403
667639;16622
667647;15684
667655;14857
667663;14553
667671;14284
667679;14058
667688;13928
667696;13826
667704;13672
667712;13623
667720;13560
667729;13513
667737;13400
667745;13330
667753;13226
667761;13112
667770;12986
667778;12799
667786;12610
667794;12355
667802;12107
667811;11924
667819;11857
667827;11977
667835;12100
667843;12245
667852;12411
667860;12730
667868;13116
667876;13482
667884;13809
667892;14019
667901;14221
667909;14291
667917;14339
667928;14403
667937;14453
667945;14377
667953;14263
667961;14204
667969;14092
667977;14043
667986;13990
667994;13916
668002;13847
668010;13810
668018;13820
668027;13765
668035;13759
668043;13790
668051;13840
668059;13887
668068;13850
668076;13831
668084;13734
668092;13627
668100;13513
668109;13486
668117;13480
668125;13537
668133;13576
668141;13650
668150;13755
668158;13786
668166;13832
668174;13786
668182;13788
668190;13766
668199;13759
668207;13697
668215;13672
668223;13584
668234;13969
668243;12543
668251;9091
668259;6757
668267;8618
668275;15848
668284;16534
668292;15639
668300;14811
668308;14298
668316;14005
668325;13708
668333;13544
668341;13442
668349;13344
668357;13251
668366;13219
668374;13133
668382;13087
668390;12981
668398;12917
668407;12792
668415;12674
668423;12502
668431;12299
668439;12066
668447;11865
668456;11694
668464;11627
668472;11667
668480;11782
668488;11935
668497;12191
668505;12504
668513;12937
668521;13350
668529;13708
668541;14065
668549;14288
668557;14297
668565;14352
668573;14362
668582;14355
668590;14291
668598;14255
668606;14164
668614;14113
668623;14026
668631;13964
668639;13924
668647;13906
668655;13897
668664;13870
668672;13822
668680;13851
668688;13836
668696;13831
668705;13805
668713;13813
668721;13842
668729;13830
668737;13768
668745;13743
668754;13606
668762;13528
668770;13493
668778;13474
668786;13493
668795;13602
668803;13681
668811;13782
668819;13831
668827;13820
668839;13885
668847;13936
668855;13862
668863;13809
668871;13741
668880;13687
668888;13673
668896;14055
668904;12481
668912;8863
668921;5849
668929;7412
668937;14638
668945;15930
668953;15276
668962;14548
668970;14253
668978;14038
668986;13785
668994;13606
669002;13552
669011;13499
669019;13403
669027;13364
669035;13236
669043;13182
669052;13117
669060;12976
669068;12830
669076;12691
669084;12517
669093;12332
669101;12172
669109;11986
669117;11808
669125;11687
669134;11664
669145;11844
669153;11965
669161;12005
669169;12434
669178;12880
669186;13330
669194;13577
669202;13825
669210;14003
669219;14067
669227;14159
669235;14142
669243;14105
669251;14063
669260;14047
669268;14023
669276;13927
669284;13796
669292;13792
669300;13787
669309;13829
669317;13798
669325;13776
669333;13800
669341;13783
669350;13780
669358;13777
669366;13810
669374;13779
669382;13853
669391;13846
669399;13914
669407;13894
669415;13861
669423;13638
669432;13524
669440;13527
669451;13752
669459;13755
669467;13787
669476;13914
669484;13847
669492;13288
669500;13454
669508;12756
669517;13423
669525;14812
669533;14672
669541;14151
669549;13981
669558;13907
669566;14226
669574;12792
669582;9582
669590;6743
669598;8267
669607;15344
669615;16682
669623;15818
669631;15025
669639;14730
669648;14590
669656;14225
669664;14170
669672;13892
669680;13698
669689;13632
669697;13687
669705;13479
669713;13457
669721;13300
669730;13261
669738;13017
669749;12971
669757;12815
669765;12581
669774;12232
669782;12139
669790;11945
669798;11894
669806;11704
669815;11788
669823;11806
669831;12037
669839;12487
669847;12964
669855;13192
669864;13614
669872;13810
669880;13984
669888;14146
669896;14038
669905;14015
669913;14228
669921;14082
669929;14247
669937;14033
669946;14159
669954;14126
669962;13969
669970;13782
669978;13703
669987;13667
669995;13683
670003;13680
670011;13707
670019;13688
670028;13745
670036;13675
670044;13708
670054;13779
670062;13740
670071;13705
670079;13597
670087;13313
670095;13350
670104;13435
670113;13508
670121;13393
670129;13442
670137;13558
670145;13832
670153;13810
670162;13741
670170;13749
670178;13860
670186;13810
670194;13772
670203;13675
670211;13675
670219;13581
670227;13836
670235;12835
670244;10131
670252;7675
670260;8732
670268;15395
670276;16652
670285;15735
670293;14729
670301;14496
670309;14247
670317;13995
670326;13848
670334;13842
670342;13792
670350;13774
670360;13759
670369;13776
670377;13610
670385;13418
670393;13270
670401;13056
670409;13048
670418;12978
670426;12755
670434;12567
670442;12368
670450;12171
670459;12071
670467;12032
670475;12144
670483;12232
670491;12377
670500;12695
670508;13019
670516;13353
670524;13608
670532;14076
670541;14190
670549;14409
670557;14480
670565;14504
670573;14466
670582;14480
670590;14406
670598;14386
670606;14314
670614;14366
670622;14344
670631;14325
670639;14181
670647;14270
670658;14277
670666;14308
670675;14254
670683;14190
670691;14096
670699;13973
670707;13682
670716;13738
670724;13700
670732;13619
670740;13621
670748;13649
670757;13651
670765;13862
670773;13862
670781;13971
670789;13997
670798;13992
670806;13886
670814;13893
670822;13870
670830;13805
670839;13751
670847;13810
670855;13750
670863;13631
670871;11953
670879;8994
670888;7606
670896;10475
670904;16550
670912;16630
670920;15692
670929;14835
670937;14383
670945;14168
670953;13831
670964;13680
670973;13679
670981;13690
670989;13511
670997;13475
671005;13397
671014;13268
671022;13125
671030;13046
671038;12889
671046;12692
671055;12433
671063;12260
671071;12061
671079;11920
671087;11733
671096;11689
671104;11697
671112;11917
671120;12040
671128;12361
671137;12687
671145;13203
671153;13618
671161;13889
671169;14059
671177;14271
671186;14395
671194;14417
671202;14357
671210;14346
671218;14271
671227;14245
671235;14145
671243;14243
671251;14118
671259;14043
671271;14002
671279;13969
671287;13902
671295;13879
671303;13840
671312;13858
671320;13827
671328;13905
671336;13917
671344;13909
671353;13911
671361;13973
671369;13878
671377;13722
671385;13427
671394;13399
671402;13430
671410;13561
671418;13563
671426;13527
671434;13615
671443;13863
671451;13845
671459;13808
671467;13846
671475;13864
671484;13823
671492;13702
671500;13809
671508;13780
671516;13668
671525;13822
671533;12745
671541;9858
671549;7565
671557;8522
671569;16403
671577;16358
671585;15407
671593;14560
671601;14236
671610;14007
671618;13776
671626;13692
671634;13622
671642;13683
671651;13513
671659;13427
671667;13387
671675;13244
671683;13026
671692;12942
671700;12936
671708;12754
671716;12513
671724;12310
671732;12148
671741;11898
671749;11740
671757;11684
671765;11741
671773;11760
671782;11925
671790;12135
671798;12454
671806;12821
671814;13214
671823;13531
671831;13799
671839;13926
671847;14119
671855;14247
671864;14231
671875;14334
671883;14416
671891;14302
671899;14307
671908;14231
671916;14110
671924;14066
671932;13979
671940;13876
671949;13960
671957;13940
671965;13935
671973;13886
671981;13873
671990;13820
671998;13909
672006;13808
672014;13940
672022;13941
672030;13905
672039;13877
672047;13815
672055;13751
672063;13589
672071;13473
672080;13571
672088;13560
672096;13587
672104;13632
672112;13665
672121;13659
672129;13821
672137;13882
672145;13849
672153;13771
672162;13751
672170;13701
672181;13714
672189;13705
672197;13652
672206;13749
672214;12651
672222;9754
672230;7122
672238;7990
672247;14476
672255;16324
672263;15657
672271;14785
672279;14496
672287;14202
672296;13997
672304;13851
672312;13761
672320;13731
672328;13718
672337;13577
672345;13590
672353;13556
672361;13498
672369;13388
672378;13322
672386;13178
672394;13047
672402;12842
672410;12550
672419;12285
672427;12174
672435;12065
672443;12095
672451;12069
672460;12151
672468;12332
672478;12740
672486;13074
672494;13439
672503;13826
672511;14077
672519;14118
672527;14227
672535;14269
672543;14240
672552;14127
672560;14231
672568;14163
672576;14136
672584;14086
672593;14054
672601;13971
672609;13951
672617;13901
672625;13912
672634;13814
672642;13889
672650;13942
672658;13896
672666;13859
672675;13872
672683;13830
672691;13797
672699;13762
672707;13757
672716;13647
672724;13656
672732;13814
672740;13779
672748;13748
672756;13696
672765;13654
672773;13458
672784;13462
672792;13540
672801;13470
672809;13465
672817;13477
672825;13485
672833;13516
672841;13627
672850;13644
672858;13659
672866;13591
672874;13563
672882;13557
672891;13580
672899;13546
672907;13492
672915;13619
672923;12248
672932;9037
672940;6607
672948;8208
672956;14600
672964;15769
672973;14980
672981;14315
672989;14041
672997;13753
673005;13534
673014;13433
673022;13325
673030;13268
673038;13195
673046;13179
673054;13124
673063;13128
673071;13064
673079;13045
673090;12956
673098;12942
673107;12745
673115;12585
673123;12380
673131;12196
673139;12024
673148;11942
673156;11958
673164;12041
673172;12130
673180;12386
673189;12813
673197;13294
673205;13682
673213;14053
673221;14312
673230;14508
673238;14610
673246;14704
673254;14663
673262;14716
673271;14623
673279;14605
673287;14474
673295;14441
673303;14438
673311;14440
673320;14281
673328;14195
673336;14107
673344;14088
673352;13971
673361;13999
673369;13951
673377;13975
673388;13976
673396;14006
673405;13949
673413;13948
673421;13845
673429;13872
673437;13835
673446;13885
673454;13832
673462;13867
673470;13724
673478;13633
673487;13470
673495;13506
673503;13427
673511;13543
673519;13498
673528;13584
673536;13593
673544;13783
673552;13791
673560;13839
673569;13780
673577;13809
673585;13739
673593;13763
673601;13677
673609;13646
673618;13581
673626;13965
673634;12492
673642;8964
673650;5841
673659;7245
673667;14308
673675;15811
673683;15168
673694;14534
673703;14292
673711;14048
673719;13858
673727;13798
673735;13669
673744;13660
673752;13574
673760;13545
673768;13436
673776;13393
673785;13272
673793;13204
673801;13088
673809;12960
673817;12785
673826;12605
673834;12365
673842;12140
673850;11948
673858;11846
673866;11871
673875;11969
673883;12097
673891;12329
673899;12601
673907;12989
673916;13348
673924;13690
673932;13954
673940;14123
673948;14261
673957;14272
673965;14288
673973;14269
673981;14269
673989;14167
674001;14147
674009;14143
674017;14058
674025;14027
674033;13962
674042;13917
674050;13894
674058;13851
674066;13824
674074;13848
674083;13842
674091;13889
674099;13950
674107;13960
674115;13944
674124;13895
674132;13913
674140;13961
674148;13917
674156;13849
674164;13829
674173;13828
674181;13801
674189;13645
674197;13483
674205;13451
674214;13501
674222;13521
674230;13542
674238;13560
674246;13645
674255;13693
674263;13772
674271;13778
674279;13776
674287;13692
674299;13713
674307;13706
674315;13577
674323;13543
674331;13801
674340;13567
674348;11178
674356;7377
674364;5661
674372;10723
674381;15891
674389;15606
674397;14712
674405;14152
674413;13987
674422;13672
674430;13492
674438;13378
674446;13319
674454;13236
674462;13182
674471;13111
674479;13048
674487;12959
674495;12893
674503;12769
674512;12708
674520;12544
674528;12394
674536;12210
674544;12027
674553;11801
674561;11685
674569;11610
674577;11720
674585;11785
674594;12007
674605;12409
674613;12833
674621;13251
674629;13662
674638;13950
674646;14208
674654;14340
674662;14549
674670;14586
674679;14585
674687;14583
674695;14619
674703;14522
674711;14482
674719;14455
674728;14392
674736;14281
674744;14256
674752;14152
674760;14120
674769;14087
674777;14195
674785;14081
674793;14084
674801;14075
674810;14092
674818;14021
674826;14035
674834;13994
674842;13957
674851;13936
674859;13973
674867;13928
674875;13904
674883;13745
674892;13597
674903;13440
674911;13471
674919;13475
674927;13451
674936;13455
674944;13514
674952;13598
674960;13762
674968;13745
674977;13710
674985;13722
674993;13715
675001;13636
675009;13576
675017;13517
675026;13545
675034;13921
675042;12682
675050;9362
675058;6869
675067;8103
675075;15424
675083;16490
675091;15627
675099;14829
675108;14417
675116;14215
675124;13973
675132;13857
675140;13815
675149;13737
675157;13711
675165;13647
675173;13585
675181;13487
675190;13387
675198;13290
675208;13190
675216;13129
675224;12993
675233;12762
675241;12565
675249;12328
675257;12186
675265;12083
675273;12126
675282;12211
675290;12391
675298;12560
675306;12849
675314;13182
675323;13589
675331;13969
675339;14264
675347;14467
675355;14635
675364;14760
675372;14852
675380;14883
675388;14851
675396;14785
675405;14694
675413;14625
675421;14509
675429;14438
675438;14325
675447;14268
675455;14220
675463;14200
675471;14171
675479;14192
675487;14173
675496;14206
675504;14170
675514;14218
675522;14152
675530;14019
675539;13936
675547;13870
675555;13863
675563;13903
675571;13913
675580;13983
675588;14073
675596;14113
675604;14066
675612;14072
675621;14042
675629;13968
675637;13962
675645;13974
675653;13947
675662;13881
675670;13977
675678;13775
675686;11587
675694;8235
675703;6765
675711;11645
675719;16973
675727;16465
675735;15543
675743;14769
675752;14425
675760;14195
675768;13920
675776;13822
675784;13724
675793;13630
675801;13537
675809;13484
675820;13432
675828;13372
675837;13207
675845;13133
675853;12978
675861;12774
675869;12508
675878;12317
675886;12105
675894;11893
675902;11784
675910;11840
675919;11860
675927;11987
675935;12137
675943;12427
675951;12779
675960;13197
675968;13536
675976;13855
675984;14017
675992;14167
676001;14224
676009;14323
676017;14356
676025;14368
676033;14276
676041;14228
676050;14123
676058;14083
676066;13969
676074;13916
676082;13850
676091;13833
676099;13759
676107;13745
676118;13767
676126;13844
676135;13862
676143;13855
676151;13785
676159;13642
676167;13512
676176;13418
676184;13352
676192;13360
676200;13417
676208;13480
676217;13576
676225;13745
676233;13773
676241;13799
676249;13755
676258;13752
676266;13690
676274;13686
676282;13607
676290;13533
676298;13449
676307;13682
676315;13441
676323;11228
676331;7556
676339;5681
676348;10598
676356;15988
676364;15730
676372;14910
676380;14299
676389;14010
676397;13656
676405;13449
676413;13335
676424;13284
676433;13215
676441;13185
676449;13137
676457;13091
676465;12991
676474;12938
676482;12805
676490;12708
676498;12507
676506;12282
676515;12039
676523;11797
676531;11675
676539;11580
676547;11546
676556;11623
676564;11747
676572;11945
676580;12231
676588;12624
676596;13043
676605;13423
676613;13771
676621;13976
676629;14159
676637;14200
676646;14176
676654;14180
676662;14271
676670;14177
676678;14107
676687;14049
676695;14033
676703;13963
676711;13939
676722;13961
676731;14023
676739;13984
676747;13971
676755;13943
676763;13949
676772;14008
676780;14007
676788;13923
676796;13849
676804;13662
676813;13504
676821;13473
676829;13495
676837;13480
676845;13529
676854;13567
676862;13668
676870;13792
676878;13868
676886;13863
676894;13854
676903;13843
676911;13856
676919;13830
676927;13785
676935;13704
676944;13770
676952;14096
676960;12528
676968;8797
676976;5700
676985;7846
676993;15170
677001;16070
677009;15351
677017;14698
677029;14490
677037;14202
677045;14066
677053;13950
677061;13882
677070;13799
677078;13783
677086;13695
677094;13607
677102;13462
677111;13364
677119;13241
677127;13143
677135;12972
677143;12814
677151;12550
677160;12327
677168;12078
677176;11970
677184;11881
677192;11939
677201;12021
677209;12212
677217;12429
677225;12785
677233;13140
677242;13478
677250;13744
677258;13957
677266;14070
677274;14175
677283;14190
677291;14179
677299;14121
677307;14096
677315;14030
677324;14005
677334;13969
677342;14005
677350;13979
677358;13913
677367;13870
677375;13899
677383;13909
677391;13891
677399;13856
677407;13896
677416;13875
677424;13888
677432;13840
677440;13833
677448;13685
677457;13600
677465;13454
677473;13469
677482;13504
677490;13589
677499;13579
677507;13653
677515;13738
677523;13777
677531;13772
677540;13778
677548;13771
677556;13743
677564;13720
677572;13712
677581;13670
677589;13610
677597;14039
677605;13373
677613;10525
677622;6759
677632;7290
677640;14838
677648;16148
677656;15428
677665;14688
677673;14490
677681;14165
677689;13982
677697;13887
677705;13845
677714;13717
677722;13645
677730;13670
677738;13612
677746;13506
677755;13409
677763;13318
677771;13189
677779;13053
677787;12861
677796;12655
677804;12465
677812;12237
677820;12028
677828;12000
677837;12015
677845;12074
677853;12161
677861;12373
677869;12680
677878;13052
677886;13445
677894;13861
677902;14123
677910;14353
677918;14439
677927;14502
677938;14545
677946;14561
677954;14491
677962;14389
677971;14374
677979;14344
677987;14271
677995;14251
678003;14191
678012;14130
678020;14112
678028;14100
678036;14008
678044;13959
678053;13921
678061;13874
678069;13834
678077;13887
678085;13901
678094;13918
678102;13884
678110;13845
678118;13609
678126;13476
678135;13512
678143;13557
678151;13546
678159;13629
678167;13658
678175;13730
678184;13863
678192;13918
678200;13860
678208;13882
678216;13881
678225;13912
678233;13859
678244;13933
678252;13915
678260;14140
678269;13989
678277;11828
678285;8060
678293;6026
678301;10377
678310;16152
678318;16060
678326;15224
678334;14682
678342;14508
678351;14204
678359;14063
678367;13967
678375;13926
678383;13813
678392;13738
678400;13594
678408;13514
678416;13389
678424;13307
678433;13184
678441;13041
678449;12836
678457;12636
678465;12397
678473;12214
678482;11985
678490;11888
678498;11795
678506;11816
678514;11830
678523;11971
678531;12194
678542;12697
678550;13052
678558;13453
678567;13723
678575;13922
678583;14030
678591;14095
678599;14101
678608;14105
678616;14036
678624;14029
678632;13948
678640;13930
678649;13881
678657;13847
678665;13819
678673;13814
678681;13825
678690;13865
678698;13851
678706;13857
678714;13843
678722;13906
678730;13849
678739;13880
678747;13877
678755;13900
678763;13855
678771;13884
678780;13840
678788;13699
678796;13533
678804;13461
678812;13517
678821;13541
678829;13561
678837;13624
678848;13757
678856;13958
678865;13947
678873;13960
678881;13919
678889;13907
678897;13837
678906;13863
678914;13839
678922;13774
678930;13898
678938;13866
678947;11860
678955;8281
678963;6115
678971;10171
678979;16190
678988;16157
678996;15270
679004;14679
679012;14479
679020;14236
679028;14083
679037;13961
679045;13860
679053;13796
679061;13765
679069;13625
679078;13544
679086;13450
679094;13361
679102;13220
679110;13099
679119;12939
679127;12807
679135;12558
679143;12389
679154;12208
679163;12148
679171;12108
679179;12147
679187;12239
679195;12354
679204;12600
679212;12959
679220;13339
679228;13779
679236;14129
679245;14388
679253;14540
679261;14606
679269;14627
679277;14730
679286;14766
679294;14716
679302;14660
679310;14609
679318;14546
679326;14489
679335;14422
679343;14404
679351;14317
679359;14277
679367;14217
679376;14236
679384;14230
679392;14256
679400;14268
679408;14258
679417;14199
679425;14095
679433;13874
679441;13789
679452;13862
679461;13867
679469;13865
679477;13903
679485;13961
679493;14105
679502;14126
679510;14156
679518;14116
679526;14090
679534;14078
679543;14050
679551;13983
679559;13926
679567;13868
679575;13813
679583;14155
679592;12842
679600;9512
679608;7014
679616;8316
679624;15772
679633;16784
679641;15859
679649;14958
679657;14490
679665;14225
679674;13944
679682;13743
679690;13679
679698;13635
679706;13596
679715;13486
679723;13421
679731;13254
679739;13196
679747;13124
679767;13091
679775;12940
679783;12612
679791;12376
679800;12023
679808;11818
679816;11706
679824;11722
679832;11768
679841;11896
679849;12172
679857;12519
679865;12890
679873;13310
679881;13592
679890;13797
679898;13886
679906;13980
679914;13929
679922;13902
679931;13814
679939;13784
679947;13652
679955;13608
679963;13502
679972;13418
679980;13316
679988;13244
679996;13203
680004;13173
680013;13150
680021;13185
680029;13212
680037;13217
680045;13278
680054;13306
680062;13395
680073;13588
680081;13658
680089;13708
680098;13693
680106;13659
680114;13452
680122;13334
680130;13329
680138;13373
680147;13368
680155;13429
680163;13466
680171;13558
680179;13695
680188;13729
680196;13709
680204;13677
680212;13674
680220;13667
680229;13678
680237;13656
680245;13608
680253;14055
680261;13573
680270;10801
680278;6774
680286;5466
680294;11581
680302;15786
680311;15473
680319;14726
680327;14477
680335;14227
680343;13956
680351;13817
680360;13719
680370;13725
680378;13736
680386;13619
680394;13503
680403;13426
680411;13315
680419;13187
680427;13064
680435;12892
680444;12695
680452;12466
680460;12242
680468;12058
680476;11919
680485;11820
680493;11898
680501;11968
680509;12141
680518;12293
680527;12523
680535;12827
680543;13278
680551;13597
680559;13901
680568;14105
680576;14233
680584;14279
680592;14350
680600;14317
680609;14286
680617;14258
680625;14265
680633;14200
680641;14160
680649;14079
680658;14040
680666;14000
680676;13989
680684;13967
680692;13955
680701;13940
680709;13952
680717;13927
680725;13909
680733;13831
680742;13721
680750;13546
680758;13469
680766;13467
680774;13472
680783;13476
680791;13594
680799;13680
680807;13830
680815;13881
680824;13925
680832;13911
680840;13994
680848;14018
680856;14039
680865;14045
680873;14012
680881;13900
680889;13934
680897;14408
680905;12812
680914;8879
680922;5534
680930;7755
680938;15439
680946;16246
680955;15503
680963;14880
680971;14723
680982;14408
680990;14341
680999;14186
681007;14088
681015;13935
681023;13911
681031;13810
681040;13795
681048;13646
681056;13526
681064;13352
681072;13237
681081;13049
681089;12836
681097;12621
681105;12420
681113;12077
681122;11801
681130;11676
681138;11787
681146;11884
681154;12091
681162;12279
681171;12702
681179;13154
681187;13552
681195;13832
681203;14041
681212;14264
681220;14341
681228;14450
681236;14544
681244;14626
681253;14589
681261;14593
681269;14488
681280;14434
681288;14488
681297;14358
681305;14312
681313;14144
681321;14083
681329;13934
681338;13882
681346;13840
681354;13936
681362;14142
681370;14242
681379;14240
681387;14166
681395;14098
681403;13959
681411;13910
681420;13857
681428;13958
681436;13910
681444;14066
681452;14040
681460;14254
681469;14227
681477;14292
681485;14140
681493;14218
681501;14136
681510;14242
681518;14097
681526;14188
681534;14007
681542;14536
681551;13730
681559;10873
681567;7587
681575;7673
681586;16446
681595;17075
681603;16255
681611;15446
681619;14861
681627;14605
681636;14396
681644;14298
681652;13962
681660;13800
681668;13872
681677;14154
681685;14081
681693;14106
681701;13994
681709;14080
681718;13956
681726;13875
681734;13608
681742;13507
681750;13212
681758;13046
681767;12734
681775;12583
681783;12563
681791;12718
681799;12835
681808;13051
681816;13397
681824;13900
681832;14298
681840;14713
681849;15010
681857;15273
681865;15361
681873;15455
681884;15584
681893;15671
681901;15559
681909;15513
681917;15415
681925;15373
681934;15202
681942;15200
681950;15148
681958;15264
681966;15125
681975;15112
681983;15031
681991;15018
681999;15055
682007;15090
682015;15105
682024;15213
682032;15237
682040;15301
682048;15269
682056;15232
682065;15274
682073;15348
682081;15357
682089;15500
682097;15557
682106;15694
682114;15769
682122;15785
682130;15693
682138;15660
682147;15550
682155;15431
682163;15275
682171;15113
682179;14891
682191;15239
682199;13275
682207;9102
682215;6265
682223;8841
682232;15542
682240;16542
682248;15714
682256;15083
682264;14552
682273;14175
682281;13699
682289;13583
682297;13352
682305;13342
682313;13151
682322;13067
682330;12893
682338;12803
682346;12631
682354;12454
682363;12267
682371;12071
682379;11871
682387;11563
682395;11271
682404;11028
682412;10838
682420;10733
682428;10717
682436;10754
682445;10905
682453;11084
682461;11449
682469;11776
682477;12205
682486;12456
682496;12835
682504;13031
682512;12926
682520;12907
682529;12758
682537;12683
682545;12550
682553;12463
682561;12415
682569;12353
682578;12248
682586;12168
682594;12158
682602;12093
682610;12155
682619;12166
682627;12219
682635;12253
682643;12306
682652;12309
682661;12373
682669;12323
682677;12381
682685;12373
682693;12454
682702;12424
682710;12442
682718;12344
682726;12239
682734;12060
682743;12150
682751;12136
682759;12278
682767;12305
682775;12466
682783;12492
682794;12802
682802;12900
682810;12897
682818;12876
682826;12884
682835;12871
682843;12924
682851;12875
682859;12823
682867;13256
682876;12703
682884;10003
682892;6597
682900;5816
682908;11953
682917;15661
682925;15315
682933;14456
682941;13929
682949;13637
682958;13386
682966;13208
682974;13203
682982;13102
682990;13044
682999;12943
683007;12938
683015;12849
683023;12875
683031;12751
683039;12700
683048;12571
683056;12494
683064;12302
683072;12138
683080;11962
683089;11829
683100;11783
683108;11845
683116;11928
683124;12155
683133;12343
683141;12676
683149;13043
683157;13546
683165;13950
683174;14336
683182;14601
683190;14826
683198;14933
683206;15126
683215;15112
683223;15075
683231;14985
683239;14922
683247;14814
683256;14769
683264;14713
683272;14727
683280;14639
683288;14524
683297;14481
683305;14498
683313;14472
683321;14460
683329;14441
683337;14522
683346;14430
683354;14392
683362;14269
683370;14157
683378;14014
683387;13988
683395;13927
683406;13989
683414;14001
683422;14114
683431;14181
683439;14208
683447;14123
683455;14165
683463;14132
683472;14083
683480;14011
683488;13985
683496;13908
683504;13802
683513;14100
683521;12916
683529;9619
683537;7265
683545;7931
683554;14853
683562;16411
683570;15555
683578;14788
683586;14155
683594;13882
683603;13585
683611;13452
683619;13448
683627;13438
683635;13393
683644;13334
683652;13143
683660;13061
683668;12968
683676;12882
683685;12769
683693;12662
683704;12463
683712;12295
683720;12086
683729;11822
683737;11623
683745;11582
683753;11675
683761;11805
683770;11976
683778;12313
683786;12708
683794;13091
683802;13477
683811;13825
683819;14146
683827;14347
683835;14473
683843;14519
683852;14617
683860;14602
683868;14512
683876;14519
683884;14473
683892;14408
683901;14311
683909;14224
683917;14098
683925;14048
683933;13994
683942;13999
683950;13948
683958;13996
683966;14071
683974;14054
683983;13927
683991;13908
683999;13817
684010;13686
684018;13700
684027;13680
684035;13623
684043;13615
684051;13645
684059;13706
684068;13771
684076;13795
684084;13746
684092;13803
684100;13732
684109;13736
684117;13694
684125;13690
684133;13662
684141;13606
684150;14024
684158;12911
684166;9776
684174;7226
684182;7473
684190;14322
684199;16133
684207;15440
684215;14763
684223;14265
684231;14026
684240;13761
684248;13597
684256;13514
684264;13374
684272;13276
684281;13145
684289;13101
684297;13018
684305;12922
684316;12841
684325;12804
684333;12621
684341;12463
684349;12214
684357;12013
684366;11767
684374;11609
684382;11543
684390;11543
684398;11648
684407;11855
684415;12119
684423;12409
684431;12774
684439;13206
684447;13533
684456;13780
684464;13952
684472;14104
684480;14158
684488;14196
684497;14234
684505;14259
684513;14221
684521;14146
684529;14079
684538;14040
684546;14004
684554;13954
684562;13929
684570;13954
684579;13985
684587;13982
684595;14008
684603;14014
684614;14080
684623;14156
684631;14156
684639;14181
684647;14071
684655;13891
684664;13829
684672;13768
684680;13680
684688;13679
684696;13640
684705;13677
684713;13720
684721;13761
684729;13770
684737;13787
684745;13755
684754;13750
684762;13718
684770;13749
684778;13706
684786;13650
684795;14151
684803;13513
684811;10436
684819;6737
684827;6160
684836;11739
684844;15502
684852;15502
684860;15040
684868;14551
684877;14294
684885;14119
684893;13932
684901;13856
684909;13855
684921;13726
684929;13699
684937;13692
684945;13657
684953;13672
684962;13675
684970;13733
684978;13630
684986;13518
684994;13233
685002;13094
685011;12629
685019;12111
685027;11842
685035;12384
685043;12978
685052;13153
685060;13138
685068;13276
685076;13540
685084;13832
685093;14060
685101;14157
685109;14093
685117;14011
685125;13973
685134;13844
685142;13726
685150;13595
685158;13500
685166;13343
685175;13269
685183;13228
685191;13192
685199;13289
685207;13310
685215;13129
685226;13210
685234;13242
685242;13226
685250;13277
685258;13226
685267;13255
685275;13370
685283;13363
685291;13527
685299;13650
685308;13787
685316;13662
685324;13601
685332;13649
685340;13727
685349;13735
685357;13824
685365;13852
685373;13913
685381;13935
685391;13974
685399;13858
685407;13752
685415;13657
685423;13520
685432;13404
685440;13393
685448;13468
685456;13959
685464;12258
685473;8403
685481;4762
685489;6210
685497;13480
685505;14690
685513;14240
685524;13845
685532;13621
685540;13427
685548;13265
685556;13189
685565;13034
685573;12921
685581;12820
685589;12844
685597;12676
685606;12717
685614;12685
685622;12758
685630;12679
685638;12681
685647;12441
685655;12286
685663;11975
685671;11753
685679;11612
685688;11589
685696;11525
685704;11844
685712;12076
685720;12411
685729;12708
685737;13266
685745;13620
685753;13964
685761;14086
685769;14380
685778;14426
685786;14476
685794;14484
685802;14633
685810;14613
685819;14551
685830;14481
685838;14564
685846;14500
685854;14423
685863;14336
685871;14289
685879;14234
685887;14291
685895;14119
685904;14118
685912;14050
685920;14075
685928;13975
685936;13909
685945;13847
685953;13827
685961;13781
685969;13828
685977;13846
685986;14025
685994;14117
686002;14184
686010;14272
686018;14303
686026;14247
686035;14095
686043;14032
686051;13956
686059;13984
686067;14076
686076;14189
686084;14298
686092;14641
686100;13095
686108;9781
686117;7509
686125;9849
686136;17034
686144;16374
686152;15614
686161;15018
686169;14771
686177;14488
686185;14238
686193;14062
686202;14023
686210;13936
686218;13883
686226;13806
686234;13759
686243;13673
686251;13542
686259;13382
686267;13214
686275;13018
686284;12811
686292;12519
686300;12212
686308;11911
686316;11775
686324;11862
686333;11926
686341;12031
686349;12155
686357;12424
686365;12764
686374;13120
686382;13512
686390;13893
686398;14100
686406;14204
686415;14331
686423;14397
686434;14435
686442;14444
686450;14376
686459;14227
686467;14166
686475;14112
686483;14032
686491;14002
686500;13939
686508;13930
686516;13929
686524;13890
686532;13846
686541;13766
686549;13650
686557;13582
686565;13589
686573;13630
686582;13635
686590;13695
686598;13713
686606;13881
686614;13902
686622;13936
686631;13911
686639;13924
686647;13822
686655;13814
686663;13766
686672;13759
686680;13630
686688;13759
686696;13672
686704;11675
686713;8245
686721;6293
686729;9727
686740;16059
686748;15665
686757;14961
686765;14441
686773;14229
686781;13883
686789;13771
686798;13654
686806;13626
686814;13505
686822;13498
686830;13447
686839;13462
686847;13333
686855;13245
686863;13141
686871;13044
686879;12830
686888;12733
686896;12515
686904;12362
686912;12133
686920;12103
686929;12106
686937;12230
686945;12329
686953;12572
686961;12869
686970;13231
686978;13555
686986;13921
686994;14064
687002;14305
687011;14412
687019;14510
687027;14510
687035;14560
687046;14567
687055;14630
687063;14513
687071;14477
687079;14358
687087;14392
687096;14322
687104;14317
687112;14252
687120;14196
687128;14155
687137;14175
687145;14073
687153;13965
687161;13848
687169;13851
687177;13814
687186;13843
687194;13873
687202;13930
687210;14001
687218;14123
687227;14199
687235;14215
687243;14224
687251;14239
687259;14209
687268;14236
687276;14164
687284;14015
687292;14016
687300;14153
687309;12278
687317;8677
687325;6319
687333;8984
687341;15396
687353;15633
687361;15065
687369;14590
687377;14302
687385;13991
687394;13798
687402;13688
687410;13613
687418;13533
687426;13457
687434;13401
687443;13285
687451;13230
687459;13172
687467;13052
687475;12954
687484;12783
687492;12636
687500;12401
687508;12182
687516;11950
687525;11816
687533;11823
687541;11919
687549;12030
687557;12209
687566;12451
687574;12827
687582;13141
687590;13539
687598;13857
687607;14158
687615;14224
687623;14334
687631;14293
687639;14287
687651;14269
687659;14238
687667;14091
687675;14035
687683;13918
687692;13895
687700;13809
687708;13779
687716;13659
687724;13747
687732;13754
687741;13766
687749;13745
687757;13804
687765;13730
687773;13625
687782;13484
687790;13590
687798;13586
687806;13593
687814;13619
687823;13755
687831;13890
687839;14068
687847;14107
687855;14192
687864;14190
687872;14234
687880;14192
687888;14150
687896;14080
687905;13973
687913;14268
687921;14042
687929;11541
687937;7885
687945;6099
687956;13708
687964;16074
687972;15622
687980;14940
687988;14596
687997;14297
688005;14039
688013;13834
688021;13736
688029;13644
688038;13580
688046;13514
688054;13424
688062;13340
688070;13277
688079;13190
688087;13091
688095;12978
688103;12858
688112;12682
688121;12503
688129;12301
688137;12137
688145;12110
688153;12149
688162;12203
688170;12383
688178;12569
688186;12876
688194;13247
688202;13672
688211;13975
688219;14204
688227;14386
688235;14479
688243;14550
688254;14647
688262;14650
688270;14593
688278;14496
688286;14460
688295;14364
688303;14401
688311;14296
688319;14193
688327;14112
688336;14066
688344;14000
688352;13992
688360;13981
688368;13938
688377;13856
688385;13850
688393;13705
688401;13546
688409;13484
688418;13550
688426;13591
688434;13592
688442;13665
688450;13662
688458;13751
688467;13760
688475;13749
688483;13729
688491;13695
688499;13623
688508;13577
688516;13574
688524;13522
688532;13484
688540;14054
688549;12872
688560;8252
688568;5695
688576;8570
688584;15019
688593;15495
688601;14940
688609;14508
688617;14281
688625;14034
688634;13881
688642;13724
688650;13681
688658;13613
688666;13536
688675;13467
688683;13423
688691;13391
688699;13181
688707;13123
688716;13047
688724;12933
688732;12795
688740;12695
688748;12446
688756;12317
688765;12152
688773;12129
688781;12074
688789;12214
688797;12383
688806;12669
688814;13004
688822;13391
688830;13659
688838;14011
688847;14227
688855;14387
688866;14560
688874;14621
688882;14605
688891;14526
688899;14498
688907;14379
688915;14321
688923;14305
688932;14203
688940;14186
688948;14061
688956;13999
688964;13995
688973;14005
688981;13922
688989;13968
688997;13993
689005;14027
689014;13991
689022;13929
689030;13730
689038;13688
689046;13621
689054;13615
689063;13561
689071;13642
689079;13681
689087;13756
689095;13841
689104;13895
689112;13892
689120;13956
689128;13935
689136;13950
689145;13863
689153;13796
689164;13733
689172;14270
689180;13652
689189;10699
689197;6849
689205;5787
689213;11641
689221;15612
689230;15355
689238;14747
689246;14358
689254;14161
689262;13899
689271;13826
689279;13727
689287;13662
689295;13606
689303;13506
689311;13431
689320;13379
689328;13274
689336;13255
689344;13127
689352;13064
689361;12880
689369;12745
689377;12507
689385;12347
689393;12162
689402;12059
689410;12066
689418;12143
689426;12153
689434;12390
689443;12594
689451;12988
689459;13384
689470;13938
689478;14302
689487;14476
689495;14489
689503;14566
689511;14542
689519;14539
689528;14524
689536;14447
689544;14353
689552;14293
689560;14228
689569;14194
689577;14112
689585;14116
689593;13930
689601;13935
689609;13885
689618;13857
689626;13775
689634;13798
689642;13770
689650;13807
689659;13832
689667;13948
689675;13905
689683;13859
689691;13762
689700;13569
689708;13506
689716;13521
689724;13553
689732;13454
689741;13533
689749;13515
689757;13718
689765;13755
689776;13786
689785;13866
689793;13779
689801;13810
689809;13705
689817;13661
689826;13470
689834;13915
689842;13402
689850;10449
689858;6693
689866;5637
689875;11574
689883;15629
689891;15453
689899;14766
689907;14389
689916;14177
689924;14043
689932;13910
689940;13920
689948;13783
689957;13743
689965;13574
689973;13673
689981;13616
689989;13534
689998;13380
690006;13440
690014;13235
690022;13167
690030;12883
690039;12817
690047;12457
690055;12410
690063;12137
690074;12296
690083;12440
690091;12548
690099;12712
690107;13003
690115;13217
690124;13617
690132;13941
690140;14238
690148;14283
690156;14461
690164;14412
690173;14541
690181;14419
690189;14458
690197;14320
690205;14344
690214;14197
690222;14218
690230;14035
690238;14150
690246;13971
690255;14000
690263;13899
690271;13999
690279;13855
690287;14029
690296;13896
690304;13961
690312;13817
690320;13888
690328;13703
690337;13736
690345;13430
690353;13456
690361;13226
690369;13293
690381;13313
690389;13481
690397;13443
690405;13719
690413;13743
690422;13736
690430;13617
690438;13748
690446;13688
690454;13771
690462;13585
690471;13651
690479;13427
690487;13640
690495;13662
690503;11835
690512;8186
690520;6135
690528;9271
690536;15670
690544;15666
690553;15091
690561;14420
690569;14204
690577;13841
690585;13690
690594;13499
690602;13487
690610;13344
690618;13379
690626;13245
690634;13268
690643;13149
690651;13158
690659;12952
690667;12889
690675;12699
690686;12622
690694;12369
690702;12228
690710;11891
690718;11900
690727;11780
690735;11927
690743;11982
690751;12240
690759;12392
690768;12803
690776;13082
690784;13496
690792;13700
690800;13953
690809;14059
690817;14143
690825;14096
690834;14193
690842;14089
690851;14098
690859;13978
690867;13996
690875;13921
690883;13867
690892;13869
690900;13803
690908;13737
690916;13725
690924;13730
690932;13748
690941;13750
690949;13778
690957;13848
690965;13851
690973;13869
690984;13911
690992;13983
691000;14018
691008;13936
691016;13954
691025;13877
691033;13706
691041;13633
691049;13680
691057;13638
691066;13683
691074;13693
691082;13718
691090;13808
691098;13912
691107;13939
691115;13912
691123;13936
691131;13905
691139;13928
691148;13827
691156;13777
691164;13645
691172;14224
691180;13187
691188;9943
691197;6762
691205;7001
691213;13737
691221;16006
691229;15441
691238;14870
691246;14453
691254;14244
691262;13862
691270;13806
691279;13688
691290;13692
691298;13664
691306;13621
691314;13475
691323;13390
691331;13244
691339;13241
691347;13145
691355;12990
691364;12766
691372;12702
691380;12434
691388;12256
691396;12042
691405;12040
691413;12023
691421;12193
691429;12215
691437;12592
691446;12805
691454;13213
691462;13594
691470;13939
691478;14158
691486;14426
691495;14475
691503;14612
691511;14544
691519;14605
691527;14442
691536;14460
691544;14396
691552;14403
691560;14242
691568;14334
691577;14153
691585;14185
691596;14146
691604;14269
691612;14191
691621;14242
691629;14193
691637;14212
691645;14116
691653;14206
691662;14108
691670;14188
691678;14113
691686;14165
691694;14065
691703;14001
691711;13740
691719;13724
691727;13661
691735;13740
691743;13683
691752;13744
691760;13700
691768;13769
691776;13715
691784;13740
691793;13628
691801;13665
691809;13596
691817;13629
691825;13538
691834;13541
691842;13383
691850;13982
691858;13038
691866;9819
691875;6283
691883;6133
691894;14737
691902;15563
691910;14853
691919;14330
691927;14110
691935;13900
691943;13632
691951;13591
691960;13424
691968;13437
691976;13300
691984;13259
691992;13157
692001;13180
692009;13016
692017;12877
692025;12779
692033;12721
692041;12516
692050;12377
692058;12120
692066;11950
692074;11769
692082;11785
692091;11724
692099;11845
692107;11967
692115;12174
692123;12521
692132;12843
692140;13209
692148;13539
692156;13834
692164;13996
692173;14125
692181;14202
692189;14281
692200;14303
692208;14299
692217;14283
692225;14216
692233;14169
692241;14051
692249;14005
692258;13952
692266;13927
692274;13928
692282;13910
692290;13895
692298;13895
692307;13842
692315;13811
692323;13792
692331;13808
692339;13868
692348;13888
692356;13929
692364;13897
692372;13837
692380;13715
692389;13529
692397;13442
692405;13444
692413;13388
692421;13364
692430;13293
692438;13360
692446;13422
692454;13518
692462;13453
692471;13467
692479;13394
692487;13392
692495;13337
692506;13358
692515;13272
692523;13348
692531;13530
692539;11579
692547;7686
692556;5273
692564;8528
692572;14992
692580;15229
692588;14600
692596;14046
692605;13865
692613;13581
692621;13451
692629;13323
692637;13346
692646;13215
692654;13147
692662;13059
692670;13117
692678;13123
692687;13141
692695;13003
692703;12988
692711;12884
692719;12785
692728;12533
692736;12431
692744;12191
692752;12124
692760;12033
692769;12137
692777;12190
692785;12407
692793;12560
692803;13103
692812;13513
692820;13871
692828;14077
692836;14332
692844;14452
692852;14591
692861;14578
692869;14663
692877;14538
692885;14525
692893;14424
692902;14453
692910;14319
692918;14326
692926;14224
692934;14269
692944;14193
692952;14235
692960;14166
692968;14264
692976;14160
692985;14250
692993;14181
693001;14232
693009;14151
693017;14242
693026;14101
693034;14225
693042;14003
693050;14036
693058;13727
693066;13693
693075;13626
693083;13735
693091;13697
693099;13761
693110;13829
693118;14119
693126;14088
693134;14075
693142;13997
693150;14089
693159;13961
693167;14020
693175;13899
693183;13972
693191;13849
693200;14427
693208;13328
693216;10187
693224;6930
693232;7139
693241;14076
693249;16328
693257;15691
693265;15038
693273;14633
693282;14472
693290;14184
693298;14016
693306;13879
693314;13780
693322;13656
693331;13597
693339;13512
693347;13470
693355;13357
693363;13233
693372;13103
693380;13007
693388;12834
693396;12648
693404;12434
693416;12184
693424;11982
693432;11940
693440;11894
693448;11975
693457;12013
693465;12210
693473;12421
693481;12770
693489;13150
693498;13498
693506;13708
693514;13976
693522;14077
693530;14117
693539;14174
693547;14204
693555;14204
693563;14122
693571;14104
693580;14097
693588;14151
693596;14118
693604;14095
693612;14040
693620;14086
693629;14147
693637;14234
693645;14195
693653;14279
693661;14291
693670;14248
693678;14178
693686;14047
693694;13935
693702;13963
693714;14024
693722;14122
693730;14122
693738;14170
693746;14323
693755;14421
693763;14435
693771;14423
693779;14245
693787;14237
693796;14202
693804;14189
693812;14131
693820;14086
693828;13997
693837;14360
693845;12703
693853;9159
693861;6964
693869;8821
693878;15851
693886;16680
693894;15916
693902;15296
693910;14779
693918;14572
693927;14208
693935;14107
693943;13913
693951;13920
693959;13776
693968;13785
693976;13567
693984;13571
693992;13441
694000;13394
694009;13142
694020;12977
694028;12741
694036;12562
694044;12257
694053;12082
694061;11853
694069;11884
694077;11883
694085;12104
694094;12198
694102;12541
694110;12753
694118;13215
694126;13552
694135;13942
694143;14133
694151;14404
694159;14427
694167;14587
694175;14545
694184;14580
694192;14403
694200;14407
694208;14296
694216;14321
694225;14219
694233;14249
694241;14120
694249;14168
694257;14105
694266;14159
694274;14081
694282;14090
694290;13983
694298;14035
694307;13988
694315;14047
694326;14004
694334;14086
694342;13865
694351;13783
694359;13616
694367;13656
694375;13594
694383;13678
694392;13603
694400;13746
694408;13711
694416;13744
694424;13642
694433;13687
694441;13610
694449;13613
694457;13503
694465;13529
694473;13450
694482;13978
694490;12952
694498;9798
694506;6676
694514;6852
694523;13574
694531;16008
694539;15536
694547;14888
694555;14446
694564;14180
694572;13901
694580;13806
694588;13729
694596;13684
694605;13529
694613;13435
694624;13437
694632;13429
694640;13236
694649;13164
694657;12961
694665;12848
694673;12630
694681;12514
694690;12281
694698;12110
694706;11856
694714;11850
694722;11841
694730;11951
694739;12079
694747;12317
694755;12632
694763;13025
694771;13391
694780;13703
694788;13910
694796;14085
694804;14194
694812;14261
694821;14302
694829;14258
694837;14235
694845;14201
694853;14153
694862;14132
694870;14116
694878;14009
694886;13974
694894;13892
694903;13871
694911;13867
694919;13845
694929;13881
694937;13855
694946;13831
694954;13809
694962;13808
694970;13775
694978;13778
694986;13838
694995;13756
695003;13669
695011;13498
695019;13391
695027;13335
695036;13363
695045;13357
695053;13318
695061;13364
695069;13482
695078;13638
695086;13672
695094;13732
695102;13779
695110;13764
695119;13716
695127;13676
695135;13637
695143;13509
695151;13961
695160;13380
695168;10282
695175;6583
695184;5823
695192;11455
695201;15574
695209;15486
695217;14875
695225;14489
695235;14169
695244;13995
695252;13867
695260;13760
695268;13672
695276;13576
695284;13489
695293;13414
695301;13329
695309;13244
695317;13147
695325;13083
695334;13014
695342;12911
695350;12737
695358;12570
695366;12381
695375;12185
695383;12103
695391;12063
695399;12145
695407;12274
695416;12413
695424;12688
695432;13096
695440;13530
695448;13889
695457;14053
695465;14250
695473;14415
695481;14424
695489;14422
695497;14379
695506;14364
695514;14309
695522;14293
695533;14308
695542;14302
695550;14221
695558;14091
695566;14062
695574;14030
695582;14007
695591;14016
695599;13975
695607;13905
695615;13935
695623;13945
695632;13955
695640;13995
695648;14062
695656;14083
695664;14125
695673;14073
695681;13958
695689;13804
695697;13679
695705;13643
695714;13670
695722;13662
695730;13691
695738;13672
695746;13703
695754;13797
695763;13850
695771;13846
695779;13833
695787;13790
695795;13814
695804;13796
695812;13716
695820;13601
695828;13609
695839;13672
695848;11238
695856;7389
695864;5876
695872;10119
695880;15480
695889;15609
695897;14943
695905;14453
695913;14185
695921;13915
695930;13807
695938;13676
695946;13607
695954;13585
695962;13568
695971;13522
695979;13434
695987;13385
695995;13220
696003;13100
696012;12847
696020;12701
696028;12466
696036;12168
696044;11847
696052;11576
696061;11388
696069;11342
696077;11354
696085;11522
696093;11718
696102;12096
696110;12459
696118;12917
696126;13338
696137;13789
696146;13950
696154;13964
696162;14112
696170;14132
696178;14148
696187;14131
696195;14084
696203;14109
696211;14115
696219;14142
696228;14290
696236;14391
696244;14338
696252;14261
696260;14232
696269;14260
696277;14236
696285;14360
696293;14438
696301;14436
696310;14357
696318;14372
696326;14323
696334;14293
696342;14214
696350;14127
696359;14073
696367;14078
696375;13982
696383;13876
696391;13789
696400;13892
696408;13878
696416;13964
696424;13955
696432;13987
696444;14252
696452;14503
696460;14528
696468;14581
696476;14686
696485;14942
696493;14992
696501;15061
696509;15044
696517;15080
696526;15252
696534;15404
696542;13275
696550;9121
696558;7153
696567;11513
696575;17427
696583;17781
696591;16832
696599;16364
696607;16010
696616;15692
696624;15403
696632;15200
696640;14876
696648;14762
696657;14486
696665;14373
696673;14162
696681;14228
696689;14023
696698;14046
696706;13826
696714;13676
696722;13284
696730;13051
696739;12736
696750;12471
696758;12269
696766;12234
696774;12118
696783;12220
696791;12248
696799;12512
696807;12701
696815;13088
696824;13274
696832;13658
696840;13891
696848;14094
696856;14070
696865;14209
696873;14163
696881;14333
696889;14308
696897;14316
696905;14273
696914;14266
696922;14152
696930;14137
696938;14141
696946;14181
696955;14097
696963;14090
696971;14050
696979;14122
696987;14067
696996;14079
697004;14006
697012;14061
697020;14020
697028;14008
697037;13960
697048;14074
697056;14008
697064;14098
697072;14001
697081;14112
697089;13894
697097;13812
697105;13581
697113;13618
697122;13488
697130;13631
697138;13499
697146;13673
697154;13726
697162;13881
697171;13817
697179;13957
697187;13950
697195;14047
697203;13872
697212;13844
697220;13660
697228;13568
697236;13608
697244;13806
697253;11798
697261;7541
697269;5494
697277;9171
697285;15509
697294;15842
697302;15002
697310;14229
697318;13904
697326;13481
697335;13231
697343;13099
697354;12960
697362;12952
697370;12775
697379;12694
697387;12620
697395;12629
697403;12500
697411;12374
697420;12194
697428;12003
697436;11739
697444;11546
697452;11361
697460;11146
697469;11026
697477;10972
697485;11064
697493;11214
697501;11330
697510;11559
697518;11936
697526;12435
697534;12918
697542;13278
697551;13596
697559;13786
697567;13935
697575;13957
697583;14004
697592;14009
697600;14063
697608;14042
697616;14146
697624;13983
697633;14087
697641;13898
697649;14082
697659;14106
697667;14135
697676;14132
697684;14067
697692;13936
697700;14252
697708;14491
697716;14657
697725;14659
697733;14493
697741;14419
697749;14705
697757;14765
697766;14802
697774;14704
697782;14627
697790;14256
697798;14263
697807;13948
697815;14037
697823;13910
697832;14084
697840;14132
697849;14491
697857;14447
697865;14837
697873;15030
697881;15102
697890;14822
697898;14805
697906;14412
697914;14498
697922;14207
697930;14671
697939;13537
697947;10705
697957;8083
697965;11512
697974;17923
697982;18039
697990;17097
697998;16265
698006;15608
698014;15340
698023;14933
698031;14941
698039;14619
698047;14668
698055;14370
698064;14395
698072;14128
698080;14198
698088;13819
698096;13851
698105;13489
698113;13371
698121;12893
698129;12942
698137;12349
698146;12079
698154;11712
698162;11845
698170;11665
698178;11939
698186;11933
698195;12298
698203;12466
698211;12955
698219;13229
698227;13690
698236;13883
698244;14291
698252;14356
698263;14657
698271;14557
698280;14682
698288;14420
698296;14442
698304;14116
698312;14222
698321;13897
698329;14021
698337;13767
698345;13846
698353;13618
698362;13732
698370;13578
698378;13746
698386;13544
698394;13599
698403;13329
698411;13347
698419;13091
698427;13247
698435;13154
698444;13388
698452;13389
698460;13576
698468;13627
698476;13789
698484;13719
698493;13794
698501;13766
698509;13832
698517;13843
698525;13868
698534;13856
698542;13901
698550;14052
698561;13242
698569;10023
698578;7425
698586;7764
698594;15076
698602;17149
698610;16439
698619;15461
698627;14791
698635;14351
698643;14057
698651;13732
698660;13697
698668;13557
698676;13602
698684;13444
698692;13362
698701;13212
698709;13109
698717;12980
698725;12837
698733;12653
698742;12449
698750;12225
698758;11920
698766;11680
698774;11466
698782;11387
698791;11369
698799;11516
698807;11600
698815;11887
698823;12093
698832;12595
698840;12957
698848;13475
698856;13656
698867;14006
698876;14201
698884;14210
698892;14291
698900;14291
698908;14304
698917;14283
698925;14213
698933;14151
698941;14112
698949;14021
698958;13960
698966;13967
698974;13842
698982;13817
698990;13720
698999;13802
699007;13737
699015;13816
699023;13688
699031;13772
699039;13518
699048;13575
699056;13467
699064;13572
699072;13459
699080;13650
699089;13509
699097;13762
699105;13700
699113;13915
699121;13804
699130;13972
699138;13778
699146;13977
699154;13746
699162;13808
699182;14297
699190;13664
699198;11144
699206;7144
699215;6046
699223;11777
699231;16417
699239;16016
699247;15272
699256;14532
699264;14334
699272;13850
699280;13786
699288;13502
699297;13589
699305;13358
699313;13435
699321;13238
699329;13334
699337;13081
699346;13202
699354;12928
699362;12950
699370;12651
699378;12595
699387;12206
699395;12129
699403;11765
699411;11785
699419;11632
699428;11835
699436;11805
699444;12152
699452;12306
699460;12883
699469;13180
699480;13954
699488;14105
699496;14438
699504;14363
699513;14626
699521;14408
699529;14599
699537;14391
699545;14453
699554;14236
699562;14389
699570;14175
699578;14297
699586;14105
699594;14222
699603;14036
699611;14262
699619;14070
699627;14255
699635;14094
699644;14301
699652;14181
699660;14306
699668;14132
699676;14206
699685;13951
699693;13951
699701;13732
699709;13804
699717;13726
699726;13812
699734;13758
699742;13904
699750;14006
699758;14102
699767;14064
699775;14084
699786;13984
699794;14210
699802;14004
699811;14011
699819;13781
699827;14010
699835;14044
699843;12379
699852;8165
699860;5570
699868;8400
699876;15623
699884;16262
699892;15643
699901;14809
699909;14597
699917;14169
699925;14023
699933;13787
699942;13660
699950;13550
699958;13538
699966;13394
699974;13269
699983;13231
699991;13143
699999;13008
700007;12914
700015;12778
700024;12502
700032;12331
700040;12044
700048;11919
700056;11638
700065;11588
700073;11572
700081;11792
700092;12066
700100;12224
700109;12638
700117;12998
700125;13406
700133;13668
700141;13931
700150;14011
700158;14086
700166;14063
700174;14087
700182;14037
700190;13954
700199;13910
700207;13744
700215;13710
700223;13574
700231;13608
700240;13558
700248;13562
700256;13450
700264;13539
700272;13454
700281;13603
700289;13499
700297;13642
700305;13521
700313;13676
700322;13594
700330;13730
700338;13635
700346;13757
700354;13433
700362;13415
700371;13235
700379;13384
700389;13387
700397;13478
700406;13489
700414;13605
700422;13673
700430;13759
700438;13670
700446;13711
700455;13603
700463;13684
700471;13478
700479;13601
700487;13407
700496;13786
700504;13565
700512;11513
700520;7377
700528;5886
700537;10102
700545;16023
700553;15999
700561;15328
700569;14642
700578;14413
700586;13902
700594;13927
700602;13712
700610;13787
700618;13477
700627;13512
700635;13219
700643;13304
700651;13039
700660;13137
700669;12846
700677;12838
700685;12481
700695;12424
700703;12071
700712;11953
700720;11394
700728;11378
700736;11395
700744;11663
700753;11524
700761;11838
700769;11916
700777;12499
700785;12748
700794;13354
700802;13353
700810;13707
700818;13634
700826;13824
700835;13663
700843;13856
700851;13677
700859;13800
700867;13553
700876;13579
700884;13447
700892;13624
700900;13476
700908;13838
700916;13475
700925;13721
700933;13741
700941;13901
700949;14093
700957;14411
700966;14471
700974;14622
700982;14597
700990;14771
701001;14753
701010;14948
701018;14648
701026;14591
701034;14215
701042;14311
701051;14185
701059;14341
701067;14127
701075;14267
701083;14155
701092;14409
701100;14301
701108;14341
701116;14119
701124;14186
701133;14022
701141;14040
701149;13847
701157;13866
701165;13642
701174;14139
701182;12648
701190;8816
701198;5546
701206;7159
701214;14759
701223;16373
701231;15679
701239;14900
701247;14510
701255;14070
701264;13797
701272;13627
701280;13536
701288;13417
701299;13279
701308;13327
701316;13027
701324;13040
701332;12771
701340;12527
701349;12510
701357;12579
701365;12423
701373;12432
701381;12271
701390;12169
701398;12061
701406;12020
701414;11951
701422;11904
701431;11973
701439;12364
701447;12654
701455;13010
701463;13456
701471;13792
701480;14149
701488;14260
701496;14415
701504;14299
701512;14312
701521;14199
701529;14236
701537;14019
701545;14018
701553;13709
701562;13795
701570;13806
701578;13935
701586;13773
701594;13980
701606;14058
701614;14162
701622;14173
701630;14219
701638;14126
701647;14157
701655;14104
701663;14048
701671;13854
701679;13907
701688;13800
701696;13952
701704;13918
701712;13994
701720;13863
701729;13951
701737;13796
701745;13884
701753;13634
701761;13657
701769;13476
701778;13588
701786;13547
701794;13739
701802;13565
701810;13656
701819;13447
701827;13608
701835;13423
701843;13558
701851;13286
701860;13642
701868;13590
701876;11555
701884;7460
701892;6181
701901;10087
701912;16747
701920;16153
701928;15457
701936;14653
701945;14420
701953;13775
701961;13609
701969;13470
701977;13598
701986;13615
701994;13722
702002;13681
702010;13711
702018;13512
702026;13411
702035;13244
702043;13307
702051;13003
702059;12806
702067;12491
702076;12037
702084;11729
702092;11768
702100;11668
702108;11692
702117;11565
702125;11789
702133;12078
702141;12481
702149;12839
702158;13336
702166;13637
702174;13992
702182;14240
702190;14422
702199;14472
702210;14679
702218;14641
702226;14625
702234;14445
702243;14407
702251;14329
702259;14379
702267;14232
702275;14243
702284;14120
702292;14116
702300;13965
702308;14002
702316;13914
702324;14020
702333;13989
702341;14038
702349;13915
702357;13958
702365;13791
702374;13735
702382;13492
702390;13503
702398;13451
702406;13570
702415;13628
702423;13796
702431;13858
702439;13950
702447;13910
702456;13933
702464;13925
702472;13939
702480;13932
702488;13879
702497;13873
702505;13752
702516;13961
702524;12135
702532;8324
702541;6485
702549;9851
702557;16752
702565;16888
702573;16135
702582;15146
702590;14666
702598;14186
702606;13924
702614;13742
702622;13653
702631;13555
702639;13539
702647;13453
702655;13382
702663;13372
702672;13312
702680;13176
702688;13078
702696;12936
702704;12799
702713;12569
702721;12288
702729;12079
702737;11928
702745;11884
702754;11918
702762;12062
702770;12276
702778;12485
702786;12778
702794;13202
702803;13559
702811;13912
702822;14303
702830;14529
702839;14616
702847;14607
702855;14603
702863;14567
702871;14524
702879;14425
702888;14397
702896;14304
702904;14232
702912;14118
702920;14061
702929;14007
702937;13986
702945;13973
702953;13958
702961;13965
702970;13924
702978;13944
702986;13862
702994;13850
703002;13711
703011;13633
703019;13499
703027;13516
703035;13447
703043;13599
703052;13670
703060;13859
703068;13931
703076;14004
703084;14026
703092;14052
703101;13972
703109;13959
703119;13927
703127;13903
703135;13767
703144;13817
703152;13618
703160;11396
703168;7829
703176;6586
703185;11177
703193;16856
703201;16550
703209;15822
703217;14994
703226;14537
703234;14039
703242;13816
703250;13702
703258;13811
703267;13794
703276;13752
703284;13587
703292;13575
703300;13442
703309;13406
703317;13167
703325;13027
703333;12779
703341;12641
703350;12368
703358;12159
703366;11885
703374;11867
703382;11828
703390;12000
703399;12059
703407;12256
703415;12415
703425;13035
703433;13390
703442;13669
703450;13727
703458;13924
703466;13950
703474;13958
703483;13788
703491;13797
703499;13621
703507;13577
703515;13528
703524;13501
703532;13401
703540;13453
703548;13422
703556;13521
703565;13479
703573;13522
703581;13405
703589;13390
703597;13309
703606;13421
703614;13311
703622;13422
703630;13459
703638;13436
703646;13320
703655;13292
703663;13200
703671;13207
703679;13196
703687;13280
703696;13329
703704;13523
703712;13558
703720;13711
703731;13795
703740;13883
703748;13768
703756;13796
703764;13685
703772;13639
703781;13479
703789;13450
703797;13733
703805;12419
703813;9137
703822;6642
703830;7551
703838;14587
703846;16131
703854;15737
703863;15016
703871;14657
703879;14384
703887;14272
703895;14100
703903;14121
703912;14042
703920;14000
703928;13922
703936;13902
703944;13772
703953;13609
703961;13487
703969;13371
703977;13188
703985;13039
703994;12964
704002;12820
704010;12722
704018;12517
704029;12486
704038;12602
704046;12626
704054;12757
704062;12911
704070;13165
704079;13482
704087;13793
704095;14011
704103;14265
704111;14372
704120;14431
704128;14480
704136;14494
704144;14462
704152;14355
704161;14282
704169;14210
704177;14111
704185;14016
704193;13970
704201;13843
704210;13825
704218;13782
704226;13744
704234;13654
704242;13658
704251;13658
704259;13721
704267;13721
704275;13733
704283;13704
704292;13723
704300;13624
704308;13604
704316;13524
704324;13425
704336;13346
704344;13374
704352;13392
704360;13417
704368;13436
704377;13495
704385;13616
704393;13700
704401;13636
704409;13624
704418;13593
704426;13599
704434;13508
704442;13567
704450;13499
704458;13663
704467;13585
704475;11540
704483;8019
704491;6397
704499;10010
704508;16080
704516;16208
704524;15567
704532;14771
704540;14470
704549;14050
704557;13895
704565;13700
704573;13665
704581;13514
704590;13526
704598;13364
704606;13320
704614;13175
704622;13178
704631;12960
704642;12819
704650;12634
704658;12412
704666;12157
704675;11994
704683;11745
704691;11725
704699;11672
704707;11802
704716;11880
704724;12168
704732;12362
704740;12797
704748;13092
704756;13461
704765;13691
704773;14007
704781;14055
704789;14198
704797;14118
704806;14191
704814;14107
704822;14159
704830;14016
704838;14029
704847;13905
704855;13874
704863;13764
704871;13747
704879;13679
704888;13754
704896;13677
704904;13745
704912;13752
704920;13844
704929;13830
704940;13968
704948;13944
704956;14046
704964;13970
704973;14016
704981;13887
704989;13819
704997;13601
705005;13642
705014;13652
705022;13772
705030;13731
705038;13811
705046;13771
705054;13958
705063;13962
705071;13959
705079;13885
705087;13932
705095;13874
705104;13875
705112;13792
705120;13744
705128;13947
705136;13902
705145;11581
705153;7948
705161;6304
705169;10590
705177;16364
705186;16415
705194;15650
705202;14895
705210;14580
705218;14239
705226;14024
705235;13901
705246;13796
705254;13814
705262;13667
705271;13609
705279;13456
705287;13365
705295;13280
705303;13137
705311;12910
705320;12788
705328;12607
705336;12420
705344;12149
705352;11909
705361;11777
705369;11761
705377;11905
705385;12015
705393;12148
705402;12400
705410;12750
705418;13066
705426;13424
705434;13656
705443;13923
705451;14145
705459;14267
705467;14241
705475;14316
705484;14232
705492;14273
705500;14225
705508;14155
705516;14064
705524;14091
705533;14048
705544;14171
705552;14221
705560;14197
705569;14091
705577;14088
705585;14081
705593;14068
705601;14098
705609;14170
705618;14107
705626;14124
705634;14087
705642;14075
705650;13957
705659;13818
705667;13659
705675;13685
705683;13634
705691;13697
705700;13660
705708;13762
705716;13726
705724;13939
705732;13908
705741;13955
705749;13899
705757;13916
705765;13775
705773;13771
705782;13656
705790;13621
705798;13788
705806;13530
705814;10849
705822;7242
705831;5943
705839;11384
705849;16519
705857;15968
705865;14977
705874;14435
705882;14036
705890;13754
705898;13562
705906;13523
705915;13412
705923;13420
705931;13320
705939;13280
705947;13153
705956;13126
705964;12957
705972;12912
705980;12702
705988;12627
705997;12366
706005;12165
706013;11855
706021;11751
706030;11573
706039;11696
706047;11715
706055;11938
706063;12098
706071;12443
706079;12776
706088;13214
706096;13544
706104;13892
706112;14094
706120;14316
706129;14330
706137;14451
706145;14452
706155;14563
706163;14474
706172;14426
706180;14297
706188;14279
706196;14141
706204;14156
706213;14068
706221;14105
706229;14052
706237;14067
706245;13941
706254;14015
706262;13985
706270;14068
706278;14100
706286;14152
706295;14071
706303;14059
706311;13867
706319;13797
706327;13759
706335;13745
706344;13717
706352;13801
706360;13843
706368;13960
706376;14038
706385;14038
706393;13974
706401;13944
706409;13937
706417;13895
706426;13818
706434;13784
706442;13699
706453;14144
706461;13388
706470;10403
706478;7024
706486;6520
706494;13269
706502;16774
706511;16183
706519;15298
706527;14548
706535;14227
706543;13824
706552;13568
706560;13469
706568;13410
706576;13335
706584;13218
706593;13171
706601;13142
706609;13091
706617;12941
706625;12830
706633;12723
706642;12611
706650;12359
706658;12120
706666;11895
706674;11763
706683;11575
706691;11625
706699;11645
706707;11812
706715;11939
706724;12306
706732;12653
706740;13146
706748;13481
706759;14009
706768;14268
706776;14390
706784;14459
706792;14473
706800;14443
706809;14458
706817;14396
706825;14422
706833;14323
706841;14302
706850;14218
706858;14145
706866;13999
706874;13972
706882;13863
706890;13926
706899;13879
706907;13900
706915;13825
706923;13887
706931;13840
706940;13918
706948;13839
706956;13902
706964;13838
706972;13853
706981;13778
706989;13746
706997;13549
707005;13466
707013;13359
707022;13429
707030;13346
707038;13399
707046;13346
707054;13465
707066;13581
707074;13683
707082;13540
707090;13587
707098;13571
707107;13624
707115;13540
707123;13561
707131;13394
707139;14102
707148;13228
707156;9679
707164;5843
707172;5656
707180;12890
707188;16534
707197;16025
707205;15184
707213;14578
707221;14438
707229;14028
707238;13779
707246;13664
707254;13581
707262;13340
707270;13396
707279;13280
707287;13258
707295;13069
707303;13044
707311;12832
707320;12696
707328;12424
707336;12353
707344;12134
707352;11974
707364;11751
707372;11806
707380;11715
707388;11824
707396;11835
707405;12008
707413;12218
707421;12672
707429;13029
707437;13606
707446;13953
707454;14344
707462;14421
707470;14536
707478;14546
707486;14486
707495;14355
707503;14261
707511;14102
707519;14080
707527;13964
707536;13975
707544;13833
707552;13828
707560;13717
707568;13686
707577;13666
707585;13990
707593;14063
707601;14027
707609;14124
707618;14214
707626;13974
707634;13726
707642;13660
707650;13565
707658;13409
707670;13292
707678;13280
707686;13394
707694;13305
707703;13405
707711;13455
707719;13600
707727;13705
707735;13801
707743;13727
707752;13708
707760;13647
707768;13766
707776;13734
707784;13706
707793;13639
707801;14266
707809;12832
707817;8726
707825;5189
707834;6336
707842;14745
707850;16093
707858;15201
707866;14422
707875;13969
707883;13608
707891;13324
707899;13127
707907;13210
707916;13122
707924;13072
707932;12978
707940;13010
707948;12940
707956;12962
707965;12833
707976;12799
707984;12725
707992;12491
708001;12246
708009;12018
708017;11814
708025;11603
708033;11612
708041;11776
708050;11925
708058;12105
708066;12307
708074;12575
708082;12950
708091;13406
708099;13741
708107;14113
708115;14193
708123;14422
708132;14432
708140;14512
708148;14542
708156;14685
708164;14593
708173;14667
708181;14517
708189;14416
708197;14116
708205;13943
708214;13752
708222;13804
708230;13710
708238;13801
708246;13783
708254;13997
708263;14010
708273;14153
708281;14114
708289;14080
708297;13852
708306;13729
708314;13516
708322;13378
708331;13280
708339;13450
708348;13408
708356;13508
708364;13504
708372;13638
708380;13669
708389;13766
708397;13741
708405;13817
708413;13752
708421;13752
708430;13593
708438;13645
708446;13073
708454;11096
708461;7913
708471;7598
708479;12708
708487;17659
708495;17003
708503;15750
708511;14578
708520;14270
708528;13935
708536;13697
708544;13536
708552;13553
708561;13441
708569;13482
708579;13462
708587;13524
708595;13383
708604;13375
708612;13202
708620;13131
708628;12922
708636;12789
708645;12501
708653;12377
708661;12129
708669;12129
708677;12029
708686;12153
708694;12234
708702;12443
708710;12598
708718;12994
708727;13271
708735;13640
708743;13890
708751;14168
708759;14328
708767;14545
708776;14623
708784;14717
708792;14674
708800;14675
708808;14564
708817;14556
708825;14486
708833;14463
708841;14378
708849;14354
708858;14330
708866;14334
708874;14358
708885;14491
708893;14485
708902;14513
708910;14302
708918;14198
708926;14039
708934;14076
708943;14047
708951;14173
708959;14206
708967;14309
708975;14361
708984;14454
708992;14438
709000;14441
709008;14372
709016;14364
709025;14318
709033;14243
709041;14118
709049;13960
709057;14461
709065;13552
709074;9921
709082;5895
709090;5846
709098;13299
709106;16921
709115;16310
709123;15382
709131;14888
709139;14566
709147;14096
709156;13962
709164;13816
709172;13702
709183;13656
709191;13581
709200;13521
709208;13411
709216;13304
709224;13150
709232;13038
709241;12886
709249;12668
709257;12426
709265;12137
709273;11900
709282;11703
709290;11624
709298;11612
709306;11713
709314;11844
709322;12067
709331;12359
709339;12796
709347;13200
709355;13627
709363;13882
709372;14158
709380;14284
709388;14401
709396;14406
709404;14475
709413;14419
709421;14413
709429;14284
709437;14307
709445;14194
709454;14193
709462;14064
709470;14042
709478;13917
709489;14008
709498;14011
709506;14000
709514;13896
709522;13816
709530;13558
709539;13491
709547;13384
709555;13417
709563;13389
709571;13518
709580;13527
709588;13723
709596;13824
709604;13971
709612;13954
709620;14020
709629;13918
709637;13959
709645;13856
709653;13851
709661;13710
709670;13871
709678;13986
709686;11989
709694;7786
709702;5489
709711;9157
709719;16520
709727;16639
709735;15797
709743;14940
709752;14695
709760;14264
709768;14081
709776;13902
709784;13791
709796;13683
709804;13746
709812;13585
709820;13542
709828;13407
709837;13273
709845;13094
709853;12995
709861;12645
709869;12575
709878;12348
709886;12159
709894;11867
709902;11832
709910;11802
709918;11917
709927;11981
709935;12297
709943;12531
709951;12984
709959;13343
709968;13813
709976;14096
709984;14402
709992;14524
710000;14670
710009;14616
710017;14632
710025;14500
710033;14480
710041;14396
710050;14367
710058;14257
710066;14196
710074;14099
710082;14091
710094;14076
710102;14180
710110;14143
710118;14206
710126;14172
710135;14192
710143;14037
710151;13861
710159;13690
710167;13674
710175;13632
710184;13711
710192;13736
710200;13846
710208;13861
710216;14028
710225;14048
710233;14086
710241;14076
710249;14097
710257;14087
710266;14089
710274;14009
710282;13893
710290;13921
710298;14138
710307;12078
710315;7895
710323;5245
710331;8684
710339;16208
710348;16584
710356;15698
710364;14902
710372;14585
710380;14166
710388;13945
710400;13846
710408;13740
710416;13644
710424;13561
710433;13500
710441;13398
710449;13313
710457;13216
710465;13126
710473;12977
710482;12816
710490;12624
710498;12390
710506;12166
710514;11958
710523;11854
710531;11826
710539;11883
710547;11997
710555;12208
710564;12440
710572;12837
710580;13226
710588;13624
710596;13928
710605;14208
710613;14248
710621;14370
710629;14335
710637;14339
710646;14251
710654;14263
710662;14162
710670;14083
710678;13949
710686;13925
710695;13791
710705;13890
710713;13901
710721;13887
710729;13808
710738;13857
710746;13811
710754;13785
710762;13730
710770;13602
710779;13418
710787;13448
710795;13424
710803;13500
710811;13518
710820;13669
710828;13659
710836;13865
710844;13867
710853;13965
710862;13935
710870;14027
710878;13950
710886;14037
710894;13920
710903;13917
710911;13790
710919;14181
710927;12378
710935;8430
710943;5449
710952;8226
710960;16094
710968;16791
710976;15771
710984;15012
710993;14644
711003;14268
711011;14019
711019;13894
711027;13719
711036;13716
711044;13537
711052;13482
711060;13313
711068;13252
711077;13036
711085;12963
711093;12715
711101;12621
711109;12335
711118;12155
711126;11825
711134;11662
711142;11489
711150;11572
711159;11612
711167;11850
711175;11980
711183;12337
711191;12645
711199;13138
711208;13483
711216;13896
711224;14135
711232;14306
711240;14338
711249;14405
711257;14394
711265;14373
711273;14271
711281;14234
711290;14161
711298;14093
711309;14071
711317;14150
711325;13996
711334;14008
711342;13914
711350;13956
711358;13894
711366;13964
711375;13946
711383;14006
711391;14018
711399;13996
711407;13809
711416;13663
711424;13572
711432;13665
711440;13711
711448;13762
711457;13767
711465;13804
711473;13898
711481;14011
711489;14030
711497;14017
711506;14011
711514;13973
711522;13953
711530;13809
711538;13690
711547;13666
711555;14074
711563;12311
711571;8285
711579;5333
711588;7834
711596;15795
711604;16729
711615;15568
711623;14843
711632;14508
711640;14094
711648;13835
711656;13726
711664;13660
711673;13607
711681;13567
711689;13566
711697;13502
711705;13413
711714;13294
711722;13202
711730;13032
711738;12897
711746;12706
711754;12544
711763;12254
711771;12068
711779;11892
711787;11912
711795;11906
711804;12071
711812;12165
711820;12438
711828;12737
711836;13167
711845;13503
711853;13865
711861;14075
711869;14298
711877;14308
711886;14380
711894;14287
711902;14323
711913;14260
711921;14285
711930;14235
711938;14222
711946;14141
711954;14137
711962;14074
711971;14086
711979;14023
711987;14050
711995;13981
712003;13995
712012;13924
712020;13966
712028;13879
712036;13928
712044;13756
712052;13572
712061;13403
712069;13472
712077;13441
712085;13537
712093;13508
712102;13656
712110;13719
712118;13943
712126;13955
712134;14047
712143;13958
712151;14033
712159;13904
712167;13908
712175;13768
712184;13722
712192;14069
712200;13623
712208;10543
712219;5721
712228;6849
712236;15067
712244;16888
712252;16108
712260;15125
712269;14759
712277;14344
712285;14069
712293;13830
712301;13832
712310;13703
712318;13665
712326;13549
712334;13570
712342;13406
712350;13396
712359;13237
712367;13173
712375;12981
712383;12877
712391;12630
712400;12487
712408;12189
712416;12035
712424;11864
712432;11890
712441;11884
712449;12047
712457;12201
712465;12586
712473;12925
712482;13351
712490;13710
712498;14058
712506;14275
712514;14447
712526;14587
712534;14671
712542;14539
712550;14519
712558;14360
712567;14364
712575;14208
712583;14246
712591;14127
712599;14110
712607;14001
712616;14056
712624;13979
712632;13992
712640;13945
712648;14002
712657;13997
712665;14035
712673;14006
712681;14029
712689;14032
712698;13973
712706;13774
712714;13641
712722;13603
712730;13665
712739;13711
712747;13698
712755;13720
712763;13769
712771;13875
712780;13934
712788;13889
712796;13850
712804;13815
712812;13772
712824;13818
712832;13844
712840;13691
712848;14105
712856;13533
712865;10435
712873;6304
712881;5402
712889;11843
712897;16599
712905;16122
712914;15165
712922;14556
712930;14247
712938;13889
712946;13667
712955;13553
712963;13441
712971;13409
712979;13315
712987;13273
712996;13166
713004;13112
713012;12970
713020;12879
713028;12718
713037;12590
713045;12334
713053;12132
713061;11864
713069;11731
713078;11567
713086;11618
713094;11647
713102;11858
713110;12018
713118;12371
713130;12929
713138;13435
713146;13801
713154;14070
713162;14240
713171;14423
713179;14456
713187;14498
713195;14434
713203;14456
713212;14368
713220;14337
713228;14231
713236;14240
713244;14141
713253;14111
713261;14026
713269;14034
713277;13869
713285;13890
713294;13800
713302;13825
713310;13772
713318;13848
713326;13813
713335;13852
713343;13770
713351;13805
713359;13676
713367;13630
713375;13358
713384;13254
713392;13163
713400;13255
713408;13212
713416;13320
713425;13367
713436;13610
713444;13693
713452;13792
713460;13720
713469;13712
713477;13595
713485;13622
713493;13539
713501;13539
713510;13384
713518;14030
713526;12872
713534;9178
713542;5473
713551;5990
713559;13977
713567;16763
713575;15848
713583;14980
713592;14508
713600;14283
713608;13948
713616;13858
713624;13709
713633;13706
713641;13620
713649;13604
713657;13526
713665;13539
713673;13434
713682;13361
713690;13245
713698;13115
713706;12918
713714;12704
713723;12464
713733;12231
713741;12024
713749;12003
713757;11938
713766;12104
713774;12194
713782;12496
713790;12760
713799;13201
713808;13553
713816;13972
713824;14188
713832;14414
713840;14495
713849;14600
713857;14513
713865;14536
713873;14473
713881;14457
713890;14381
713898;14373
713906;14321
713914;14315
713922;14310
713930;14302
713939;14236
713947;14182
713955;14170
713963;14122
713971;14154
713980;14169
713988;14201
713996;14177
714004;14249
714012;14209
714021;14232
714029;14137
714039;14038
714047;13881
714055;13726
714064;13733
714072;13728
714080;13757
714088;13746
714096;13783
714105;13867
714113;13954
714121;13978
714129;13996
714137;13998
714146;13938
714154;13925
714162;13869
714170;13816
714178;13672
714186;14165
714195;13024
714203;9654
714211;6600
714219;7218
714227;14963
714236;17365
714244;16401
714252;15389
714260;14637
714268;14367
714277;13918
714285;13785
714293;13606
714301;13624
714309;13313
714318;13312
714326;13140
714334;13165
714345;13023
714353;13028
714362;12861
714370;12758
714378;12518
714386;12352
714394;12089
714403;11930
714411;11729
714419;11711
714427;11698
714435;11869
714444;11979
714452;12234
714460;12477
714468;12940
714476;13265
714484;13688
714493;13912
714501;14191
714509;14232
714517;14361
714525;14350
714534;14413
714542;14312
714550;14376
714558;14257
714566;14262
714575;14128
714583;14168
714591;14090
714599;14140
714607;14044
714616;14113
714624;14043
714632;14106
714643;14059
714651;14141
714660;13982
714668;13796
714676;13652
714684;13709
714692;13652
714701;13742
714709;13741
714717;13861
714725;13893
714733;14081
714742;14051
714750;14087
714758;14028
714766;14076
714774;13995
714782;14028
714791;13932
714799;13912
714807;13791
714815;14096
714823;12396
714832;8786
714840;6430
714848;8778
714856;16429
714864;17198
714873;16229
714881;15255
714889;14616
714897;14311
714905;13858
714914;13653
714922;13530
714930;13424
714938;13337
714949;13399
714958;13334
714966;13341
714974;13192
714982;13119
714990;12964
714999;12895
715007;12580
715015;12375
715023;12032
715031;11852
715039;11599
715048;11575
715056;11588
715064;11779
715072;11933
715080;12221
715089;12565
715097;13064
715105;13461
715113;13858
715121;14127
715130;14332
715138;14413
715146;14471
715154;14510
715162;14542
715171;14443
715179;14343
715187;14242
715195;14169
715203;14139
715212;14013
715220;13941
715228;13865
715236;13800
715244;13726
715256;13777
715264;13816
715272;13689
715280;13728
715288;13667
715297;13571
715305;13472
715313;13293
715321;13183
715329;13116
715337;13109
715346;13146
715354;13198
715362;13288
715370;13389
715378;13516
715387;13627
715395;13630
715403;13595
715411;13581
715419;13632
715428;13556
715436;13579
715444;13485
715452;13751
715460;13407
715469;11006
715477;7252
715485;5998
715493;11268
715501;16955
715510;16560
715518;15701
715526;14789
715534;14462
715542;14031
715554;13829
715562;13740
715570;13668
715578;13579
715586;13521
715594;13376
715603;13326
715611;13166
715619;13086
715627;12904
715635;12798
715644;12567
715652;12440
715660;12136
715668;11973
715676;11690
715685;11661
715693;11590
715701;11732
715709;11788
715717;12149
715726;12372
715734;12841
715742;13168
715750;13672
715758;13933
715767;14214
715775;14242
715783;14416
715791;14343
715799;14413
715807;14316
715816;14401
715824;14250
715832;14281
715840;14183
715848;14251
715860;14177
715868;14270
715876;14101
715884;14139
715892;14016
715901;14091
715909;13955
715917;14020
715925;13893
715933;14021
715942;13910
715950;14039
715958;13924
715966;13931
715974;13644
715983;13651
715991;13529
715999;13663
716007;13561
716015;13640
716024;13602
716032;13814
716040;13879
716048;13952
716056;13864
716065;13908
716073;13914
716081;13953
716089;13825
716097;13714
716105;13809
716114;13840
716122;11295
716130;6964
716138;5058
716146;8655
716155;15500
716166;16164
716174;15271
716182;14850
716190;14349
716199;14098
716207;13822
716215;13790
716223;13601
716231;13612
716240;13472
716248;13460
716256;13307
716264;13277
716272;13124
716281;13072
716289;12914
716297;12790
716305;12521
716313;12288
716322;12069
716330;11890
716338;11753
716346;11757
716354;11874
716362;11978
716371;12123
716379;12346
716387;12791
716395;13248
716403;13667
716412;13970
716420;14242
716428;14329
716436;14426
716444;14417
716453;14481
716463;14437
716471;14406
716479;14403
716487;14311
716496;14256
716504;14232
716512;14233
716521;14174
716529;14139
716538;14089
716546;14037
716554;14055
716562;14044
716570;14019
716579;14007
716587;14064
716595;14052
716603;14134
716611;14066
716620;14076
716628;13883
716636;13804
716644;13753
716652;13860
716660;13812
716669;13874
716677;13835
716685;13965
716693;14009
716701;14119
716710;14045
716718;14093
716726;13959
716734;13982
716742;13816
716751;13816
716759;13595
716769;14226
716777;12320
716785;7926
716794;4727
716802;7201
716810;15146
716818;16461
716826;15665
716835;14974
716843;14509
716851;14104
716859;13724
716867;13664
716876;13469
716884;13464
716892;13304
716900;13329
716908;13142
716916;13157
716925;12998
716933;12959
716941;12738
716949;12712
716957;12424
716966;12270
716974;11921
716982;11763
716990;11461
716998;11456
717007;11379
717015;11551
717023;11593
717031;11903
717039;12208
717048;12750
717056;13123
717064;13658
717075;14074
717083;14330
717092;14371
717100;14521
717108;14380
717116;14430
717124;14365
717133;14383
717141;14200
717149;14243
717157;14144
717165;14207
717174;14075
717182;14119
717190;14011
717198;14118
717206;14035
717214;14173
717223;14118
717231;14187
717239;14108
717247;14159
717255;13694
717264;13461
717272;13481
717280;13480
717288;13279
717296;13235
717305;13215
717313;13321
717321;13345
717329;13412
717337;13481
717346;13619
717354;13792
717362;13895
717373;13985
717381;14154
717390;14052
717398;14114
717406;13982
717414;14015
717422;13824
717431;14494
717439;13290
717447;9723
717455;6254
717463;6971
717471;15077
717480;17282
717488;16282
717496;15325
717504;14757
717512;14470
717521;14051
717529;13914
717537;13800
717545;13775
717553;13718
717562;13680
717570;13593
717578;13483
717586;13372
717594;13246
717603;13123
717611;12969
717619;12805
717627;12585
717635;12365
717644;12086
717652;11969
717660;11824
717668;11885
717679;12055
717688;12163
717696;12400
717704;12710
717712;13126
717720;13488
717729;13849
717737;14085
717745;14328
717753;14498
717761;14588
717769;14674
717778;14667
717786;14655
717794;14572
717802;14508
717810;14382
717819;14316
717827;14207
717835;14175
717843;14059
717851;14032
717860;13974
717868;14009
717876;13939
717884;14028
717892;13961
717901;14065
717909;13966
717917;14000
717925;13937
717933;13900
717942;13729
717950;13742
717958;13664
717966;13746
717974;13747
717986;13965
717994;14091
718002;14203
718010;14140
718018;14149
718026;14069
718035;14104
718043;14013
718051;14049
718059;13931
718067;13929
718076;13909
718084;14109
718092;11963
718100;8007
718108;5710
718117;9643
718125;16746
718133;16848
718141;15826
718149;15038
718158;14511
718166;14292
718174;13877
718182;13784
718190;13555
718199;13545
718207;13366
718215;13370
718223;13179
718231;13169
718239;12961
718248;12906
718256;12631
718264;12553
718272;12310
718284;12169
718292;11919
718300;11789
718308;11579
718316;11658
718324;11641
718333;11852
718341;11939
718349;12369
718357;12677
718365;13207
718374;13510
718382;13927
718390;14065
718398;14302
718406;14333
718415;14495
718423;14408
718431;14460
718439;14336
718447;14375
718456;14262
718464;14264
718472;14137
718480;14150
718488;14019
718497;14071
718505;14064
718513;14098
718521;14017
718529;14063
718537;14029
718546;14048
718554;14013
718562;14053
718570;14030
718578;14032
718598;14443
718606;14269
718614;14114
718622;13849
718631;13840
718639;13789
718647;13885
718655;13809
718663;13887
718672;13889
718680;14083
718688;14037
718696;14029
718704;13960
718713;13945
718721;13863
718729;13886
718737;13772
718745;13707
718754;14202
718762;13071
718770;9442
718778;6096
718786;6574
718794;14328
718803;16625
718811;15903
718819;14990
718827;14478
718835;14163
718844;13804
718852;13658
718860;13525
718868;13444
718876;13328
718885;13270
718893;13186
718904;13164
718912;13151
718920;12991
718929;12893
718937;12734
718945;12624
718953;12393
718961;12141
718970;11925
718978;11732
718986;11643
718994;11676
719002;11752
719011;11834
719019;12039
719027;12373
719035;12873
719043;13296
719052;13708
719060;13930
719068;14180
719076;14287
719084;14454
719092;14430
719101;14471
719109;14328
719117;14396
719125;14237
719133;14213
719142;14076
719150;14079
719158;13943
719166;13969
719174;13883
719183;13966
719191;13836
719202;13905
719210;13912
719218;13913
719227;13885
719235;13909
719243;13847
719251;13887
719259;13822
719268;13862
719276;13702
719284;13630
719292;13462
719300;13535
719309;13484
719317;13552
719325;13471
719333;13595
719341;13594
719350;13848
719358;13763
719366;13855
719374;13763
719382;13831
719390;13709
719399;13780
719407;13618
719415;13791
719423;14108
719431;12391
719440;8214
719448;5438
719456;7683
719464;15535
719472;16438
719481;15797
719489;14911
719497;14689
719507;14205
719515;14142
719524;13951
719532;13905
719540;13716
719548;13707
719556;13495
719565;13545
719573;13351
719581;13296
719589;13083
719597;13026
719606;12761
719614;12680
719622;12320
719631;12136
719639;11774
719647;11716
719656;11572
719664;11716
719672;11732
719680;11970
719688;12194
719697;12620
719705;13009
719713;13516
719721;13776
719729;14108
719738;14234
719746;14399
719754;14399
719762;14467
719770;14426
719779;14430
719787;14377
719795;14344
719803;14222
719813;14211
719822;14135
719830;14180
719838;14027
719846;14102
719854;13994
719863;14054
719871;13958
719879;14023
719887;14014
719895;14046
719903;13952
719912;14005
719920;13920
719928;13991
719936;13885
719944;13826
719953;13606
719961;13527
719969;13554
719977;13645
719985;13679
719994;13719
720002;13766
720010;13810
720018;13912
720026;13888
720035;13888
720043;13838
720051;13850
720059;13790
720067;13741
720076;13649
720084;13575
720092;14074
720100;13196
720111;8268
720120;5406
720128;7769
720136;15470
720144;16499
720152;15770
720161;14956
720169;14623
720177;14288
720185;14035
720193;13903
720201;13834
720210;13720
720218;13649
720226;13573
720234;13551
720242;13403
720251;13341
720259;13226
720267;13148
720275;12919
720283;12776
720292;12498
720300;12284
720308;11953
720316;11855
720324;11668
720333;11743
720341;11711
720349;11907
720357;12036
