Tempo (ms);Valor
840464;14986
840472;14869
840481;14745
840489;14602
840497;14508
840505;14380
840513;14267
840521;14131
840530;14094
840538;14003
840546;13981
840554;13953
840562;13876
840571;13700
840579;13647
840587;13559
840595;13482
840603;13481
840612;13438
840620;13405
840628;13426
840636;13508
840644;13623
840653;13689
840661;13646
840669;13636
840677;13583
840685;13592
840694;13463
840702;13442
840710;13475
840718;13701
840726;11807
840734;8083
840743;5584
840751;8165
840762;15727
840770;15606
840778;14866
840787;14365
840795;14109
840803;13833
840811;13588
840819;13528
840828;13516
840836;13460
840844;13332
840852;13256
840860;13156
840869;13051
840877;12904
840885;12803
840893;12632
840901;12482
840910;12300
840918;12097
840926;11810
840934;11609
840942;11414
840951;11365
840959;11312
840967;11448
840975;11598
840983;11886
840991;12219
841000;12726
841008;13158
841016;13642
841024;13934
841032;14302
841041;14364
841049;14509
841057;14529
841068;14678
841076;14694
841085;14634
841093;14528
841101;14509
841109;14407
841117;14369
841126;14282
841134;14283
841142;14198
841150;14197
841158;14165
841167;14202
841175;14131
841183;14242
841191;14238
841199;14279
841208;14204
841216;14262
841224;14184
841232;14191
841240;14102
841249;14144
841257;14069
841265;14074
841273;14024
841281;14031
841289;13947
841298;13990
841306;13949
841314;13894
841322;13843
841330;13725
841339;13506
841347;13377
841355;13283
841366;13393
841374;13433
841383;13425
841391;13417
841399;13604
841407;13623
841415;13698
841424;13637
841432;13689
841440;13639
841448;13639
841456;13489
841465;13422
841473;13599
841481;13453
841489;11147
841497;7512
841506;5683
841514;9959
841522;15547
841530;15719
841538;14980
841546;14423
841555;14130
841563;13841
841571;13628
841579;13561
841587;13433
841596;13345
841604;13281
841612;13256
841620;13240
841628;13181
841637;13095
841645;13026
841653;12953
841661;12847
841672;12709
841681;12546
841689;12288
841697;12023
841705;11802
841713;11730
841722;11713
841730;11820
841738;11927
841746;12171
841754;12519
841763;12991
841771;13466
841779;13845
841787;14108
841795;14317
841804;14429
841812;14486
841820;14508
841828;14515
841836;14504
841844;14452
841853;14408
841861;14352
841869;14361
841877;14294
841885;14223
841894;14107
841902;14039
841910;13919
841918;13853
841926;13814
841935;13838
841943;13810
841951;13836
841959;13816
841967;13842
841979;13874
841987;13921
841995;13903
842003;13909
842011;13900
842020;13908
842028;13896
842036;13887
842044;13822
842052;13835
842061;13838
842069;13893
842077;13852
842085;13853
842093;13845
842102;13748
842110;13560
842118;13565
842126;13534
842134;13629
842142;13590
842151;13640
842159;13522
842167;13569
842175;13646
842183;13775
842192;13716
842200;13762
842208;13709
842216;13746
842224;13780
842233;13814
842241;14175
842249;13685
842257;10917
842265;7318
842276;7317
842284;14560
842292;16228
842300;15601
842308;14724
842317;14331
842325;13964
842333;13716
842342;13544
842350;13548
842359;13335
842367;13290
842375;13176
842383;13114
842391;12955
842399;12999
842408;12833
842416;12754
842424;12494
842432;12379
842440;12164
842449;11992
842457;11653
842465;11632
842473;11451
842481;11449
842490;11473
842498;11664
842506;11753
842514;12050
842522;12397
842531;12897
842539;13322
842547;13780
842555;14012
842563;14282
842572;14367
842582;14555
842590;14533
842598;14588
842606;14524
842615;14658
842623;14478
842631;14480
842639;14206
842647;14228
842655;14101
842664;14106
842672;14053
842680;14004
842688;13928
842696;13951
842705;13931
842713;14006
842721;14018
842729;14025
842737;13983
842746;13962
842754;13904
842762;13827
842770;13830
842778;13739
842787;13828
842795;13764
842803;13858
842811;13786
842819;13902
842828;13808
842836;13861
842844;13573
842852;13472
842860;13159
842868;13274
842880;13204
842888;13208
842896;13152
842904;13266
842913;13281
842921;13331
842929;13368
842937;13445
842945;13369
842953;13452
842962;13384
842970;13404
842978;13332
842986;13534
842994;13838
843003;12119
843011;7965
843019;5431
843027;8189
843035;15540
843044;15936
843052;15230
843060;14394
843068;14348
843076;13934
843085;13803
843093;13483
843101;13560
843109;13338
843117;13377
843126;13145
843134;13241
843142;13035
843150;13130
843158;12875
843166;12902
843175;12590
843186;12445
843194;12227
843202;12093
843210;11773
843219;11696
843227;11475
843235;11603
843243;11591
843251;11833
843260;11894
843268;12420
843276;12741
843284;13311
843292;13634
843301;14153
843309;14296
843317;14620
843325;14530
843333;14709
843342;14612
843350;14785
843358;14567
843366;14692
843374;14531
843383;14667
843391;14402
843399;14489
843407;14301
843415;14440
843423;14279
843432;14391
843440;14213
843448;14346
843456;14209
843464;14346
843473;14194
843481;14260
843492;14193
843500;14353
843508;14150
843517;14341
843525;14216
843533;14370
843541;14171
843549;14341
843558;14113
843566;14098
843574;13764
843582;13787
843590;13570
843599;13740
843607;13583
843615;13719
843623;13646
843631;13908
843640;13846
843648;13998
843656;13842
843664;13901
843672;13803
843681;13908
843689;13743
843697;13734
843705;14093
843713;12954
843721;9509
843730;7387
843738;8369
843746;15497
843754;17108
843762;16063
843771;15117
843779;14416
843787;14157
843798;13900
843806;13595
843815;13590
843823;13342
843831;13365
843839;13217
843847;13228
843856;12986
843864;12917
843872;12718
843880;12667
843888;12466
843897;12393
843905;12124
843913;11942
843921;11633
843929;11391
843938;11287
843946;11289
843954;11419
843962;11519
843970;11754
843978;11959
843987;12456
843995;12831
844003;13273
844011;13610
844019;13971
844028;14028
844036;14248
844044;14233
844052;14371
844060;14261
844069;14360
844077;14142
844085;14257
844096;14165
844104;14135
844113;14094
844121;14074
844129;14040
844137;14057
844145;14015
844154;14044
844162;13974
844170;14037
844178;13931
844186;14050
844195;13909
844203;13905
844211;13785
844219;13961
844227;13852
844236;14033
844244;13848
844252;13876
844260;13637
844268;13690
844276;13477
844285;13587
844293;13446
844301;13695
844309;13647
844317;13938
844326;13843
844334;14015
844342;13838
844350;14034
844358;13916
844367;14060
844375;13771
844383;13923
844391;14052
844402;11280
844411;8012
844419;7664
844427;13101
844435;17285
844443;16271
844452;15501
844460;14577
844468;14384
844476;13960
844484;13873
844493;13577
844501;13713
844509;13491
844517;13595
844525;13356
844534;13491
844542;13250
844550;13372
844558;13095
844566;13100
844574;12742
844583;12733
844591;12335
844599;12241
844607;11809
844615;11837
844624;11585
844632;11799
844640;11686
844648;11974
844656;12047
844665;12572
844673;12894
844681;13492
844689;13797
844699;14368
844708;14403
844716;14692
844724;14557
844732;14751
844740;14556
844749;14670
844757;14460
844765;14590
844773;14323
844781;14449
844790;14209
844798;14303
844806;14099
844814;14235
844822;14068
844830;14212
844839;14021
844847;14152
844855;14048
844863;14170
844871;13998
844880;14096
844889;14000
844897;14109
844905;14016
844913;14057
844922;13947
844930;14015
844938;13932
844946;13946
844954;13882
844963;13910
844971;13857
844979;13843
844987;13805
844995;13679
845006;13499
845014;13673
845022;13522
845030;13598
845038;13446
845047;13602
845055;13499
845063;13618
845071;13591
845079;13782
845087;13692
845096;13772
845104;13639
845112;13635
845120;13558
845128;13942
845137;12699
845145;9088
845153;5533
845161;6525
845169;13488
845178;15680
845186;15236
845194;14752
845202;14567
845210;14158
845219;14048
845227;13874
845235;13844
845243;13740
845251;13759
845260;13626
845268;13659
845276;13498
845284;13531
845292;13335
845300;13365
845312;13214
845320;13020
845328;12852
845336;12604
845345;12383
845353;12147
845361;12003
845369;11967
845377;12003
845385;12126
845394;12270
845402;12562
845410;12903
845418;13419
845426;13740
845435;14122
845443;14283
845451;14485
845459;14450
845467;14537
845476;14428
845484;14511
845492;14294
845500;14369
845508;14199
845517;14288
845525;14060
845533;14144
845541;13935
845549;14068
845558;13887
845566;14019
845574;13843
845582;14012
845590;13790
845598;13920
845610;13848
845618;13929
845626;13768
845634;13824
845642;13692
845651;13792
845659;13628
845667;13729
845675;13573
845683;13730
845692;13544
845700;13693
845708;13477
845716;13546
845724;13251
845733;13315
845741;13135
845749;13274
845757;13126
845765;13282
845774;13147
845782;13431
845790;13332
845798;13527
845806;13390
845815;13566
845823;13422
845831;13616
845839;13390
845847;13400
845855;13742
845864;12996
845872;9662
845880;5962
845888;6014
845896;12846
845905;15662
845916;15204
845924;14557
845932;14462
845940;13962
845949;13976
845957;13719
845965;13775
845973;13553
845981;13687
845990;13464
845998;13589
846006;13340
846014;13453
846022;13202
846031;13238
846039;12933
846047;12876
846055;12518
846063;12451
846072;12072
846080;11991
846088;11689
846096;11747
846104;11670
846113;11905
846121;11972
846129;12369
846137;12722
846145;13270
846153;13618
846162;14032
846170;14230
846178;14432
846186;14441
846194;14503
846203;14500
846211;14509
846222;14432
846230;14561
846238;14353
846247;14426
846255;14218
846263;14289
846271;14115
846279;14168
846288;14008
846296;14056
846304;13956
846312;14041
846320;13928
846329;13986
846337;13903
846345;13932
846353;13848
846361;13895
846370;13847
846378;13823
846386;13775
846394;13789
846402;13756
846410;13731
846419;13768
846427;13757
846435;13711
846443;13657
846451;13661
846460;13594
846468;13644
846476;13564
846484;13616
846492;13577
846501;13653
846509;13462
846520;13369
846528;13400
846536;13345
846545;13424
846553;13410
846561;13492
846569;13562
846577;13650
846586;13718
846594;13740
846602;13742
846610;13709
846618;13722
846627;13638
846635;13554
846643;13911
846651;13316
846659;10563
846668;6824
846676;6188
846684;12207
846692;15722
846700;15507
846708;14679
846717;14380
846725;14043
846733;13871
846741;13634
846749;13659
846758;13572
846766;13610
846774;13479
846782;13530
846790;13401
846799;13427
846807;13273
846815;13279
846826;13080
846834;12957
846843;12730
846851;12530
846859;12202
846867;11961
846875;11713
846884;11655
846892;11645
846900;11783
846908;11902
846916;12207
846925;12517
846933;13029
846941;13464
846949;13898
846957;14052
846966;14285
846974;14279
846982;14366
846990;14284
846998;14329
847006;14198
847015;14256
847023;14113
847031;14168
847039;13996
847047;14003
847056;13879
847064;13926
847072;13782
847080;13884
847088;13776
847097;13859
847105;13741
847113;13833
847121;13760
847131;13918
847140;13860
847148;13873
847156;13791
847164;13853
847172;13760
847181;13861
847189;13763
847197;13804
847205;13712
847213;13787
847222;13707
847230;13782
847238;13677
847246;13747
847254;13597
847262;13644
847271;13542
847279;13642
847287;13557
847295;13619
847303;13530
847312;13509
847320;13311
847328;13281
847336;13217
847344;13325
847354;13273
847362;13457
847370;13460
847378;13594
847386;13663
847395;13767
847403;13727
847411;13757
847419;13681
847429;13697
847438;13556
847446;14025
847454;13267
847462;10640
847470;6835
847479;6278
847487;12398
847495;16037
847503;15568
847511;14895
847519;14418
847528;14249
847536;13882
847544;13784
847552;13636
847560;13641
847569;13510
847577;13521
847585;13499
847593;13494
847601;13386
847610;13341
847618;13218
847626;13160
847634;13008
847642;12791
847651;12575
847659;12338
847667;12112
847675;11901
847683;11730
847692;11750
847700;11837
847708;11970
847716;12220
847724;12542
847736;13177
847744;13664
847752;13940
847760;14296
847768;14432
847777;14579
847785;14623
847793;14689
847801;14603
847809;14554
847817;14449
847826;14437
847834;14351
847842;14266
847850;14195
847858;14132
847867;14081
847875;14051
847883;13988
847891;13926
847899;13885
847908;13827
847916;13782
847924;13745
847932;13746
847940;13718
847949;13767
847957;13738
847965;13757
847973;13697
847981;13725
847990;13664
847998;13678
848006;13588
848014;13593
848022;13502
848034;13591
848042;13662
848050;13653
848058;13657
848066;13698
848074;13667
848083;13656
848091;13536
848099;13361
848107;13253
848115;13278
848124;13237
848132;13237
848140;13248
848148;13335
848156;13390
848165;13540
848173;13580
848181;13641
848189;13558
848197;13577
848206;13482
848214;13469
848222;13482
848230;13799
848238;11834
848247;7929
848255;5592
848263;9317
848271;16059
848279;16153
848287;15180
848296;14507
848304;14223
848312;13991
848320;13676
848328;13665
848340;13568
848348;13553
848356;13440
848364;13424
848372;13263
848381;13251
848389;13098
848397;13018
848405;12841
848413;12766
848422;12568
848430;12410
848438;12100
848446;11864
848454;11643
848463;11627
848471;11558
848479;11698
848487;11763
848495;12009
848504;12275
848512;12783
848520;13198
848528;13691
848536;13922
848545;14217
848553;14304
848561;14503
848569;14477
848577;14549
848585;14496
848594;14511
848602;14393
848610;14363
848618;14251
848626;14269
848635;14152
848646;14190
848654;14119
848662;14118
848670;14016
848679;14050
848687;13954
848695;13995
848703;13880
848711;13975
848720;13931
848728;14017
848736;13930
848744;13993
848752;13931
848761;13963
848769;13896
848777;13918
848785;13817
848793;13831
848802;13735
848810;13769
848818;13772
848826;13797
848834;13765
848842;13740
848851;13537
848859;13476
848867;13373
848875;13338
848883;13261
848892;13233
848900;13240
848908;13337
848916;13451
848924;13532
848933;13577
848944;13648
848952;13593
848960;13621
848968;13431
848977;13537
848985;13796
848993;11980
849001;7862
849009;5458
849018;8804
849026;15992
849034;16090
849042;15259
849050;14456
849059;14248
849067;13964
849075;13714
849083;13582
849091;13532
849100;13496
849108;13433
849116;13386
849124;13342
849132;13255
849140;13190
849149;13116
849157;12961
849165;12837
849173;12647
849181;12532
849190;12280
849198;12051
849206;11822
849214;11709
849222;11678
849231;11771
849239;11830
849250;12173
849258;12551
849266;12942
849275;13377
849283;13790
849291;14117
849299;14392
849307;14573
849316;14652
849324;14674
849332;14662
849340;14634
849348;14600
849357;14499
849365;14463
849373;14380
849381;14352
849389;14217
849398;14201
849406;14119
849414;14138
849422;14081
849430;14168
849438;14138
849447;14214
849455;14121
849463;14178
849471;14113
849479;14193
849488;14122
849496;14206
849504;14063
849512;14091
849520;13975
849529;14065
849537;14009
849545;14029
849556;13821
849564;13724
849573;13592
849581;13578
849589;13512
849597;13574
849605;13591
849614;13748
849622;13801
849630;13939
849638;13868
849646;13919
849655;13869
849663;13910
849671;13808
849679;13790
849687;13932
849695;13879
849704;11360
849712;7599
849720;6169
849728;11611
849736;16777
849745;16151
849753;15199
849761;14598
849769;14313
849777;14197
849786;13927
849794;13922
849802;13840
849810;13853
849818;13705
849827;13699
849835;13543
849843;13485
849853;13316
849861;13273
849870;13049
849878;12918
849886;12623
849894;12430
849902;12083
849911;11896
849919;11661
849927;11643
849935;11579
849943;11732
849951;11803
849960;12132
849968;12464
849976;13008
849984;13406
849992;13866
850001;14092
850009;14331
850017;14437
850025;14569
850033;14586
850043;14715
850051;14654
850059;14682
850067;14577
850075;14533
850084;14439
850092;14353
850100;14224
850108;14187
850116;14107
850125;14121
850133;14078
850141;14086
850149;14073
850159;14173
850168;14201
850176;14200
850184;14109
850192;14079
850200;13955
850209;13806
850217;13620
850225;13507
850233;13439
850241;13480
850249;13515
850258;13649
850266;13702
850274;13788
850282;13817
850290;13809
850299;13726
850307;13686
850315;13655
850323;13613
850331;13533
850340;13864
850348;13508
850356;11046
850364;7472
850372;6144
850381;12168
850389;16773
850397;16095
850405;15260
850413;14605
850422;14318
850430;14036
850438;13766
850446;13680
850454;13615
850466;13611
850474;13595
850482;13496
850490;13469
850498;13343
850506;13221
850515;13046
850523;12872
850531;12639
850539;12411
850547;12125
850556;11810
850564;11525
850572;11283
850580;11185
850588;11222
850597;11320
850605;11469
850613;11770
850621;12209
850629;12731
850638;13175
850646;13585
850654;13850
850662;14097
850670;14197
850679;14309
850687;14307
850695;14388
850703;14387
850711;14457
850719;14372
850728;14455
850736;14376
850744;14411
850752;14297
850764;14346
850772;14319
850780;14279
850788;14197
850796;14159
850804;14120
850813;14187
850821;14107
850829;14118
850837;14033
850845;14082
850854;14034
850862;14095
850870;14005
850878;13945
850886;13784
850895;13646
850903;13462
850911;13431
850919;13406
850927;13442
850936;13413
850944;13542
850952;13596
850960;13740
850968;13736
850977;13795
850985;13712
850993;13730
851001;13651
851009;13667
851017;13559
851026;14125
851034;12815
851042;9275
851050;5774
851058;6761
851070;15739
851078;16113
851086;15296
851094;14644
851102;14341
851111;14106
851119;13843
851127;13770
851135;13642
851143;13628
851152;13511
851160;13505
851168;13443
851176;13478
851184;13348
851193;13301
851201;13137
851209;13047
851217;12802
851225;12645
851234;12367
851242;12129
851250;11824
851258;11693
851266;11543
851274;11596
851283;11649
851291;11853
851299;12150
851307;12684
851315;13144
851324;13640
851332;13966
851340;14224
851348;14365
851356;14508
851365;14569
851376;14662
851384;14642
851392;14651
851400;14536
851409;14536
851417;14401
851425;14362
851433;14293
851441;14203
851450;14050
851458;14018
851466;13946
851474;13964
851482;13844
851491;13814
851499;13780
851507;13816
851515;13763
851523;13816
851532;13855
851540;13883
851548;13865
851556;13786
851564;13629
851572;13542
851581;13514
851589;13621
851597;13687
851605;13751
851613;13855
851622;13939
851630;14067
851638;14084
851646;14117
851654;14055
851663;13996
851674;13953
851682;13879
851690;13827
851698;14361
851707;13127
851715;9372
851723;5703
851731;6449
851739;14179
851748;16304
851756;15745
851764;14977
851772;14634
851780;14349
851789;14042
851797;13884
851805;13781
851813;13700
851821;13589
851830;13538
851838;13435
851846;13428
851854;13348
851862;13264
851870;13115
851879;13003
851887;12824
851895;12644
851903;12402
851911;12192
851920;11908
851928;11784
851936;11649
851944;11711
851952;11740
851961;11943
851969;12173
851980;12867
851988;13384
851996;13812
852005;14108
852013;14357
852021;14427
852029;14488
852037;14442
852046;14426
852054;14358
852062;14337
852070;14195
852078;14160
852087;14049
852095;14024
852103;13951
852111;13958
852119;13877
852127;13898
852136;13820
852144;13797
852152;13713
852160;13759
852168;13687
852177;13780
852185;13759
852193;13859
852201;13814
852209;13939
852218;13939
852226;13988
852234;13926
852242;13915
852250;13721
852259;13646
852267;13573
852275;13621
852286;13627
852294;13735
852303;13721
852311;13842
852319;13863
852327;13899
852335;13793
852344;13786
852352;13690
852360;13678
852368;13601
852376;13590
852385;13637
852393;13966
852401;12047
852409;7966
852417;5143
852425;8229
852434;15396
852442;16081
852450;15340
852458;14779
852466;14489
852475;14208
852483;13930
852491;13877
852499;13771
852507;13713
852516;13592
852524;13552
852532;13440
852540;13401
852548;13272
852557;13179
852565;13076
852573;12970
852583;12803
852591;12656
852600;12312
852608;12057
852616;11804
852624;11802
852632;11760
852641;11793
852649;11858
852657;12164
852665;12484
852673;13009
852681;13455
852690;13867
852698;14160
852706;14372
852714;14462
852722;14514
852731;14457
852739;14454
852747;14411
852755;14384
852763;14288
852772;14276
852780;14220
852788;14187
852796;14115
852805;14039
852814;14007
852822;14014
852830;14013
852838;13964
852846;13889
852855;13834
852863;13874
852871;13924
852879;13933
852889;14028
852898;14072
852906;14040
852914;13966
852922;13951
852930;13886
852938;13855
852947;13792
852955;13749
852963;13585
852971;13491
852979;13476
852988;13522
852996;13549
853004;13526
853012;13567
853020;13620
853029;13702
853037;13753
853045;13777
853053;13760
853061;13789
853070;13764
853078;13707
853086;13639
853094;13551
853102;14063
853111;13362
853119;10190
853127;6226
853135;5713
853143;12569
853151;16192
853160;15859
853168;14951
853176;14559
853184;14263
853196;13923
853204;13858
853212;13781
853220;13652
853228;13558
853236;13484
853245;13457
853253;13400
853261;13313
853269;13196
853277;13144
853286;13017
853294;12884
853302;12697
853310;12501
853318;12205
853327;12013
853335;11773
853343;11748
853351;11713
853359;11794
853368;11849
853376;12155
853384;12467
853392;12989
853400;13358
853409;13774
853417;14013
853425;14260
853433;14320
853441;14417
853449;14371
853458;14385
853466;14306
853474;14314
853482;14200
853494;14209
853502;14136
853510;14035
853518;13928
853526;13943
853534;13836
853543;13819
853551;13737
853559;13744
853567;13679
853575;13687
853584;13637
853592;13698
853600;13633
853608;13651
853616;13582
853625;13619
853633;13626
853641;13718
853649;13694
853657;13738
853666;13697
853674;13768
853682;13723
853690;13666
853698;13494
853706;13459
853715;13429
853723;13481
853731;13444
853739;13520
853747;13498
853756;13591
853764;13618
853772;13731
853780;13744
853788;13773
853800;13785
853808;13839
853816;13690
853824;13664
853832;13583
853841;14139
853849;12720
853857;8861
853865;5483
853873;6881
853882;14455
853890;16148
853898;15436
853906;14635
853914;14305
853923;14078
853931;13779
853939;13672
853947;13538
853955;13475
853964;13390
853972;13337
853980;13231
853988;13139
853996;13029
854004;12925
854013;12793
854021;12682
854029;12486
854037;12273
854045;12054
854054;11852
854062;11610
854070;11447
854078;11403
854086;11446
854095;11584
854106;11932
854114;12227
854122;12641
854130;13081
854139;13570
854147;13928
854155;14208
854163;14347
854171;14473
854180;14496
854188;14480
854196;14481
854204;14448
854212;14380
854221;14311
854229;14281
854237;14250
854245;14200
854253;14121
854262;14043
854270;13972
854278;13967
854286;13909
854294;13874
854302;13876
854311;13867
854319;13858
854327;13892
854335;13894
854343;13914
854352;13847
854360;13796
854368;13760
854376;13792
854384;13742
854393;13776
854404;13737
854412;13608
854420;13480
854428;13458
854437;13483
854445;13500
854453;13526
854461;13599
854469;13665
854478;13775
854486;13866
854494;13893
854502;13852
854510;13890
854519;13888
854527;13908
854535;13935
854543;13960
854551;14504
854559;13210
854568;9516
854576;6219
854584;7184
854592;14873
854600;16534
854609;15888
854617;15042
854625;14822
854633;14562
854641;14338
854650;14189
854658;14140
854666;13951
854674;13819
854682;13685
854691;13656
854699;13582
854710;13576
854718;13508
854726;13397
854735;13189
854743;13066
854751;12852
854759;12749
854767;12425
854776;12238
854784;12020
854792;11989
854800;11940
854808;12086
854817;12199
854825;12522
854833;12874
854841;13412
854849;13755
854857;14124
854866;14288
854874;14500
854882;14500
854890;14551
854898;14522
854907;14579
854915;14556
854923;14589
854931;14497
854939;14493
854948;14367
854956;14354
854964;14303
854972;14282
854980;14229
854989;14208
854997;14096
855007;14147
855015;14064
855023;14064
855032;14023
855040;14039
855048;13955
855056;14001
855064;13970
855073;13982
855081;13919
855089;13808
855097;13654
855105;13584
855113;13556
855122;13580
855130;13639
855138;13806
855146;13854
855154;13996
855163;14071
855172;14066
855180;14012
855188;14051
855196;13972
855205;13939
855213;13879
855221;13837
855229;14063
855237;13993
855246;11721
855254;7863
855262;6242
855270;11038
855278;16668
855287;16343
855295;15528
855303;14763
855313;14407
855321;14170
855330;13931
855338;13830
855346;13759
855354;13720
855362;13589
855370;13532
855379;13387
855387;13334
855395;13179
855403;12995
855411;12796
855420;12605
855428;12352
855436;12107
855444;11791
855452;11550
855461;11381
855469;11285
855477;11306
855485;11383
855493;11605
855502;11920
855510;12368
855518;12854
855526;13342
855534;13718
855543;14036
855551;14179
855559;14324
855567;14370
855575;14385
855583;14347
855592;14365
855600;14319
855608;14309
855619;14288
855628;14323
855636;14241
855644;14135
855652;14009
855660;13952
855668;13904
855677;13874
855685;13808
855693;13744
855701;13734
855709;13765
855718;13714
855726;13712
855734;13710
855742;13728
855750;13725
855759;13823
855767;13808
855775;13897
855783;13937
855791;13922
855800;13802
855808;13696
855816;13589
855824;13595
855832;13608
855841;13647
855849;13598
855857;13692
855865;13734
855873;13884
855881;13848
855890;13897
855898;13811
855906;13844
855917;13780
855926;13745
855934;13691
855942;14129
855950;12480
855958;8602
855966;5736
855975;7876
855983;15296
855991;16257
855999;15478
856007;14650
856016;14254
856024;14016
856032;13684
856040;13594
856048;13428
856057;13404
856065;13316
856073;13262
856081;13150
856089;13177
856098;13054
856106;13011
856114;12840
856122;12700
856130;12443
856138;12299
856147;12064
856155;11861
856163;11591
856171;11520
856179;11506
856188;11599
856196;11684
856204;11927
856212;12215
856223;12933
856232;13436
856240;13867
856248;14111
856256;14379
856264;14445
856273;14603
856281;14574
856289;14655
856297;14636
856305;14635
856314;14522
856322;14516
856330;14447
856338;14404
856346;14281
856355;14255
856363;14188
856371;14196
856379;14084
856387;14070
856396;14022
856404;13994
856412;13936
856420;13932
856428;13916
856436;13958
856445;13927
856453;13940
856461;13960
856469;13965
856477;13875
856486;13838
856494;13743
856502;13517
856510;13332
856518;13303
856530;13380
856538;13490
856546;13457
856554;13548
856562;13567
856571;13702
856579;13691
856587;13734
856595;13680
856603;13668
856612;13634
856620;13549
856628;13435
856636;13464
856644;13819
856653;12131
856661;8132
856669;5325
856677;7751
856685;15291
856694;16147
856702;15426
856710;14669
856718;14383
856726;14127
856734;13828
856743;13692
856751;13591
856759;13539
856767;13467
856775;13474
856784;13376
856792;13337
856800;13227
856808;13164
856816;13021
856828;12875
856836;12739
856844;12498
856852;12258
856860;12049
856869;11874
856877;11776
856885;11770
856893;11848
856901;12004
856910;12239
856918;12539
856926;12935
856934;13369
856942;13766
856951;14069
856959;14304
856967;14416
856975;14498
856983;14483
856991;14447
857000;14386
857008;14376
857016;14278
857024;14243
857032;14123
857041;14110
857049;14062
857057;14083
857065;14050
857073;14108
857082;14043
857090;14085
857098;14037
857106;14082
857114;13986
857123;14015
857133;13958
857141;13985
857149;13911
857157;13931
857166;13940
857174;13977
857182;13967
857190;13963
857198;13764
857207;13579
857215;13483
857223;13549
857231;13506
857239;13595
857247;13587
857256;13726
857264;13777
857273;13919
857281;13933
857289;13984
857298;13879
857306;13905
857314;13870
857322;13894
857330;13760
857339;14343
857347;13531
857355;10337
857363;6415
857371;6129
857380;13124
857388;16576
857396;16011
857404;15191
857412;14702
857421;14450
857429;14045
857439;13888
857447;13751
857455;13644
857464;13467
857472;13399
857480;13252
857488;13203
857496;13048
857505;12947
857513;12803
857521;12705
857529;12462
857537;12267
857545;11992
857554;11786
857562;11552
857570;11467
857578;11419
857586;11546
857595;11677
857603;11933
857611;12223
857619;12734
857627;13213
857636;13675
857644;14027
857652;14336
857660;14492
857668;14633
857677;14652
857685;14653
857693;14553
857701;14492
857709;14374
857718;14311
857726;14278
857737;14315
857745;14269
857753;14251
857762;14159
857770;14121
857778;14071
857786;14053
857794;14025
857802;14051
857811;13981
857819;13977
857827;13939
857835;13966
857843;13905
857852;13866
857860;13774
857868;13616
857876;13466
857884;13392
857893;13434
857901;13470
857909;13527
857917;13641
857925;13771
857934;13871
857942;13906
857950;13877
857958;13878
857966;13868
857975;13844
857983;13748
857991;13708
857999;13622
858007;14120
858015;13597
858024;10855
858032;7173
858043;7709
858051;15429
858060;16775
858068;16003
858076;15106
858084;14649
858092;14414
858100;14074
858109;13940
858117;13871
858125;13824
858133;13705
858141;13647
858150;13593
858158;13546
858166;13413
858174;13307
858182;13195
858191;13084
858199;12863
858207;12663
858215;12387
858223;12122
858232;11858
858240;11709
858248;11578
858256;11662
858264;11715
858273;11943
858281;12243
858289;12735
858297;13186
858305;13730
858313;14109
858322;14434
858330;14559
858338;14665
858349;14684
858358;14707
858366;14589
858374;14516
858382;14381
858390;14318
858398;14204
858407;14141
858415;13999
858423;13952
858431;13851
858439;13831
858448;13739
858456;13710
858464;13649
858472;13678
858480;13667
858489;13786
858497;13723
858505;13739
858513;13565
858521;13541
858530;13459
858538;13548
858546;13489
858554;13637
858562;13694
858570;13823
858579;13878
858587;13940
858595;13894
858603;13919
858611;13845
858620;13882
858628;13787
858636;13742
858647;13719
858655;14221
858664;13492
858672;10606
858680;6881
858688;6299
858696;13014
858705;16803
858713;16174
858721;15328
858729;14633
858737;14483
858746;14119
858754;13883
858762;13714
858770;13714
858778;13599
858787;13543
858795;13427
858803;13353
858811;13200
858819;13146
858828;12973
858836;12856
858844;12650
858852;12522
858860;12285
858868;12099
858877;11870
858885;11742
858893;11664
858901;11756
858909;11792
858918;11948
858926;12158
858934;12571
858942;13020
858953;13703
858962;13984
858970;14231
858978;14341
858986;14430
858994;14430
859003;14480
859011;14438
859019;14481
859027;14405
859035;14363
859044;14227
859052;14177
859060;14046
859068;13987
859076;13886
859085;13899
859093;13822
859101;13836
859109;13844
859117;13853
859126;13888
859134;13926
859142;13917
859150;13951
859158;13915
859166;13895
859175;13759
859183;13602
859191;13475
859199;13474
859207;13517
859216;13535
859224;13581
859232;13648
859240;13814
859251;13932
859260;13926
859268;13958
859276;13939
859284;13946
859292;13855
859301;13765
859309;13646
859317;14136
859325;13253
859333;9989
859342;5971
859350;5591
859358;12721
859366;15936
859374;15371
859383;14493
859391;14051
859399;13754
859407;13442
859415;13267
859423;13170
859432;13058
859440;13043
859448;12969
859456;13003
859464;12995
859473;12997
859481;12933
859489;12926
859497;12835
859505;12793
859514;12552
859522;12347
859530;12081
859538;11930
859546;11713
859558;11743
859566;11755
859574;11865
859582;11990
859590;12260
859599;12656
859607;13160
859615;13555
859623;13887
859631;14105
859640;14325
859648;14410
859656;14447
859664;14387
859672;14398
859681;14357
859689;14348
859697;14246
859705;14300
859713;14263
859721;14287
859730;14182
859738;14229
859746;14196
859754;14215
859762;14114
859771;14144
859779;14086
859787;14130
859795;14084
859803;14090
859812;13968
859820;13887
859828;13670
859836;13602
859844;13568
859853;13613
859872;14194
859880;14316
859888;14421
859897;14393
859905;14387
859913;14312
859921;14357
859929;14301
859938;14275
859946;14157
859954;14129
859962;14140
859970;14438
859978;12574
859987;8471
859995;5463
860003;8414
860011;15710
860019;16297
860028;15457
860036;14782
860044;14524
860052;14218
860060;13951
860069;13782
860077;13640
860085;13595
860093;13509
860101;13509
860110;13466
860118;13383
860126;13205
860134;13060
860142;12877
860151;12782
860159;12600
860167;12437
860178;12193
860186;12008
860195;11775
860203;11700
860211;11646
860219;11792
860227;11867
860236;12168
860244;12516
860252;12998
860260;13401
860268;13791
860276;14015
860285;14249
860293;14336
860301;14411
860309;14403
860317;14427
860326;14403
860334;14380
860342;14291
860350;14264
860358;14243
860367;14168
860375;14081
860383;14003
860391;13925
860399;13848
860408;13842
860416;13839
860424;13836
860432;13858
860440;13926
860449;13877
860457;13839
860465;13791
860475;13658
860483;13611
860492;13567
860500;13615
860508;13666
860516;13742
860524;13788
860532;13875
860541;13921
860549;13963
860557;13977
860565;13952
860573;13954
860582;13907
860590;13818
860598;13707
860606;13664
860614;14102
860623;12629
860631;8741
860639;5596
860648;7563
860656;15302
860665;16239
860673;15495
860681;14722
860689;14482
860697;14236
860706;14043
860714;13894
860722;13800
860730;13666
860738;13643
860746;13571
860755;13539
860763;13450
860771;13457
860781;13405
860790;13374
860798;13211
860806;12980
860814;12740
860822;12505
860830;12277
860839;12190
860847;12063
860855;12039
860863;12073
860871;12230
860880;12403
860888;12766
860896;13167
860904;13635
860912;13987
860921;14307
860929;14465
860937;14703
860945;14737
860953;14832
860962;14762
860970;14757
860978;14612
860986;14601
860994;14470
861002;14420
861011;14366
861019;14332
861027;14246
861035;14240
861043;14125
861052;14163
861060;14172
861068;14202
861076;14162
861087;14135
861096;14118
861104;14035
861112;13788
861120;13629
861128;13501
861137;13491
861145;13472
861153;13493
861161;13458
861169;13717
861178;13715
861186;13772
861194;13684
861202;13683
861210;13564
861219;13530
861227;13461
861235;13453
861243;13392
861251;14023
861260;13049
861268;9895
861276;6642
861284;6866
861292;14246
861300;16760
861309;16014
861317;15129
861325;14414
861333;14261
861341;13944
861350;13727
861358;13499
861366;13444
861374;13321
861385;13318
861394;13353
861402;13318
861410;13126
861418;13046
861426;12839
861435;12736
861443;12522
861451;12401
861459;12119
861467;11885
861476;11585
861484;11530
861492;11490
861500;11562
861508;11606
861517;11928
861525;12322
861533;12757
861541;13226
861549;13644
861558;13927
861566;14174
861574;14273
861582;14365
861590;14397
861598;14383
861607;14433
861615;14429
861623;14370
861631;14341
861639;14265
861648;14249
861656;14186
861664;14062
861672;14012
861680;13974
861692;13969
861700;14016
861708;13997
861716;14135
861724;14128
861733;14066
861741;14024
861749;13888
861757;13753
861765;13753
861774;13697
861782;13740
861790;13743
861798;13864
861806;13939
861815;14063
861823;14062
861831;14048
861839;14097
861847;14104
861855;14052
861864;13956
861872;13873
861880;13811
861888;14182
861896;13882
861905;11425
861913;7296
861921;5711
861929;11291
861937;16578
861946;16282
861954;15470
861962;14842
861970;14552
861978;14194
861987;13994
861998;13819
862006;13736
862014;13632
862022;13485
862031;13367
862039;13230
862047;13117
862055;13024
862063;12878
862072;12775
862080;12611
862088;12428
862096;12217
862104;12042
862113;11811
862121;11698
862129;11632
862137;11677
862145;11725
862153;11919
862162;12219
862170;12738
862178;13182
862186;13634
862194;13971
862203;14329
862211;14420
862219;14535
862227;14548
862235;14576
862244;14466
862252;14527
862260;14489
862268;14487
862276;14328
862285;14317
862296;14245
862304;14194
862312;14102
862320;14081
862329;14027
862337;14019
862345;13977
862353;14038
862361;14003
862370;14022
862378;13944
862386;13980
862394;13773
862402;13649
862410;13516
862419;13523
862427;13463
862435;13547
862443;13551
862451;13662
862460;13738
862468;13950
862476;13952
862484;13988
862492;14018
862501;14036
862509;13977
862517;13998
862525;13924
862533;13957
862542;14303
862550;12810
862558;8744
862566;5486
862574;7762
862583;15416
862591;16391
862602;15448
862610;14936
862618;14703
862627;14313
862635;14113
862643;13981
862651;13914
862659;13736
862668;13662
862676;13491
862684;13514
862692;13488
862700;13387
862708;13186
862717;13080
862725;12896
862733;12756
862741;12521
862749;12243
862758;11957
862766;11829
862774;11697
862782;11770
862790;11765
862799;11896
862807;12068
862815;12484
862823;12954
862831;13483
862840;13861
862848;14195
862856;14374
862864;14484
862872;14564
862881;14609
862889;14564
862897;14506
862908;14422
862916;14416
862925;14252
862933;14177
862941;14000
862949;13966
862957;13858
862966;13846
862974;13762
862982;13702
862990;13650
862998;13694
863006;13641
863015;13590
863023;13553
863031;13566
863039;13559
863047;13474
863056;13367
863064;13324
863072;13382
863080;13454
863088;13533
863097;13648
863105;13767
863113;13894
863121;13990
863129;13995
863138;13935
863146;13892
863154;13930
863162;13929
863170;13989
863178;13929
863187;13917
863195;14396
863206;11900
863214;7764
863223;5592
863231;10280
863239;16316
863247;16224
863255;15295
863263;14616
863272;14446
863280;14127
863288;13905
863296;13778
863304;13730
863313;13631
863321;13501
863329;13381
863337;13322
863345;13222
863354;13116
863362;12997
863370;12868
863378;12711
863386;12556
863395;12334
863403;12127
863411;11838
863419;11655
863427;11555
863436;11598
863444;11598
863452;11797
863460;12024
863468;12388
863476;12748
863485;13211
863493;13586
863501;13962
863512;14260
863521;14422
863529;14433
863537;14438
863545;14423
863553;14403
863561;14343
863570;14385
863578;14334
863586;14283
863594;14224
863602;14207
863611;14148
863619;14190
863627;14093
863635;14062
863643;13989
863652;13987
863660;13921
863668;13949
863676;13843
863684;13839
863693;13824
863701;13868
863709;13878
863717;13880
863725;13693
863734;13507
863742;13369
863750;13402
863758;13449
863766;13543
863774;13525
863783;13654
863791;13798
863799;13994
863809;14037
863817;14129
863826;14074
863834;14062
863842;13637
863850;12987
863858;12423
863867;12835
863875;12280
863883;10348
863891;6660
863899;6211
863908;13066
863916;16612
863924;16000
863932;15083
863940;14551
863949;14324
863957;13963
863965;13849
863973;13772
863981;13726
863990;13581
863998;13550
864006;13472
864014;13442
864022;13324
864030;13264
864039;13159
864047;13089
864055;12905
864064;12669
864072;12535
864081;12387
864089;12145
864097;11937
864105;11821
864115;11897
864124;12056
864132;12234
864140;12436
864148;12845
864156;13223
864165;13656
864173;13947
864181;14219
864189;14380
864197;14495
864206;14534
864214;14526
864222;14480
864230;14429
864238;14368
864247;14299
864255;14239
864263;14205
864271;14128
864279;14094
864287;14085
864296;14072
864304;14037
864312;14028
864320;13978
864328;14017
864337;14056
864345;14066
864353;13996
864361;13971
864369;13863
864378;13720
864386;13649
864394;13623
864402;13615
864410;13607
864422;13786
864430;14002
864438;14070
864446;14063
864454;14029
864463;14039
864471;14026
864479;13986
864487;13960
864495;13914
864504;13851
864512;13798
864520;14130
864528;12427
864536;8630
864545;6319
864553;9016
864561;16268
864569;16625
864577;15706
864585;14839
864594;14456
864602;14229
864610;13906
864618;13776
864626;13661
864635;13599
864643;13500
864651;13445
864659;13347
864667;13343
864676;13268
864684;13202
864692;13030
864700;12931
864708;12702
864720;12486
864728;12274
864736;12039
864744;11823
864752;11725
864761;11766
864769;11878
864777;11986
864785;12246
864793;12607
864802;13079
864810;13519
864818;13916
864826;14144
864834;14381
864842;14498
864851;14596
864859;14587
864867;14602
864875;14536
864883;14563
864892;14477
864900;14349
864908;14277
864916;14235
864924;14124
864933;14162
864941;14068
864949;14077
864957;14016
864965;14052
864974;14003
864982;14086
864990;14046
864998;14043
865006;13947
865015;13826
865026;13644
865034;13598
865042;13514
865050;13566
865059;13518
865067;13629
865075;13711
865083;13859
865091;13868
865100;13941
865108;13847
865116;13816
865124;13735
865132;13764
865140;13652
865149;13601
865157;13600
865165;13708
865173;11746
865181;7843
865190;5568
865198;9310
865206;15945
865214;16109
865222;15209
865231;14434
865239;14088
865247;13859
865255;13587
865263;13500
865272;13372
865280;13357
865288;13267
865296;13237
865304;13143
865313;13117
865321;12986
865332;12900
865340;12731
865348;12573
865357;12354
865365;12202
865373;11947
865381;11775
865389;11540
865398;11540
865406;11534
865414;11663
865422;11814
865430;12104
865438;12495
865447;13023
865455;13466
865463;13837
865471;14067
865479;14257
865488;14349
865496;14440
865504;14465
865512;14455
865520;14428
865529;14446
865537;14411
865545;14342
865553;14292
865561;14263
865570;14189
865578;14073
865586;14074
865594;14071
865602;14056
865610;13985
865619;13985
865630;14173
865638;14253
865646;14311
865655;14262
865663;14205
865671;14081
865679;13906
865687;13723
865695;13632
865704;13639
865712;13656
865720;13720
865728;13792
865736;13906
865745;13983
865753;14031
865761;14061
865769;14006
865777;13988
865786;13991
865794;13929
865802;13870
865810;13710
865818;14187
865827;13460
865835;10427
865843;6310
865851;5536
865859;12170
865868;16102
865876;15687
865884;14803
865892;14277
865900;14108
865908;13784
865917;13590
865925;13390
865936;13365
865944;13337
865953;13302
865961;13203
865969;13187
865977;13117
865985;13012
865993;12911
866002;12844
866010;12656
866018;12500
866026;12259
866034;12062
866043;11899
866051;11831
866059;11789
866067;11859
866075;11952
866084;12165
866092;12429
866100;12941
866108;13342
866116;13760
866125;13996
866133;14263
866141;14371
866149;14439
866157;14434
866166;14486
866174;14407
866182;14431
866190;14379
866198;14413
866206;14329
866215;14312
866223;14255
866231;14236
866241;14189
866249;14192
866258;14074
866266;14083
866274;14031
866283;14050
866291;14017
866300;14034
866308;14052
866316;14120
866324;14001
866332;13987
866341;13837
866349;13629
866357;13539
866365;13583
866373;13602
866382;13618
866390;13550
866398;13619
866406;13681
866414;13805
866423;13797
866431;13858
866439;13761
866447;13801
866455;13739
866463;13723
866472;13628
866480;13572
866488;14049
866496;12834
866504;9178
866513;5691
866521;6645
866529;14297
866539;16150
866547;15447
866556;14738
866564;14566
866572;14239
866580;14000
866588;13838
866597;13784
866605;13663
866613;13623
866621;13520
866629;13456
866638;13314
866646;13266
866654;13130
866662;13054
866670;12909
866679;12801
866687;12622
866695;12429
866703;12209
866711;12027
866719;11896
866728;11951
866736;12006
866744;12114
866752;12287
866760;12621
866769;12988
866777;13394
866785;13756
866793;14063
866801;14239
866810;14368
866818;14373
866826;14335
866834;14261
866845;14311
866854;14259
866862;14236
866870;14132
866878;14142
866886;14078
866895;14014
866903;13901
866911;13883
866919;13813
866927;13831
866936;13828
866944;13836
866952;13836
866960;13822
866968;13807
866977;13832
866985;13852
866993;13881
867001;13798
867009;13621
867017;13490
867026;13473
867034;13532
867042;13557
867050;13609
867058;13627
867067;13724
867075;13841
867083;13950
867091;13917
867099;13919
867108;13887
867116;13875
867124;13780
867132;13750
867140;13628
867152;14128
867160;13669
867168;10747
867176;6744
867184;5857
867193;12434
867201;16493
867209;15954
867217;14948
867225;14367
867234;14172
867242;13831
867250;13703
867258;13607
867266;13560
867274;13487
867283;13457
867291;13421
867299;13402
867307;13303
867315;13234
867324;13157
867332;13071
867340;12833
867348;12656
867356;12393
867365;12177
867373;11874
867381;11688
867389;11549
867397;11590
867406;11633
867414;11863
867422;12075
867430;12517
867438;12948
867450;13663
867458;13980
867466;14219
867474;14362
867482;14456
867491;14466
867499;14478
867507;14430
867515;14452
867523;14388
867532;14375
867540;14289
867548;14339
867556;14224
867564;14242
867572;14138
867581;14096
867589;13985
867597;14026
867605;14013
867613;14060
867622;14006
867630;14046
867638;14046
867646;14152
867654;14137
867663;14183
867671;14120
867679;14091
867687;13903
867695;13743
867704;13712
867712;13800
867720;13825
867728;13928
867736;13981
867745;14122
867756;14223
867764;14302
867772;14271
867780;14278
867789;14127
867797;14112
867805;14028
867813;14018
867821;13864
867830;14337
867838;13793
867846;11053
867854;7034
867862;5999
867870;12176
867879;16476
867887;15990
867895;15054
867903;14456
867911;14223
867920;13835
867928;13606
867936;13435
867944;13471
867952;13385
867961;13352
867969;13261
867977;13230
867985;13176
867993;13056
868002;12911
868010;12818
868018;12666
868026;12437
868034;12203
868042;12033
868051;11821
868062;11676
868070;11604
868078;11664
868087;11679
868095;11904
868103;12141
868111;12614
868119;13027
868127;13457
868136;13770
868144;14096
868152;14243
868160;14367
868168;14422
868177;14464
868185;14390
868193;14359
868201;14301
868209;14283
868218;14238
868226;14179
868234;14083
868242;14002
868250;13929
868259;13881
868267;13818
868275;13858
868283;13931
868291;13935
868300;13981
868308;13976
868316;13844
868324;13656
868332;13533
868340;13384
868349;13385
868360;13487
868368;13579
868376;13631
868385;13702
868393;13833
868401;13859
868409;13893
868417;13910
868425;13949
868434;13916
868442;13873
868450;13814
868458;13773
868466;13684
868475;14056
868483;13168
868491;10084
868499;6882
868507;6907
868516;14259
868524;16869
868532;16065
868540;15106
868548;14461
868557;14194
868565;13925
868573;13667
868581;13598
868589;13490
868598;13449
868606;13380
868614;13336
868622;13204
868630;13197
868638;13072
868647;12988
868655;12825
868666;12692
868674;12570
868682;12363
868691;12130
868699;11923
868707;11783
868715;11760
868723;11789
868732;11988
868740;12214
868748;12563
868756;12998
868764;13509
868773;13883
868781;14278
868789;14502
868797;14653
868805;14734
868814;14812
868822;14775
868830;14761
868838;14646
868846;14596
868855;14478
868863;14422
868871;14292
868879;14268
868887;14114
868895;14107
868904;14034
868912;14047
868920;13958
868928;13964
868936;13893
868945;13940
868953;13941
868964;14054
868972;14036
868980;13995
868989;13757
868997;13674
869005;13499
869013;13525
869021;13427
869030;13488
869038;13500
869046;13632
869054;13718
869062;13809
869071;13775
869079;13818
869087;13739
869095;13778
869103;13708
869112;13730
869120;13609
869128;13851
869136;13809
869144;11709
869153;7612
869161;5563
869169;9942
869177;16247
869185;16272
869193;15459
869202;14736
869210;14513
869218;14193
869226;13972
869234;13852
869243;13721
869251;13591
869259;13505
869270;13477
869278;13536
869287;13374
869295;13300
869303;13109
869311;12993
869319;12766
869328;12587
869336;12307
869344;12101
869352;11849
869360;11709
869369;11604
869377;11655
869385;11726
869393;11917
869401;12156
869410;12566
869418;12998
869426;13487
869434;13826
869442;14091
869450;14266
869459;14396
869467;14427
869475;14475
869483;14517
869491;14509
869500;14467
869508;14361
869516;14277
869524;14200
869532;14157
869541;14052
869549;14032
869557;13942
869565;13884
869575;13907
869584;13942
869592;13933
869600;13891
869608;13896
869616;13878
869625;13886
869633;13915
869641;13896
869649;13804
869657;13588
869666;13502
869674;13547
869682;13640
869690;13700
869698;13766
869706;13855
869715;13993
869723;14097
869731;14124
869739;14084
869747;14032
869756;13976
869764;13954
869772;13815
869780;13774
869788;13704
869797;14228
869805;12677
869813;8732
869821;5361
869829;7218
869839;15079
869847;16356
869855;15575
869863;14798
869871;14484
869882;14122
869890;13955
869898;13795
869906;13677
869914;13572
869923;13421
869931;13341
869939;13256
869947;13211
869955;13052
869964;12943
869972;12809
869980;12651
869988;12473
869996;12327
870004;12110
870013;12004
870021;11803
870029;11722
870037;11672
870045;11770
870054;11802
870062;12040
870070;12333
870078;12790
870086;13148
870095;13513
870103;13685
870111;13896
870119;13984
870127;14135
870136;14206
870144;14371
870152;14317
870160;14388
870168;14301
870180;14329
870188;14256
870196;14196
870204;14085
870212;14069
870221;13960
870229;13982
870237;13876
870245;13907
870253;13880
870262;13951
870270;13890
870278;13901
870286;13779
870294;13687
870302;13522
870311;13491
870319;13423
870327;13513
870335;13541
870343;13680
870352;13687
870360;13816
870368;13835
870376;13887
870384;13848
870393;13880
870401;13847
870409;13917
870417;13873
870425;13846
870434;13663
870442;14221
870450;12862
870458;9145
870466;5579
870474;6852
870486;16038
870494;16104
870502;15150
870510;14553
870519;14284
870527;14013
870535;13781
870543;13750
870551;13632
870559;13660
870568;13581
870576;13604
870584;13538
870592;13546
870600;13453
870609;13407
870617;13254
870625;13169
870633;13015
870641;12819
870650;12577
870658;12380
870666;12115
870674;12038
870682;12032
870691;12171
870699;12348
870707;12619
870715;12936
870723;13328
870732;13738
870740;14085
870748;14388
870756;14572
870764;14683
870772;14737
870781;14742
870792;14753
870800;14696
870808;14695
870817;14592
870825;14561
870833;14434
870841;14364
870849;14299
870857;14279
870866;14209
870874;14192
870882;14165
870890;14122
870898;14096
870907;14153
870915;14146
870923;14086
870931;14013
870939;13797
870948;13596
870956;13485
870964;13472
870972;13444
870980;13474
870989;13609
870997;13748
871005;13864
871013;13939
871021;13926
871030;13932
871038;13869
871046;13919
871054;13830
871062;13765
871070;13658
871079;13763
871090;13498
871098;11106
871106;7494
871114;6451
871123;12523
871131;16920
871139;16243
871147;15305
871155;14452
871164;14179
871172;13819
871180;13644
871188;13500
871196;13450
871205;13298
871213;13257
871221;13194
871229;13157
871237;13021
871246;13005
871254;12920
871262;12887
871270;12726
871278;12622
871287;12398
871295;12222
871303;11941
871311;11911
871319;11744
871327;11838
871336;11898
871344;12042
871352;12183
871360;12563
871368;12915
871377;13372
871385;13671
871396;14179
871404;14369
871412;14481
871421;14490
871429;14537
871437;14491
871445;14479
871453;14392
871462;14421
871470;14295
871478;14297
871486;14179
871494;14177
871503;14113
871511;14133
871519;14058
871527;14107
871535;14010
871544;14049
871552;13912
871560;13834
871568;13698
871576;13779
871585;13728
871593;13810
871601;13824
871609;13991
871617;14095
871625;14177
871634;14098
871642;14123
871650;14066
871658;14090
871666;14044
871675;14024
871683;13963
871694;13942
871702;14262
871710;12947
871719;9407
871727;6824
871735;8292
871743;15862
871751;16823
871760;16046
871768;15030
871776;14558
871784;14217
871792;13952
871801;13782
871809;13721
871817;13572
871825;13512
871833;13389
871842;13358
871850;13183
871858;13097
871866;12892
871874;12708
871882;12105
871891;10310
871899;10374
871907;10937
871915;10326
871923;9785
871932;10269
871940;10723
871948;10839
871956;10958
871964;11250
871973;11675
871981;12228
871989;12753
872000;13336
872008;13719
872017;13854
872025;13967
872033;13964
872041;14001
872049;13931
872058;13948
872066;13827
872074;13760
872082;13663
872090;13622
872099;13735
872107;14093
872115;14123
872123;14132
872131;14170
872140;14159
872148;14091
872156;14107
872164;14078
872172;13953
872180;13791
872189;13676
872197;13647
872205;13586
872213;13578
872221;13601
872230;13693
872238;13739
872246;13886
872254;13976
872262;14065
872271;14016
872279;14060
872287;14012
872295;14058
872306;14013
872315;13939
872323;14407
872331;13260
872339;9661
872347;5604
872356;6160
872364;14030
872372;16344
872380;15759
872388;14960
872397;14663
872405;14338
872413;14110
872421;13978
872429;13906
872438;13802
872446;13762
872454;13617
872462;13592
872470;13495
872478;13402
872487;13288
872495;13253
872503;13081
872511;13029
872519;12822
872528;12635
872536;12373
872544;12259
872552;12096
872560;12143
872569;12148
872577;12267
872585;12441
872593;12882
872601;13209
872612;13980
872620;14386
872628;14667
872636;14805
872644;14940
872653;14981
872661;15016
872669;14984
872677;14946
872685;14859
872694;14885
872702;14810
872710;14818
872718;14732
872726;14728
872734;14595
872743;14605
872751;14455
872759;14436
872767;14334
872775;14362
872784;14272
872792;14291
872800;14182
872808;14063
872816;13787
872825;13777
872833;13792
872842;13913
872850;13827
872858;13806
872867;13763
872875;13891
872883;13913
872891;13964
872899;13903
872910;13969
872918;13946
872926;13932
872934;13836
872942;13846
872951;14083
872959;13951
872967;11478
872975;7153
872983;4982
872991;10221
873000;16024
873008;15892
873016;14903
873024;14433
873032;14195
873041;13901
873049;13641
873057;13529
873065;13356
873073;13320
873082;13232
873090;13180
873098;13094
873106;13063
873114;12948
873123;12926
873131;12805
873139;12692
873147;12512
873155;12314
873164;12101
873172;11923
873180;11745
873188;11699
873196;11748
873204;11855
873216;12084
873224;12463
873232;12784
873240;13237
873249;13593
873257;13964
873265;14186
873273;14413
873281;14425
873289;14512
873298;14496
873306;14492
873314;14416
873322;14385
873330;14287
873339;14252
873347;14189
873355;14167
873363;14112
873371;14089
873380;14073
873388;14087
873396;14044
873404;14076
873412;14077
873421;14059
873429;14022
873437;13942
873445;13762
873453;13563
873462;13577
873470;13651
873478;13687
873486;13694
873494;13749
873502;13786
873514;13971
873522;14052
873530;14003
873538;13988
873546;13928
873555;13887
873563;13781
873571;13690
873579;13584
873587;13900
873596;13673
873604;11225
873612;6929
873620;5100
873628;11094
873637;16319
873645;15984
873653;15005
873661;14505
873669;14268
873678;13984
873686;13831
873694;13797
873702;13669
873710;13609
873719;13516
873727;13503
873735;13397
873743;13355
873751;13193
873759;13137
873768;12916
873776;12761
873784;12528
873792;12393
873800;12143
873809;11953
873820;11852
873828;11935
873836;11909
873844;11946
873853;12049
873861;12343
873869;12682
873877;13162
873885;13534
873894;13871
873902;14104
873910;14332
873918;14347
873926;14413
873935;14352
873943;14341
873951;14240
873959;14247
873967;14154
873976;14116
873984;13999
873992;13980
874000;13943
874008;13971
874017;13868
874025;13891
874033;13862
874041;13916
874049;13838
874057;13890
874066;13865
874074;13841
874082;13656
874090;13481
874098;13343
874107;13443
874115;13472
874126;13638
874134;13698
874142;13810
874151;13922
874159;14056
874167;13989
874175;13994
874183;13927
874192;14005
874200;13963
874208;14006
874216;13936
874224;14018
874233;14383
874241;12954
874249;9198
874257;6367
874265;8685
874274;16299
874282;16779
874290;15901
874298;14943
874306;14636
874314;14303
874323;14091
874331;13945
874339;13878
874347;13745
874355;13770
874364;13680
874372;13648
874380;13487
874388;13388
874396;13204
874405;13098
874413;12929
874421;12782
874432;12491
874440;12350
874449;12026
874457;11896
874465;11777
874473;11875
874481;11886
874490;12043
874498;12202
874506;12596
874514;12974
874522;13439
874531;13755
874539;14082
874547;14263
874555;14463
874563;14484
874572;14591
874580;14604
874588;14554
874596;14468
874604;14426
874612;14296
874621;14251
874629;14143
874637;14086
874645;14035
874653;13982
874662;13950
874670;13967
874678;14058
874686;14080
874694;14072
874703;14040
874711;13928
874719;13883
874730;13895
874738;13982
874747;14034
874755;14141
874763;14180
874771;14315
874779;14329
874788;14391
874796;14342
874804;14346
874812;14281
874820;14171
874829;14078
874837;13981
874845;13850
874853;14068
874861;13533
874870;10928
874878;7362
874886;6424
874894;12685
874902;17081
874910;16424
874919;15467
874927;14664
874935;14325
874943;14108
874951;13785
874960;13626
874968;13452
874976;13442
874984;13364
874992;13326
875001;13203
875009;13180
875017;13063
875025;12976
875035;12803
875044;12727
875052;12485
875060;12229
875068;11910
875076;11680
875085;11594
875093;11556
875101;11584
875109;11697
875117;11864
875126;12151
875134;12553
875142;13003
875150;13359
875158;13712
875166;13893
875175;14072
875183;14140
875191;14257
875199;14237
875207;14289
875217;14238
875225;14349
875233;14251
875241;14239
875249;14119
875258;14114
875266;14053
875274;14100
875282;14057
875290;14128
875299;14071
875307;14037
875315;14089
875323;14064
875333;13910
875342;14010
875350;13898
875358;13876
875366;13920
875374;14003
875383;14004
875391;14150
875399;14148
875407;14182
875415;14108
875423;14109
875432;14023
875440;14054
875448;13965
875456;13918
875464;13797
875473;14115
875481;12476
875489;8787
875497;6075
875505;8276
875514;15713
875522;16482
875530;15599
875538;14743
875546;14272
875555;14038
875563;13671
875571;13576
875579;13457
875587;13456
875596;13297
875604;13291
875612;13233
875620;13209
875628;13064
875640;13058
875648;12967
875656;12907
875664;12688
875672;12545
875681;12264
875689;12103
875697;11913
875705;11935
875713;11945
875721;12074
875730;12144
875738;12451
875746;12743
875754;13200
875762;13555
875771;13892
875779;14087
875787;14281
875795;14333
875803;14389
875812;14376
875820;14417
875828;14400
875836;14419
875844;14353
875853;14363
875861;14278
875869;14246
875877;14229
875885;14203
875894;14167
875902;14109
875910;14078
875918;14081
875926;14062
875934;14045
875946;13975
875954;13979
875962;13794
875970;13689
875978;13571
875987;13524
875995;13509
876003;13584
876011;13592
876019;13686
876028;13753
876036;13806
876044;13750
876052;13757
876060;13717
876069;13678
876077;13590
876085;13544
876093;13421
876101;13809
876110;13153
876118;10276
876126;6017
876134;5173
876142;11579
876151;15930
876159;15725
876167;14870
876175;14551
876183;14245
876191;13973
876200;13826
876208;13786
876216;13703
876224;13646
876232;13519
876244;13530
876252;13515
876260;13405
876268;13263
876276;13141
876285;12975
876293;12771
876301;12514
876309;12287
876317;12110
876326;11931
876334;11824
876342;11832
876350;11629
876358;11438
876367;11598
876375;12084
876383;12561
876391;13032
876399;13497
876408;13871
876416;14071
876424;14226
876432;14293
876440;14365
876449;14290
876457;14265
876465;14219
876473;14272
876481;14285
876489;14305
876498;14263
876506;14256
876514;14179
876522;14213
876530;14146
876539;14185
876550;14204
876558;14219
876566;14158
876574;14138
876583;14071
876591;14065
876599;14029
876607;14001
876615;13856
876624;13685
876632;13526
876640;13597
876648;13599
876656;13596
876665;13572
876673;13649
876681;13671
876689;13788
876697;13802
876706;13818
876714;13736
876722;13783
876730;13722
876738;13687
876746;13591
876755;13543
876763;13974
876771;13432
876779;10524
876787;6542
876796;5726
876804;12196
876812;16270
876820;15940
876828;14993
876837;14630
876845;14321
876856;14065
876864;13912
876872;13857
876881;13732
876889;13697
876897;13572
876905;13509
876913;13392
876922;13326
876930;13189
876938;13105
876946;12902
876954;12779
876963;12537
876971;12361
876979;12063
876987;11895
876995;11696
877004;11723
877012;11743
877020;11937
877028;12067
877036;12415
877044;12808
877053;13264
877061;13632
877069;14007
877077;14186
877085;14350
877094;14379
877102;14445
877110;14392
877118;14372
877126;14331
877135;14264
877143;14225
877154;14238
877162;14237
877170;14268
877179;14185
877187;14182
877195;14078
877203;14095
877211;14022
877220;14009
877228;13967
877236;14069
877244;14011
877252;14019
877261;13963
877269;13961
877277;13821
877285;13312
877293;13044
877302;13083
877310;13111
877318;13141
877326;13161
877334;13320
877342;13705
877351;13946
877359;13981
877367;13998
877375;13995
877383;13982
877392;13930
877400;13659
877408;13389
877416;13283
877424;13847
877433;12951
877441;9589
877449;5967
877459;8172
877467;15829
877476;16182
877484;15325
877492;14447
877500;14213
877508;13907
877517;13690
877525;13779
877533;13823
877541;13735
877549;13693
877558;13609
877567;13485
877575;13391
877583;13145
877591;12791
877599;12638
877608;12469
877616;12516
877624;12483
877632;12321
877640;12184
877649;11963
877657;11864
877665;11933
877673;12023
877681;12006
877690;11994
877698;12251
877706;12713
877714;13407
877722;13982
877731;14287
877739;14525
877747;14646
877755;14698
877765;14767
877774;14748
877782;14691
877790;14593
877798;14533
877806;14481
877815;14375
877823;14301
877831;14268
877839;14221
877847;14144
877855;14132
877864;14128
877872;14136
877880;14137
877888;14143
877896;14114
877905;14137
877913;13815
877921;13461
877929;13354
877937;13404
877946;13366
877954;13509
877962;13553
877970;13683
877978;13769
877987;14052
877995;14259
878003;14332
878011;14253
878019;14295
878028;14163
878036;14130
878044;13710
878052;13708
878063;13454
878072;11050
878080;7545
878088;6554
878096;12660
878104;17048
878113;16250
878121;15290
878129;14414
878137;14280
878145;14191
878153;14017
878162;13885
878170;13837
878178;13754
878186;13782
878194;13637
878203;13579
878211;13450
878219;13393
878227;13232
878235;13109
878244;12939
878252;12779
878260;12531
878268;12326
878276;12024
878285;11925
878293;11843
878301;11896
878309;11968
878317;12155
878326;12374
878334;12799
878342;13244
878350;13728
878358;14042
878370;14496
878378;14655
878386;14810
878394;14846
878402;14827
878410;14708
878419;14721
878427;14632
878435;14603
878443;14468
878451;14388
878460;14293
878468;14317
878476;14205
878484;14201
878492;14098
878501;14098
878509;14011
878517;13992
878525;13793
878533;13710
878542;13633
878550;13640
878558;13597
878566;13699
878574;13792
878583;13890
878591;13900
878599;13915
878607;13864
878615;13893
878623;13851
878632;13858
878640;13759
878648;13736
878656;13641
878664;13922
878676;12737
878684;9586
878692;7030
878700;8065
878708;15398
878717;16934
878725;16071
878733;15174
878741;14468
878749;14188
878758;13780
878766;13554
878774;13413
878782;13379
878790;13226
878799;13177
878807;13100
878815;13037
878823;12919
878831;12829
878840;12664
878848;12504
878856;12299
878864;12090
878872;11840
878881;11586
878889;11355
878897;11267
878905;11269
878913;11363
878921;11508
878930;11744
878938;12107
878946;12580
878954;13111
878962;13544
878974;14057
878982;14357
878990;14411
878998;14523
879006;14523
879015;14566
879023;14521
879031;14493
879039;14425
879047;14409
879056;14345
879064;14309
879072;14190
879080;14122
879088;14077
879097;14092
879105;14085
879113;14004
879121;13951
879129;13813
879138;13694
879146;13594
879154;13673
879162;13662
879170;13745
879178;13755
879187;13873
879195;13965
879203;14085
879211;14104
879219;14125
879228;14091
879236;14109
879244;13997
879252;13942
879260;13774
879269;13812
879288;11263
879296;7653
879304;6442
879313;12633
879321;16768
879329;16195
879337;15270
879345;14612
879354;14355
879362;14002
879370;13766
879378;13664
879386;13587
879395;13498
879403;13483
879411;13419
879419;13353
879427;13233
879436;13163
879444;12985
879452;12903
879460;12699
879468;12534
879476;12300
879485;12097
879493;11810
879501;11697
879509;11636
879517;11711
879526;11743
879534;11938
879542;12152
879550;12646
879558;13005
879567;13436
879575;13724
879583;13995
879594;14139
879602;14318
879611;14315
879619;14340
879627;14300
879635;14327
879643;14201
879652;14203
879660;14135
879668;14123
879676;14043
879684;14046
879693;13984
879701;14010
879709;13910
879717;13971
879725;13888
879734;13874
879742;13653
879750;13580
879758;13494
879766;13583
879774;13562
879783;13673
879791;13703
879799;13802
879807;13887
879815;13995
879824;13938
879832;13973
879840;13899
879848;13924
879856;13854
879865;13790
879873;13660
879881;13820
879891;13509
879899;10714
879908;6471
879916;5553
879924;12068
879932;16124
879940;15778
879949;14982
879957;14531
879966;14287
879974;13960
879982;13842
879991;13667
879999;13635
880007;13512
880015;13484
880023;13419
880031;13380
880040;13234
880048;13166
880056;13020
880064;12905
880072;12676
880081;12481
880089;12257
880097;12012
880105;11777
880113;11650
880122;11596
880130;11610
880138;11698
880146;11858
880154;12165
880163;12585
880171;13015
880179;13418
880187;13762
880197;14212
880206;14346
880214;14453
880222;14460
880230;14476
880238;14410
880247;14389
880255;14275
880263;14254
880271;14192
880279;14171
880287;14109
880296;14107
880304;14079
880312;14036
880320;14023
880328;14020
880337;13968
880345;13967
880353;13999
880361;13964
880369;13875
880378;13667
880386;13450
880394;13398
880402;13442
880410;13459
880419;13495
880427;13537
880435;13644
880443;13719
880451;13874
880460;13857
880468;13860
880476;13829
880484;13871
880495;13882
880504;13927
880512;13822
880520;14049
880528;13996
880536;11599
880545;7324
880553;5235
880561;9830
880569;16064
880577;16267
880585;15422
880594;14843
880602;14597
880610;14243
880618;14073
880626;13948
880635;13886
880643;13755
880651;13717
880659;13600
880667;13594
880676;13455
880684;13370
880692;13222
880700;13120
880708;12948
880717;12796
880725;12550
880733;12344
880741;11748
880749;11507
880758;11375
880766;11411
880774;11431
880782;11623
880790;11825
880802;12441
880810;12929
880818;13387
880826;13671
880834;14132
880842;14075
880851;14116
880859;14124
880867;14169
880875;14082
880883;14061
880892;13973
880900;13975
880908;13891
880916;13873
880924;13800
880933;13833
880941;13813
880949;13850
880957;13772
880965;13834
880974;13826
880982;13935
880990;13926
880998;13979
881006;13937
881015;13950
881023;13802
881031;13618
881039;13458
881047;13544
881055;13564
881064;13650
881072;13612
881080;13715
881088;13779
881096;14007
881108;14052
881116;14148
881124;14066
881132;14111
881140;14009
881149;14027
881157;13874
881165;13827
881173;14274
881181;13292
881190;9676
881198;5844
881206;6023
881214;13728
881222;16375
881231;15798
881239;14843
881247;14524
881255;14181
881263;13964
881272;13811
881280;13764
881288;13658
881296;13650
881304;13482
881313;13426
881321;13329
881329;13320
881337;13054
881345;12706
881353;12398
881362;12257
881370;12083
881378;11881
881386;11638
881394;11406
881403;11275
881414;11356
881422;11454
881430;11621
881438;11794
881447;12173
881455;12582
881463;13078
881471;13475
881479;13802
881488;14007
881496;14184
881504;14164
881512;14223
881520;14206
881529;14181
881537;14185
881545;14216
881553;14180
881561;14182
881570;14144
881578;14113
881586;14104
881594;14111
881602;14127
881610;14145
881619;14133
881627;14088
881635;14079
881643;14061
881651;14114
881660;14100
881668;14058
881676;13931
881684;13867
881692;13670
881701;13572
881712;13592
881720;13622
881728;13598
881736;13589
881745;13661
881753;13769
881761;13869
881769;13916
881777;13886
881786;13892
881794;13877
881802;13880
881810;13819
881818;13743
881827;13689
881835;14185
881843;12820
881851;9255
881859;6267
881868;7840
881876;15549
881884;16801
881892;15940
881900;15042
881908;14619
881917;14380
881925;14030
881933;13949
881941;13812
881949;13785
881958;13658
881966;13640
881974;13538
881982;13549
881990;13420
881999;13399
882007;13233
882018;13138
882026;13001
882034;12760
882043;12455
882051;12222
882059;12022
882067;11955
882075;11931
882084;12048
882092;12170
882100;12428
882108;12714
882116;13194
882125;13607
882133;14002
882141;14229
882149;14464
882157;14529
882166;14637
882174;14578
882182;14590
882190;14497
882198;14516
882206;14449
882215;14454
882223;14332
882231;14317
882239;14261
882247;14285
882256;14214
882264;14268
882272;14214
882280;14269
882288;14248
882297;14335
882305;14236
882313;14324
882324;14175
882332;14175
882341;14054
882349;14047
882357;13950
882365;14119
882373;14118
882382;14219
882390;14245
882398;14314
882406;14237
882414;14264
882423;14169
882431;14210
882439;14116
882447;14165
882455;14069
882463;14085
882472;14393
882480;12888
882488;9096
882496;6513
882504;8540
882513;16223
882521;16857
882529;16020
882537;15037
882545;14677
882554;14318
882562;14036
882570;13823
882578;13749
882586;13614
882595;13567
882603;13441
882611;13389
882621;13280
882629;13293
882638;13098
882646;13059
882654;12849
882662;12671
882670;12400
882679;12212
882687;11876
882695;11732
882703;11569
882711;11559
882719;11572
882728;11746
882736;11950
882744;12345
882753;12757
882760;13240
882770;13578
882778;13853
882786;13982
882794;14079
882802;14096
882811;14139
882819;14127
882827;14132
882835;14072
882843;14005
882852;13948
882860;13940
882868;13883
882876;13842
882884;13764
882893;13736
882901;13700
882909;13687
882917;13715
882927;13804
882936;13795
882944;13834
882952;13783
882960;13827
882968;13966
882977;14095
882985;14074
882993;14099
883001;13884
883009;13579
883017;13596
883026;13349
883034;13183
883042;13197
883050;13240
883058;13299
883067;13409
883075;13473
883083;13500
883091;13487
883099;13486
883108;13499
883116;13502
883124;13472
883132;13378
883140;13857
883149;13132
883157;9962
883165;6123
883173;5691
883181;12545
883190;16254
883198;15779
883206;14809
883214;14362
883222;14020
883234;14344
883242;14175
883250;14223
883258;14309
883266;14235
883274;13919
883283;13348
883291;13169
883299;13092
883307;12982
883315;12897
883324;12949
883332;13220
883340;13021
883348;12791
883356;12524
883365;11856
883373;11389
883381;11376
883389;11417
883397;11561
883406;11736
883414;12131
883422;12568
883430;13076
883438;13426
883447;14020
883455;14486
883463;14424
883471;14210
883479;14230
883487;14176
883496;14236
883504;14159
883512;14183
883520;14084
883532;14136
883540;14105
883548;14085
883556;14015
883564;14003
883572;13901
883581;13905
883589;13848
883597;13874
883605;13829
883613;13914
883622;13904
883630;13986
883638;13939
883646;13918
883654;13769
883663;13679
883671;13465
883679;13498
883687;13491
883695;13590
883704;13550
883712;13645
883720;13658
883728;13831
883736;13846
883745;13928
883753;13901
883761;13969
883769;13907
883777;13911
883785;13756
883794;13675
883802;13837
883810;13868
883818;11489
883826;7341
883838;5999
883846;13354
883854;16485
883862;15943
883870;14926
883879;14543
883887;14220
883895;13949
883903;13702
883911;13666
883920;13526
883928;13546
883936;13447
883944;13380
883952;13261
883961;13247
883969;13123
883977;13075
883985;12913
883993;12771
884002;12518
884010;12310
884018;12010
884026;11821
884034;11665
884042;11668
884051;11680
884059;11808
884067;11964
884075;12282
884083;12682
884092;13139
884100;13564
884108;13900
884116;14537
884124;14983
884133;14807
884144;14495
884152;14462
884160;14455
884168;14355
884177;14366
884185;14273
884193;14259
884201;14173
884209;14151
884218;14073
884226;14032
884234;13939
884242;13946
884250;13911
884259;13933
884267;13898
884275;13906
884283;13891
884291;13922
884300;13887
884308;13914
884316;13886
884324;13770
884332;13563
884340;13489
884349;13560
884357;13571
884365;13542
884373;13557
884381;13668
884390;13787
884398;13960
884406;13930
884414;13940
884422;13886
884431;13915
884442;13931
884450;13924
884458;13868
884466;13840
884475;14295
884483;12733
884491;8970
884499;6176
884507;8194
884516;16059
884524;16920
884532;16044
884540;15129
884548;14680
884557;14367
884565;14144
884573;14114
884581;14002
884589;13843
884598;13915
884606;13864
884614;13817
884622;13705
884630;13614
884638;13469
884647;13542
884655;13527
884663;13406
884671;13138
884679;12925
884688;12586
884696;12361
884704;12192
884712;12201
884720;12182
884729;12324
884737;12419
884747;12893
884755;13304
884763;13679
884772;14021
884781;14332
884789;14529
884797;14620
884805;14646
884814;14701
884822;14627
884830;14608
884838;14509
884846;14468
884855;14371
884863;14281
884871;14128
884879;14088
884887;13971
884895;13970
884904;13907
884912;13931
884920;13907
884928;13963
884936;13906
884945;13964
884953;13927
884961;13955
884969;13836
884977;13755
884986;13491
884994;13456
885002;13413
885010;13514
885018;13468
885027;13561
885035;13579
885045;13865
885053;13974
885061;13986
885070;13935
885078;13973
885086;13930
885094;13940
885102;13862
885111;13815
885119;13664
885127;13833
885135;11982
885143;8003
885151;5171
885160;8144
885168;15464
885176;16135
885184;15205
885192;14484
885201;14160
885209;13976
885217;13785
885225;13813
885233;13573
885242;13377
885250;13232
885258;13259
885266;13135
885274;13093
885283;12946
885291;12917
885299;12937
885307;12890
885315;12709
885324;12537
885332;12295
885340;12098
885351;11786
885359;11637
885368;11577
885376;11734
885384;11801
885392;12073
885400;12371
885409;12937
885417;13515
885425;13971
885433;14193
885441;14380
885449;14423
885458;14516
885466;14339
885474;14151
885482;14069
885490;14038
885499;13954
885507;13950
885515;14012
885523;14070
885531;14070
885540;14061
885548;14055
885556;14040
885564;13996
885572;13992
885581;14007
885589;14009
885597;13965
885605;13895
885613;13838
885622;13720
885630;13540
885638;13279
885646;13216
885657;13301
885666;13355
885674;13427
885682;13402
885690;13506
885698;13629
885706;13699
885715;13666
885723;13668
885731;13589
885739;13573
885747;13492
885756;13431
885764;13346
885772;13606
885780;13556
885788;11169
885797;7018
885805;4930
885813;9941
885821;16168
885829;16094
885838;15125
885846;14506
885854;14259
885862;13933
885870;13808
885879;13719
885887;13608
885895;13545
885903;13483
885911;13462
885919;13371
885928;13102
885936;12885
885944;12808
885952;12666
885964;12571
885972;12662
885980;12582
885988;12356
885996;12146
886004;12028
886013;11981
886021;12052
886029;12179
886037;12341
886045;12613
886054;13030
886062;13477
886070;13851
886078;14168
886086;14368
886095;14499
886103;14549
886111;14606
886119;14332
886127;14155
886136;14091
886144;14097
886152;14048
886160;14057
886168;13993
886177;14000
886185;13893
886193;13874
886201;13793
886209;13801
886217;13766
886226;13804
886234;13792
886242;13851
886250;13785
886262;13923
886270;13909
886278;13786
886286;13511
886294;13414
886302;13406
886311;13509
886319;13521
886327;13574
886335;13579
886343;13704
886352;13792
886360;13808
886368;13760
886376;13754
886384;13678
886393;13677
886401;13616
886409;13575
886417;13449
886425;13872
886434;13581
886442;10979
886450;6809
886458;5229
886466;11440
886474;16502
886483;15901
886491;14986
886499;14370
886507;14202
886515;13855
886524;13733
886532;13614
886540;13561
886548;13417
886556;13395
886568;13327
886576;13349
886584;13195
886592;13126
886600;12941
886609;12851
886617;12638
886625;12479
886633;12228
886641;12062
886650;11805
886658;11779
886666;11755
886674;11922
886682;12009
886691;12229
886699;12463
886707;12909
886715;13260
886723;13739
886732;14038
886740;14364
886748;14487
886756;14608
886764;14586
886772;14636
886781;14573
886789;14514
886797;14401
886805;14390
886813;14310
886822;14253
886830;14098
886838;14048
886846;13962
886854;13923
886866;13846
886874;13955
886882;13926
886890;14005
886898;13911
886907;13912
886915;13954
886923;14084
886931;13867
886939;13730
886948;13682
886956;13784
886964;13807
886972;13844
886980;13828
886989;13942
886997;14044
887005;14090
887013;14056
887021;14056
887030;14044
887038;14083
887046;14002
887054;13957
887062;13796
887070;14117
887079;13861
887087;11327
887095;7310
887103;5840
887111;12178
887120;17020
887128;16412
887136;15375
887144;14730
887152;14504
887161;14208
887171;14086
887179;14007
887187;13946
887195;13838
887204;13812
887212;13742
887220;13676
887228;13612
887236;13481
887245;13358
887253;13258
887261;13045
887269;12803
887277;12559
887286;12306
887294;12154
887302;12057
887310;12040
887318;12062
887326;12254
887335;12428
887343;12716
887352;13046
887360;13509
887368;13841
887377;14158
887385;14349
887393;14547
887401;14612
887409;14658
887418;14594
887426;14593
887434;14458
887442;14482
887450;14382
887459;14418
887467;14342
887477;14412
887485;14436
887493;14415
887502;14378
887510;14312
887518;14228
887526;14136
887534;13943
887543;13867
887551;13841
887559;13839
887567;13831
887575;13924
887583;13970
887592;14113
887600;14140
887608;14153
887616;14061
887624;14070
887633;14098
887641;14184
887649;14116
887657;14144
887665;14097
887674;14153
887682;14494
887690;13031
887698;9275
887706;6764
887715;8658
887723;16545
887731;17301
887739;16458
887747;15524
887756;15118
887764;14797
887772;14572
887783;14422
887791;14458
887800;14295
887808;14255
887816;14089
887824;14133
887832;13947
887841;13844
887849;13579
887857;13455
887865;13125
887873;12931
887881;12596
887890;12317
887898;11963
887906;11828
887914;11748
887922;11857
887931;11900
887939;12103
887947;12249
887955;12660
887963;13015
887972;13359
887980;13542
887988;13697
887996;13698
888004;13769
888013;13738
888021;13791
888029;13753
888037;13745
888045;13631
888054;13563
888062;13468
888070;13467
888081;13431
888089;13528
888098;13444
888106;13476
888114;13301
888122;13330
888130;13202
888138;13173
888147;13137
888155;13255
888163;13239
888171;13412
888179;13460
888188;13643
888196;13719
888204;13845
888212;13807
888220;13832
888229;13784
888237;13822
888245;13728
888253;13713
888261;13628
888270;13581
888278;14005
888286;12843
888294;9265
888302;5917
888311;6370
888319;14064
888327;16228
888335;15676
888343;14891
888351;14528
888360;14154
888368;13860
888376;13750
888387;13732
888396;13694
888404;13665
888412;13518
888420;13469
888428;13311
888436;13226
888445;13066
888453;12979
888461;12793
888469;12632
888477;12396
888486;12229
888494;11975
888502;11839
888510;11750
888518;11865
888527;11951
888535;12122
888543;12386
888551;12761
888559;13165
888568;13559
888576;13836
888584;14080
888592;14194
888600;14259
888609;14310
888617;14290
888625;14261
888633;14184
888641;14134
888649;14052
888658;13978
888666;13888
888674;13842
888685;13855
888694;13875
888702;13857
888710;13851
888718;13873
888726;13782
888734;13770
888743;13573
888751;13512
888759;13439
888767;13459
888775;13490
888784;13563
888792;13672
888800;13832
888808;13957
888816;14057
888825;14061
888833;14052
888841;14070
888849;14064
888857;14080
888866;13983
888874;13918
888882;13776
888890;14309
888898;13199
888906;9590
888915;5703
888923;6135
888931;13962
888939;16355
888947;15745
888956;15019
888964;14662
888972;14371
888980;14059
888991;13979
889000;13925
889008;13839
889016;13713
889024;13604
889032;13483
889041;13371
889049;13222
889057;13101
889065;12944
889073;12809
889082;12628
889090;12428
889098;12169
889106;11987
889114;11816
889123;11850
889131;11844
889139;11980
889147;12083
889155;12334
889164;12636
889172;13076
889180;13424
889188;13854
889196;14065
889204;14228
889213;14271
889221;14430
889229;14323
889237;14019
889245;13891
889254;14209
889262;14159
889270;14162
889278;14072
889286;14111
889298;14086
889306;14174
889314;14094
889322;14061
889330;13976
889339;13998
889347;13911
889355;13687
889363;13456
889371;13413
889380;13199
889388;12924
889396;13062
889404;13243
889412;13250
889421;13340
889429;13515
889437;13774
889445;13896
889453;14065
889462;14039
889470;14103
889478;13909
889486;13673
889494;13435
889502;13370
889511;13299
889519;13268
889527;13721
889535;12352
889543;8538
889552;5444
889560;7380
889568;15739
889576;17033
889584;16206
889593;15345
889604;14565
889612;13958
889620;13679
889628;13470
889637;13372
889645;13381
889653;13386
889661;13479
889669;13581
889678;13413
889686;13329
889694;13194
889702;13139
889710;12968
889719;12835
889727;12535
889735;12316
889743;11818
889751;11520
889759;11482
889768;11515
889776;11598
889784;11863
889792;12207
889800;12638
889809;13033
889817;13452
889825;13785
889833;14047
889841;14261
889850;14423
889858;14502
889866;14422
889874;14280
889882;14157
889891;14019
889901;13979
889909;13911
889917;13827
889925;13808
889934;13799
889942;13766
889950;13731
889958;13656
889966;13633
889975;13636
889983;13624
889991;13637
889999;13677
890007;13665
890015;13621
890024;13420
890032;13311
890040;13326
890049;13376
890057;13372
890066;13380
890074;13460
890082;13533
890090;13690
890098;13738
890107;13751
890115;13689
890123;13815
890131;14073
890139;14073
890148;13917
890156;13437
890164;13594
890172;13316
890180;10452
890189;6145
890197;4324
890207;13921
890215;16118
890223;15403
890232;14914
890240;14919
890248;14678
890256;14388
890264;14268
890273;14168
890281;14054
890289;13989
890297;13543
890305;13272
890313;13103
890322;12997
890330;12894
890338;12796
890346;12705
890354;12885
890363;12866
890371;12754
890379;12544
890387;12342
890395;12160
890404;11743
890412;11658
890420;12219
890428;12559
890436;12902
890445;13226
890453;13679
890461;13963
890469;14359
890477;14629
890486;14867
890494;14958
890505;15027
890513;15025
890521;14973
890530;14847
890538;14728
890546;14582
890554;14493
890562;14409
890570;14376
890579;14298
890587;14293
890595;14191
890603;14169
890611;14114
890620;14111
890628;14037
890636;14046
890644;14042
890652;13935
890661;13800
890669;13525
890677;13393
890685;13462
890693;13511
890702;13559
890710;13595
890718;13705
890726;13758
890734;13868
890743;13832
890751;13849
890759;13829
890767;13855
890775;13796
890783;13778
890792;13646
890800;13570
890811;14150
890819;12259
890828;7977
890836;4813
890844;8071
890852;15887
890860;15945
890868;15180
890877;14513
890885;14386
890893;14086
890901;13928
890909;13800
890918;13792
890926;13685
890934;13587
890942;13518
890950;13476
890959;13326
890967;13241
890975;13130
890983;13069
890991;12874
891000;12744
891008;12506
891016;12259
891024;12001
891032;11880
891041;11798
891049;11865
891057;11930
891065;12027
891073;12221
891081;12522
891090;12824
891098;13208
891106;13524
891117;14031
891126;14217
891134;14377
891142;14397
891150;14528
891158;14528
891166;14479
891175;14391
891183;14316
891191;14267
891199;14217
891207;14091
891216;14084
891224;13946
891232;13948
891240;14119
891248;14234
891257;14214
891265;14155
891273;14177
891281;14024
891289;13709
891298;13680
891306;13716
891314;13791
891322;13962
891330;14068
891338;14208
891347;14310
891355;14375
891363;14299
891371;14273
891379;14243
891388;14319
891396;14313
891404;14396
891415;14314
891423;14313
891432;14811
891440;13029
891448;8894
891456;5404
891464;8021
891473;16150
891481;16464
891489;15430
891497;14775
891505;14536
891514;14252
891522;14073
891530;13919
891538;13782
891546;13688
891555;13627
891563;13457
891571;13311
891579;13148
891587;13036
891596;12911
891604;13038
891612;12966
891620;12766
891628;12439
891636;12227
891645;11901
891653;11682
891661;11592
891669;11631
891677;11700
891686;11865
891694;12008
891702;12339
891710;12612
891721;13208
891730;13567
891738;13833
891746;14060
891754;14177
891762;14174
891771;14251
891779;14159
891787;14006
891795;13919
891803;13848
891812;13868
891820;13815
891828;13661
891836;13744
891844;13739
891853;13749
891861;13707
891869;13738
891877;13793
891885;13902
891894;13951
891902;13783
891910;13571
891918;13486
891926;13313
891934;13303
891943;13285
891951;13378
891959;13442
891967;13593
891975;13606
891984;13685
891992;13734
892000;13795
892008;13686
892016;13708
892028;13704
892036;13734
892044;14104
892052;13926
892060;11174
892069;6850
892077;4367
892085;10691
892093;16126
892101;15627
892110;14859
892118;14472
892126;14373
892134;14133
892142;13937
892151;14007
892159;13935
892167;13898
892175;13691
892183;13649
892191;13526
892200;13478
892208;13299
892216;13221
892224;13022
892232;12862
892241;12700
892249;12588
892257;12359
892265;12119
892273;11947
892282;11974
892290;11963
892298;12099
892306;12195
892314;12447
892326;12972
892334;13421
892342;13711
892350;14083
892358;14281
892367;14483
892375;14511
892383;14527
892391;14504
892399;14576
892408;14509
892416;14513
892424;14402
892432;14320
892440;14226
892449;14207
892457;14109
892465;14137
892473;14156
892481;14227
892489;14233
892498;14316
892506;14265
892514;14272
892522;14087
892530;13938
892539;13826
892547;13872
892555;13857
892563;13904
892571;13986
892580;14127
892588;14242
892596;14311
892604;14354
892612;14406
892621;14448
892632;14548
892640;14551
892648;14544
892656;14429
892665;14595
892673;14477
892681;12439
892689;8472
892697;6457
892706;11518
892714;17518
892722;17011
892730;15931
892738;15162
892746;14979
892755;14680
892763;14432
892771;14279
892779;14177
892787;14057
892796;13954
892804;13883
892812;13765
892820;13695
892828;13602
892837;13467
892845;13285
892853;13133
892861;12896
892869;12681
892878;12402
892886;12190
892894;12038
892902;12055
892910;12077
892919;12245
892927;12347
892937;12713
892945;13105
892953;13468
892962;13859
892970;14178
892978;14406
892986;14518
892994;14586
893002;14613
893011;14584
893019;14558
893027;14540
893035;14524
893043;14480
893053;14419
893061;14347
893069;14380
893077;14321
893085;14360
893094;14260
893102;14233
893110;14173
893118;14010
893126;13802
893135;13751
893143;13733
893151;13803
893159;13814
893167;13952
893176;14017
893184;14191
893192;14177
893200;14203
893208;14118
893217;14120
893225;14058
893235;14073
893243;14015
893251;13951
893260;13961
893268;13880
893276;11817
893284;8225
893292;6464
893300;10367
893309;16838
893317;16665
893325;15645
893333;14756
893341;14305
893350;14036
893358;13672
893366;13549
893374;13383
893382;13328
893391;13233
893399;13192
893407;13087
893415;13003
893423;12839
893432;12769
893440;12566
893448;12439
893456;12195
893464;12016
893473;11736
893481;11596
893489;11414
893497;11415
893505;11428
893513;11623
893522;11842
893530;12183
893541;12730
893549;13254
893558;13578
893566;13913
893574;14111
893582;14296
893590;14362
893598;14457
893607;14423
893615;14442
893623;14327
893631;14298
893639;14154
893648;14124
893656;13982
893664;13985
893672;13947
893680;13947
893689;13811
893697;13816
893705;13658
893713;13586
893721;13512
893730;13557
893738;13489
893746;13551
893754;13592
893762;13736
893770;13806
893779;13937
893787;13923
893795;13893
893803;13902
893811;13911
893820;13841
893828;13805
893836;13729
893847;13751
893855;13986
893864;12418
893872;8751
893880;6298
893888;8283
893896;16010
893905;16791
893913;16011
893921;15100
893929;14663
893937;14312
893946;13965
893954;13759
893962;13685
893970;13580
893978;13527
893987;13451
893995;13370
894003;13245
894011;13185
894019;13025
894028;12863
894036;12706
894044;12560
894052;12365
894060;12173
894068;11907
894077;11711
894085;11628
894093;11640
894101;11745
894109;11881
894118;12201
894126;12535
894134;12984
894145;13644
894153;13957
894162;14187
894170;14294
894178;14420
894186;14462
894194;14477
894203;14458
894211;14379
894219;14292
894227;14273
894235;14197
894244;14105
894252;14075
894260;14043
894268;13972
894276;13851
894285;13807
894293;13607
894301;13472
894309;13387
894317;13465
894326;13478
894334;13622
894342;13682
894350;13797
894358;13858
894366;13979
894375;13940
894383;13972
894391;13893
894399;13917
894407;13839
894416;13837
894424;13728
894432;13647
894440;13955
894451;12264
894460;8629
894468;6123
894476;8204
894484;15782
894492;16476
894501;15746
894509;14847
894517;14394
894525;14065
894533;13801
894542;13600
894550;13509
894558;13371
894566;13343
894574;13221
894583;13192
894591;13055
894599;12987
894607;12851
894615;12818
894623;12659
894632;12545
894640;12329
894648;12165
894656;11872
894664;11793
894673;11693
894681;11791
894689;11827
894697;12053
894705;12255
894714;12670
894722;13134
894730;13619
894738;13932
894746;14250
894758;14494
894766;14624
894774;14553
894782;14553
894790;14471
894799;14423
894807;14281
894815;14250
894823;14126
894831;14109
894840;14018
894848;14001
894856;13921
894864;13943
894872;13897
894881;13987
894889;13942
894897;13989
894905;13870
894913;13752
894921;13622
894930;13676
894938;13686
894946;13742
894954;13723
894962;13827
894971;13831
894979;13993
894987;14071
894995;14057
895003;14036
895012;14057
895020;14013
895028;13964
895036;13890
895044;13807
895055;14294
895063;13234
895071;9619
895079;5621
895087;5980
895096;13467
895104;16187
895112;15771
895120;15033
895128;14760
895137;14337
895145;14121
895153;13947
895161;13874
895169;13761
895178;13721
895187;13611
895195;13596
895203;13493
895211;13455
895219;13353
895228;13235
895236;13044
895244;12860
895252;12638
895260;12412
895269;12210
895277;12059
895285;11978
895293;11996
895301;12125
895310;12262
895318;12480
895326;12818
895334;13259
895342;13675
895351;14079
895361;14537
895369;14675
895377;14755
895385;14739
895394;14734
895402;14672
895410;14593
895418;14520
895426;14464
895434;14407
895443;14396
895451;14354
895459;14334
895467;14324
895475;14278
895484;14246
895492;14225
895500;14207
895508;14155
895516;14142
895525;14013
895533;13822
895541;13535
895549;13509
895557;13508
895566;13609
895574;13576
895582;13627
895590;13661
895598;13810
895607;13884
895615;13942
895623;13873
895631;13863
895639;13808
895647;13809
895656;13674
895667;13645
895675;13741
895683;13940
895692;12085
895700;7990
895708;5071
895716;8010
895724;15316
895732;16116
895741;15300
895749;14667
895757;14381
895765;14029
895773;13754
895782;13685
895790;13558
895798;13517
895806;13432
895814;13379
895823;13249
895831;13233
895839;13100
895847;13020
895855;12850
895864;12716
895872;12495
895880;12355
895888;12109
895896;11915
895905;11674
895913;11644
895921;11607
895929;11718
895937;11818
895945;12137
895954;12482
895965;13149
895973;13556
895981;13892
895990;14043
895998;14202
896006;14242
896014;14301
896022;14240
896030;14213
896039;14123
896047;14169
896055;14087
896063;14073
896071;13986
896080;14021
896088;13943
896096;13954
896104;13922
896112;13943
896121;13892
896129;13909
896137;13852
896145;13927
896153;13856
896162;13868
896170;13849
896178;13866
896186;13706
896194;13573
896202;13482
896211;13510
896219;13520
896227;13556
896235;13522
896243;13584
896252;13661
896260;13839
896271;13887
896279;13964
896287;13896
896296;13919
896304;13804
896312;13769
896320;13645
896328;13843
896337;13914
896345;11855
896353;7706
896361;5282
896369;8961
896378;15865
896386;16181
896394;15393
896402;14709
896410;14469
896419;14104
896427;13923
896435;13786
896443;13706
896451;13585
896460;13536
896468;13450
896476;13420
896484;13330
896492;13245
896500;13139
896509;13042
896517;12840
896525;12667
896533;12451
896541;12218
896550;12001
896558;11854
896566;11795
896577;11957
896585;12073
896594;12250
896602;12455
896610;12833
896618;13276
896626;13700
896635;13983
896643;14251
896651;14377
896659;14466
896667;14458
896676;14477
896684;14456
896692;14437
896700;14369
896708;14368
896717;14318
896725;14266
896733;14207
896741;14182
896749;14179
896758;14119
896766;14066
896774;14008
896782;14017
896790;14033
896798;14011
896807;13987
896815;13990
896823;13956
896831;14007
896839;13946
896848;13836
896856;13667
896864;13679
896875;13800
896883;13882
896892;13923
896900;13995
896908;14071
896916;14171
896924;14233
896933;14221
896941;14197
896949;14139
896957;14057
896965;13965
896974;13892
896982;13787
896990;14249
896998;13322
897006;10226
897015;6910
897023;6873
897031;14404
897039;16881
897047;16088
897055;15037
897064;14493
897072;14235
897080;13968
897088;13756
897096;13707
897105;13609
897113;13581
897121;13499
897129;13480
897137;13355
897146;13342
897154;13192
897162;13146
897170;12945
897181;12755
897190;12524
897198;12281
897206;12042
897214;11864
897222;11737
897231;11737
897239;11797
897247;11964
897255;12165
897263;12526
897272;12865
897280;13306
897288;13592
897296;13939
897304;14104
897313;14332
897321;14408
897329;14477
897337;14440
897345;14461
897353;14363
897362;14352
897370;14297
897378;14311
897386;14149
897394;14113
897403;14025
897411;14025
897419;13989
897427;14035
897435;13932
897444;13918
897452;13865
897460;13699
897468;13518
897476;13573
897488;13610
897496;13782
897504;13830
897512;13939
897520;13988
897529;14136
897537;14121
897545;14192
897553;14146
897561;14200
897570;14190
897578;14218
897586;14129
897594;14148
897602;14320
897610;12791
897619;9322
897627;7455
897635;9355
897643;16701
897651;17369
897660;16420
897668;15363
897676;14620
897684;14249
897692;13922
897701;13686
897709;13537
897717;13470
897725;13425
897733;13291
897742;13271
897750;13179
897758;13082
897766;13023
897774;12883
897785;12725
897793;12595
897801;12297
897809;12068
897817;11766
897826;11629
897834;11596
897842;11650
897850;11849
897858;12070
897866;12301
897875;12733
897883;13058
897891;13446
897899;13819
897908;14126
897917;14180
897925;14285
897933;14324
897941;14441
897949;14460
897958;14418
897966;14370
897974;14350
897982;14228
897990;14161
897999;14115
898007;14043
898015;14004
898023;13918
898031;13868
898040;13843
898048;13691
898056;13494
898064;13474
898072;13451
898081;13466
898091;13550
898099;13702
898107;13803
898115;13819
898124;13893
898132;13950
898140;13809
898148;13819
898156;13796
898164;13680
898173;13547
898181;13533
898189;13646
898197;12930
898205;10265
898214;8083
898222;8725
898230;13644
898238;16870
898246;16106
898255;15251
898263;14382
898271;13813
898279;13678
898287;13320
898296;13169
898304;12953
898312;12957
898320;12809
898328;12814
898337;12807
898345;12836
898353;12651
898361;12594
898369;12581
898377;12448
898386;12230
898397;12089
898405;11941
898413;11805
898422;11684
898430;11741
898438;11876
898446;12029
898454;12078
898462;12630
898471;12848
898479;13209
898487;13452
898495;13719
898503;13837
898512;13936
898520;13960
898528;14095
898536;14075
898544;14070
898553;14055
898561;14068
898569;13954
898577;14016
898585;13964
898594;13932
898602;13927
898610;13836
898618;13806
898626;13814
898634;13617
898643;13085
898651;12481
898659;12767
898667;12813
898675;12657
898684;12740
898703;13546
898711;13798
898719;13782
898728;13905
898736;13722
898744;13760
898752;13644
898760;13787
898769;13610
898777;13645
898785;13475
898793;12300
898801;10281
898810;10689
898818;12766
898826;16951
898834;16525
898842;15734
898851;14853
898859;14643
898867;14481
898875;14058
898883;13469
898892;13378
898900;13200
898908;13198
898916;13483
898924;13814
898932;13630
898941;13603
898949;13517
898957;13418
898965;13130
898973;13041
898982;12873
898990;12578
898998;12431
899009;12424
899017;12397
899026;12493
899034;12519
899042;12695
899050;12866
899058;13367
899067;13656
899075;13925
899083;14240
899091;14408
899099;14447
899108;14546
899116;14589
899124;14656
899132;14572
899140;14491
899149;14392
899157;14293
899165;14312
899173;14352
899181;14229
899190;14091
899198;14119
899206;14067
899214;14003
899222;14017
899230;13928
899239;13889
899247;13920
899255;13933
899263;13867
899271;13892
899280;13936
899288;13855
899296;13851
899307;13943
899315;14004
899324;13967
899332;13901
899340;13776
899348;13709
899356;13691
899365;13685
899373;13692
899381;13673
899389;13692
899397;13646
899406;13617
899414;13686
899422;13576
899430;13605
899438;13574
899447;13629
899455;13520
899463;13498
899471;13437
899479;13517
899487;13537
899496;13484
899504;13392
899512;13340
899520;13272
899528;13311
899537;13287
899545;13292
899553;13239
899561;13161
899569;13182
899578;13202
899586;13163
899594;13238
899602;13112
899613;13223
899622;13450
899630;13375
899638;13299
899646;13210
899654;13251
899663;13295
899671;13185
899679;13183
899687;13212
899695;13255
899704;13167
899712;13174
899720;13160
899728;13159
899736;13072
899745;13159
899753;13135
899761;13215
899769;13120
899777;13107
899785;13085
899794;13213
899802;13101
899810;13138
899818;13008
899826;13046
899835;12931
899843;12956
899851;12933
899859;13020
899867;12981
899876;13151
899884;13100
899892;13320
899900;13232
899908;13185
899920;13144
899928;13222
899936;12674
899944;11251
899952;9545
899961;10335
899969;12868
899977;16446
899985;15965
899993;15242
900002;14442
900010;13978
900018;13655
900026;13459
900034;13455
900042;13393
900051;13339
900059;13352
900067;13280
900075;13225
900083;13333
900092;13199
900100;13146
900108;13107
900116;12966
900124;12873
900133;12626
900141;12627
900149;12255
900157;12147
900165;12108
900174;12156
900182;12146
900190;12326
900198;12477
900206;12700
900218;13016
900226;13250
900234;13483
900242;13703
900250;13842
900259;13983
900267;14111
900275;14153
900283;14016
900291;14127
900300;14079
900308;14062
900316;14009
900324;14003
900332;13978
900340;14000
900349;13852
900357;13822
900365;13797
900373;13781
900381;13752
900390;13769
900398;13751
900406;13737
900414;13708
900422;13770
900431;13697
900439;13699
900447;13684
900455;13629
900463;13654
