Tempo (ms);Valor
19;4644
27;3517
36;20135
44;3855
51;24549
59;1449
67;26164
76;2103
84;26308
92;185
100;26310
108;89
116;26315
124;12
132;26313
140;5
148;26310
156;2
165;26311
173;10
181;26307
189;47
196;26300
205;614
213;26238
221;1071
229;25063
237;3830
246;24691
254;9208
262;20615
270;11811
278;15878
286;18118
295;14324
302;19967
310;5744
318;23972
326;5204
335;25674
343;1615
351;25899
359;216
367;26256
376;122
384;26299
391;4
399;26306
407;7
415;26308
424;5
435;24747
443;682
451;26004
458;540
467;26245
475;21
483;26303
491;15
499;26315
508;5
516;26313
524;4
532;26310
539;3
548;26313
556;4
564;26300
572;29
580;26301
589;543
597;26193
605;704
613;24132
620;2828
628;24176
637;6709
645;17462
653;10436
661;17685
669;18548
678;14478
686;19090
694;4526
702;23397
710;6330
719;25209
726;581
734;25755
742;539
750;26287
759;168
767;26286
775;5
783;26314
791;3
799;26314
807;3
815;26309
823;4
831;26310
839;3
848;26305
859;31
866;26306
874;6
882;26312
891;5
899;26313
907;6
915;26312
923;3
932;26313
939;6
947;26277
955;130
963;26262
972;926
980;25676
988;1630
996;23474
1004;5026
1012;22440
1021;6847
1029;15862
1037;11276
1045;15232
1052;15462
1061;9093
1069;15644
1077;4384
1085;21075
1093;4154
1102;23208
1110;1113
1118;24978
1126;922
1134;26058
1143;373
1151;26244
1159;71
1167;26298
1175;17
1183;26308
1192;5
1200;26312
1207;4
1215;26308
1223;6
1232;26311
1240;3
1248;26311
1259;965
1267;26290
1276;21
1284;26308
1292;64
1300;26314
1307;10
1316;26308
1324;3
1332;26312
1340;5
1348;26318
1357;4
1365;26309
1373;5
1381;26313
1389;164
1398;26307
1406;66
1414;25613
1421;580
1429;25804
1437;1689
1446;23277
1454;3930
1462;22293
1470;8501
1478;19749
1487;11093
1495;14647
1503;15910
1511;11666
1519;20077
1528;7034
1536;22332
1544;4347
1552;24553
1560;2306
1569;25391
1577;905
1585;26205
1593;1513
1601;26289
1608;160
1617;26268
1625;6
1633;26303
1644;7127
1652;14293
1661;1871
1669;20684
1677;3970
1685;24617
1693;1517
1702;24272
1710;155
1718;25814
1726;103
1734;26074
1742;9
1750;26299
1758;9
1766;26311
1774;7
1783;26313
1791;7
1799;26310
1807;10
1815;26310
1823;49
1832;26290
1840;241
1848;26197
1855;790
1863;25873
1872;1936
1880;25083
1888;4075
1896;23847
1904;6932
1913;21723
1921;10890
1929;18723
1937;15475
1945;14856
1954;19286
1962;10349
1970;22233
1978;6920
1986;24233
1994;3709
2003;25214
2011;1633
2021;2521
2029;22683
2038;6967
2046;20248
2054;11614
2062;17216
2070;16452
2078;13692
2087;19647
2095;8829
2103;22441
2111;5425
2119;24338
2128;2477
2136;25306
2144;1001
2152;25969
2160;397
2169;26222
2177;112
2185;26297
2192;22
2200;26311
2209;4
2217;26313
2225;5
2233;26315
2241;4
2249;26311
2258;5
2266;26311
2274;6
2281;26305
2289;28
2298;26284
2306;156
2314;26163
2322;605
2330;25766
2339;1605
2347;24831
2355;3396
2363;23009
2371;6095
2380;19910
2388;10213
2399;26312
2407;34
2415;26304
2423;64
2431;26236
2439;257
2447;25964
2455;884
2463;25166
2472;2271
2480;23776
2488;4536
2496;21634
2504;7548
2513;18148
2521;11869
2529;14585
2537;16567
2545;10352
2554;20326
2562;6794
2570;22925
2578;3832
2586;24507
2595;1643
2603;25427
2610;628
2618;26014
2626;197
2634;26244
2643;54
2651;26295
2659;11
2667;26304
2675;6
2684;26306
2692;4
2700;26306
2708;6
2716;26307
2724;7
2732;26303
2740;7
2748;26295
2756;49
2765;26239
2773;297
2784;26308
2792;5
2800;26308
2809;7
2816;26305
2824;5
2832;26303
2840;5
2849;26298
2857;16
2865;26268
2873;122
2881;26113
2889;545
2898;25713
2906;1606
2914;24656
2922;3355
2930;22706
2939;6255
2947;19923
2955;10260
2962;15941
2970;14314
2979;12118
2987;19003
2995;8656
3003;21897
3011;5425
3020;23883
3028;2704
3036;24976
3044;1059
3052;25690
3060;362
3069;26135
3077;112
3085;26279
3093;24
3101;26307
3110;7
3118;26310
3125;6
3133;26309
3141;5
3150;26310
3158;5
3169;25859
3177;186
3185;26234
3194;59
3202;26298
3210;13
3218;26309
3225;5
3234;26312
3242;6
3250;26312
3258;6
3266;26310
3274;5
3283;26307
3291;5
3299;26299
3307;17
3315;26245
3323;129
3331;26069
3339;599
3347;25576
3355;1767
3364;24518
3372;3731
3380;22711
3388;6490
3396;19940
3405;10587
3413;16356
3421;15132
3429;11871
3437;18752
3446;8317
3454;21922
3462;4985
3470;23886
3478;2303
3486;25044
3495;926
3503;25803
3510;305
3518;26174
3526;92
3535;26287
3543;17
3554;13695
3562;8266
3570;19910
3579;6214
3587;23032
3595;3394
3603;24589
3611;1408
3620;25363
3628;517
3636;26006
3644;156
3651;26228
3660;32
3668;26286
3676;5
3684;26304
3692;3
3700;26308
3709;6
3717;26308
3725;4
3733;26308
3741;6
3749;26310
3757;4
3765;26291
3773;43
3781;26216
3790;248
3798;25975
3806;850
3814;25175
3822;2215
3831;23760
3839;4497
3847;21330
3855;8321
3863;18222
3871;12572
3880;14465
3888;16778
3896;10369
3904;20291
3911;6590
3920;22929
3928;3814
3939;701
3947;24924
3955;2863
3964;23510
3972;5743
3980;20887
3988;9685
3996;17254
4005;13642
4013;12960
4021;17916
4029;8946
4037;21599
4046;6088
4054;23798
4062;3216
4070;25113
4077;1321
4086;25784
4094;464
4102;26150
4110;118
4118;26270
4126;29
4135;26305
4143;9
4151;26308
4159;4
4167;26313
4176;6
4184;26315
4192;4
4199;26314
4207;8
4216;26312
4224;10
4232;26298
4240;61
4248;26230
4257;349
4265;25980
4273;1149
4281;25265
4289;2650
4297;23901
4306;5360
4314;21256
4324;6
4332;26313
4340;21
4349;26302
4357;62
4365;26261
4373;318
4381;26075
4390;1268
4398;25606
4406;3132
4414;24435
4422;5915
4431;22157
4439;9594
4447;18818
4455;13571
4463;14991
4472;17607
4480;10968
4487;20968
4495;7373
4503;23226
4511;4093
4520;24749
4528;1735
4536;25526
4544;645
4552;26037
4561;235
4569;26248
4577;56
4585;26306
4593;8
4602;26310
4610;4
4618;26311
4625;5
4633;26309
4642;7
4650;26307
4658;6
4666;26306
4674;9
4682;26288
4691;81
4699;26181
4709;7
4717;26309
4726;6
4734;26310
4742;6
4750;26302
4758;5
4766;26302
4775;5
4783;26296
4791;45
4799;26263
4806;257
4815;26110
4823;890
4831;25580
4839;2364
4847;24633
4856;4822
4864;22581
4872;8446
4880;20120
4888;12738
4897;16202
4905;17114
4913;11695
4921;20975
4929;8003
4937;23469
4946;4229
4954;24776
4962;1914
4970;25553
4978;633
4987;26024
4994;192
5002;26249
5010;54
5018;26297
5027;10
5035;26305
5043;4
5051;26309
5059;7
5068;26310
5076;6
5084;26304
5094;328
5102;26027
5111;130
5119;26246
5127;33
5135;26298
5143;6
5151;26305
5160;4
5168;26306
5176;6
5184;26307
5192;4
5201;26305
5208;5
5216;26301
5224;6
5232;26289
5241;79
5249;26233
5257;489
5265;26019
5273;1577
5282;25443
5290;3558
5298;24199
5306;6602
5314;22025
5322;10507
5331;18761
5339;14849
5347;14635
5354;18646
5362;10580
5371;21706
5379;6611
5387;23715
5395;3598
5403;24774
5412;1452
5420;25454
5428;504
5436;26027
5444;166
5453;26241
5461;35
5469;26299
5480;8079
5488;15373
5497;7001
5504;20031
5512;4886
5520;23006
5528;2482
5537;24540
5545;1016
5553;25576
5561;438
5569;26064
5577;142
5586;26251
5594;33
5602;26299
5610;6
5618;26305
5627;5
5635;26310
5643;4
5650;26309
5658;6
5667;26307
5675;4
5683;26302
5691;8
5699;26281
5708;76
5716;26179
5724;399
5732;25836
5740;1350
5748;25044
5757;2803
5765;23504
5773;5691
5780;21026
5788;9389
5797;17588
5805;13596
5813;13650
5821;17537
5829;9693
5838;20529
5846;6629
5857;320
5865;25801
5873;1525
5882;24787
5890;3329
5898;23096
5906;6543
5914;20530
5923;10365
5931;16864
5939;14678
5947;12828
5954;18414
5962;8931
5971;21648
5979;5437
5987;23762
5995;2780
6003;24913
6012;1192
6020;25761
6028;482
6036;26156
6044;126
6053;26271
6061;28
6069;26300
6077;4
6085;26304
6094;5
6102;26305
6109;5
6117;26306
6125;4
6134;26303
6142;5
6150;26298
6158;13
6166;26276
6174;93
6183;26143
6191;494
6199;25793
6207;1393
6215;24820
6224;3079
6232;23221
6242;6
6250;26305
6258;5
6267;26304
6275;15
6283;26287
6291;100
6299;26183
6308;476
6316;25898
6324;1479
6332;25089
6340;3034
6349;23501
6356;6004
6364;20994
6372;9806
6380;17732
6388;14039
6397;13837
6405;17644
6413;9945
6421;20728
6429;6353
6438;23217
6446;3451
6454;24750
6462;1374
6470;25567
6479;519
6487;26089
6495;160
6503;26271
6511;34
6520;26306
6528;9
6535;26308
6543;6
6551;26311
6559;5
6568;26313
6576;6
6584;26315
6592;3
6600;26310
6609;11
6617;26301
6627;16
6635;26312
6643;5
6652;26313
6660;3
6668;26313
6676;5
6684;26315
6693;4
6701;26311
6709;7
6716;26304
6724;54
6733;26256
6741;285
6749;26071
6757;983
6765;25513
6774;2362
6782;24369
6790;4694
6798;22132
6806;7861
6814;19071
6823;12130
6831;15264
6839;16416
6847;10931
6855;20135
6864;7603
6872;22756
6880;4246
6888;24287
6895;1882
6904;25271
6912;715
6920;25948
6928;230
6936;26223
6945;66
6953;26298
6961;13
6969;26305
6977;5
6985;26310
6994;4
7002;26309
7012;1399
7020;25029
7028;693
7037;25946
7045;267
7053;26218
7061;62
7069;26292
7078;12
7086;26310
7094;7
7102;26311
7110;8
7119;26312
7127;5
7134;26311
7142;6
7150;26304
7159;5
7167;26304
7175;31
7183;26254
7191;174
7199;26076
7208;718
7216;25554
7224;2039
7232;24263
7240;4101
7249;22201
7257;7494
7265;19282
7273;11478
7280;15256
7289;16030
7297;11382
7305;19642
7313;7413
7321;22519
7330;4511
7338;24341
7346;2111
7354;25327
7362;834
7370;26004
7379;287
7387;26242
7398;15324
7406;12767
7415;13240
7423;17333
7430;9677
7438;20860
7446;6363
7454;23339
7463;3365
7471;24740
7479;1510
7487;25641
7495;615
7504;26103
7512;206
7520;26262
7528;38
7536;26303
7545;7
7553;26311
7561;3
7569;26312
7576;5
7585;26313
7593;5
7601;26312
7609;6
7617;26310
7625;12
7634;26299
7642;81
7650;26224
7658;399
7666;25962
7675;1308
7683;25269
7691;2884
7699;23673
7706;5643
7715;21589
7723;9744
7731;18179
7739;13588
7747;14231
7756;17710
7764;10270
7775;123
7783;26172
7791;807
7800;25687
7808;2013
7816;24547
7824;4171
7832;22646
7841;7368
7849;19762
7857;11113
7864;15508
7872;15477
7880;11499
7889;19226
7897;7556
7905;22129
7913;4523
7921;24131
7930;2288
7938;25261
7946;851
7954;25966
7962;289
7971;26220
7979;61
7987;26295
7995;10
8003;26312
8012;6
8019;26312
8027;5
8035;26310
8043;3
8051;26309
8060;4
8068;26305
8076;4
8084;26306
8092;29
8101;26260
8109;186
8117;26062
8124;751
8132;25533
8141;2030
8149;24487
8160;6
8168;26311
8176;7
8185;26309
8193;7
8201;26302
8209;56
8217;26235
8225;311
8233;25972
8241;960
8249;25215
8257;2399
8265;23874
8274;4577
8282;21362
8290;8161
8298;18567
8306;12075
8315;14487
8323;16536
8331;10131
8339;20369
8347;6648
8356;22978
8364;3451
8372;24614
8380;1684
8388;25542
8397;626
8405;26054
8412;187
8420;26253
8428;46
8436;26304
8445;8
8453;26310
8461;2
8469;26309
8477;5
8486;26308
8494;4
8502;26310
8510;5
8517;26306
8526;10
8534;26299
8545;19
8553;26311
8561;4
8570;26312
8578;3
8586;26313
8594;3
8601;26310
8610;5
8618;26310
8626;4
8634;26303
8642;29
8650;26270
8659;185
8667;26083
8675;738
8683;25554
8691;2000
8700;24193
8708;3964
8716;22230
8724;7652
8732;19619
8741;11548
8749;15456
8756;15924
8764;11523
8772;19613
8781;7715
8789;22494
8797;4500
8805;24278
8813;2155
8822;25210
8830;850
8838;25914
8846;284
8854;26217
8862;73
8871;26293
8879;12
8887;26311
8895;6
8903;26307
8911;7
8919;26308
8930;1524
8938;25248
8946;732
8955;25990
8963;261
8971;26236
8979;77
8987;26299
8996;14
9004;26312
9012;3
9020;26309
9027;5
9036;26309
9044;4
9052;26307
9060;5
9068;26306
9076;6
9085;26299
9093;44
9101;26257
9109;239
9117;26088
9126;786
9134;25492
9141;2051
9149;24376
9157;4212
9166;22186
9174;7526
9182;19154
9190;11264
9198;15556
9207;15163
9215;11321
9223;19230
9231;7649
9239;22098
9247;4258
9256;24068
9264;2071
9272;25296
9280;795
9288;25985
9297;257
9305;26233
9315;14663
9323;12768
9331;12668
9340;17598
9348;9457
9356;21012
9364;6150
9372;23236
9381;3067
9389;24756
9397;1389
9405;25709
9413;505
9422;26132
9430;156
9438;26275
9446;31
9454;26300
9463;7
9470;26305
9478;4
9486;26307
9494;5
9502;26306
9511;3
9519;26308
9527;4
9535;26304
9543;10
9552;26287
9560;79
9568;26205
9575;391
9583;25902
9592;1181
9600;25125
9608;2797
9616;23612
9624;5318
9633;21059
9641;9046
9649;18078
9657;12910
9665;13931
9673;17037
9682;9738
9693;88
9701;26193
9709;727
9718;25732
9726;1842
9733;24652
9741;3664
9749;22708
9757;6696
9766;19788
9774;11011
9782;16220
9790;15131
9798;12051
9807;18978
9815;8264
9823;22082
9831;4894
9839;24042
9848;2264
9856;25309
9864;902
9872;25960
9880;284
9889;26220
9897;81
9905;26294
9912;15
9920;26305
9928;6
9937;26310
9945;6
9953;26312
9961;5
9969;26313
9978;5
9986;26310
9994;5
10002;26304
10009;24
10018;26274
10026;131
10034;26157
10042;551
10050;25775
10058;1566
10070;26315
10078;4
10086;26314
10094;5
10103;26310
10111;4
10119;26303
10127;12
10135;26288
10143;60
10152;26220
10160;287
10167;25969
10175;938
10183;25267
10192;2249
10200;23894
10208;4348
10216;21534
10224;7200
10233;18856
10241;10846
10249;15556
10257;14747
10265;11812
10274;18363
10282;8700
10290;21434
10298;5420
10306;23662
10314;2834
10323;25030
10331;1229
10339;25824
10347;423
10355;26172
10364;134
10372;26278
10380;32
10388;26304
10396;6
10404;26307
10412;8
10423;21879
10431;3796
10439;24293
10448;2092
10456;25446
10464;866
10472;25997
10480;266
10489;26229
10497;73
10505;26292
10513;14
10521;26307
10530;7
10538;26309
10546;6
10553;26311
10561;5
10569;26312
10578;4
10586;26310
10594;4
10602;26309
10610;7
10619;26302
10627;36
10635;26267
10643;195
10651;26088
10660;778
10668;25603
10676;2043
10684;24507
10692;4153
10701;22566
10709;7362
10717;19610
10725;11100
10733;16273
10742;14819
10749;13036
10757;18207
10765;9523
10776;111
10785;26192
10793;731
10801;25801
10809;1624
10817;24753
10825;3330
10834;22844
10842;6393
10850;20135
10858;10373
10866;17189
10875;14400
10883;13443
10891;17817
10899;9584
10907;20911
10916;6387
10924;23155
10932;3600
10940;24624
10948;1729
10957;25552
10964;695
10972;26058
10980;245
10988;26253
10996;64
11005;26296
11013;15
11021;26303
11029;7
11037;26312
11046;4
11054;26308
11062;6
11070;26308
11078;4
11087;26306
11095;6
11103;26303
11111;7
11119;26295
11130;27
11138;26309
11146;6
11154;26310
11162;4
11171;26306
11179;2
11187;26307
11195;5
11203;26305
11212;5
11220;26304
11228;4
11236;26298
11244;33
11252;26264
11260;154
11268;26126
11276;564
11284;25695
11292;1556
11301;24810
11309;3274
11317;23006
11325;6087
11333;20876
11342;9466
11350;17895
11358;13114
11366;14018
11374;16648
11383;10669
11391;20119
11399;7108
11407;22652
11415;4069
11423;24518
11432;2093
11440;25454
11448;743
11456;25998
11464;278
11473;26228
11483;14675
11491;12411
11499;13385
11507;16979
11516;10378
11524;20115
11532;6922
11540;22747
11548;4221
11557;24416
11565;2039
11573;25300
11581;906
11589;25958
11598;355
11606;26212
11614;84
11622;26287
11630;20
11639;26308
11647;5
11655;26312
11663;5
11671;26313
11679;4
11687;26312
11695;7
11703;26307
11711;2
11719;26304
11728;3
11736;26296
11744;24
11752;26266
11760;131
11769;26136
11777;540
11785;25689
11793;1633
11801;24750
11810;3466
11818;22958
11829;6
11836;26309
11844;5
11853;26309
11861;13
11869;26299
11877;57
11885;26246
11894;240
11902;26054
11910;756
11918;25447
11926;1861
11934;24379
11943;3925
11951;22275
11959;7154
11967;19585
11975;11158
11984;16125
11992;15077
12000;12268
12008;18406
12016;8896
12025;21655
12033;5367
12041;23718
12049;2867
12057;24971
12066;1265
12073;25751
12081;477
12089;26136
12097;168
12105;26267
12114;38
12122;26299
12130;9
12138;26306
12146;2
12155;26304
12163;5
12171;26310
12182;1356
12190;25371
12199;676
12207;26003
12215;268
12222;26240
12230;71
12239;26290
12247;16
12255;26302
12263;4
12271;26307
12280;4
12288;26309
12296;6
12304;26308
12312;5
12321;26310
12329;6
12337;26307
12345;5
12353;26301
12361;43
12370;26253
12378;193
12385;26061
12393;726
12401;25525
12410;1850
12418;24397
12426;4010
12434;22645
12442;7158
12451;20018
12459;10374
12467;16848
12475;14468
12483;13377
12492;17878
12500;10011
12508;21005
12516;6544
12524;23238
12536;25518
12544;1365
12552;24952
12560;3014
12568;23389
12577;5741
12585;20876
12593;9383
12601;17796
12609;12916
12617;14059
12625;16357
12633;10340
12641;19748
12649;7396
12657;22459
12666;4135
12674;24240
12682;2105
12690;25300
12698;936
12707;25898
12715;321
12723;26207
12731;96
12739;26286
12748;20
12756;26304
12764;5
12772;26310
12780;7
12788;26310
12797;6
12805;26314
12813;4
12821;26308
12828;5
12837;26307
12845;5
12853;26301
12861;27
12869;26272
12878;113
12889;26308
12897;6
12905;26307
12913;4
12922;26307
12930;5
12938;26305
12946;5
12953;26304
12962;4
12970;26301
12978;14
12986;26289
12994;80
13002;26206
13011;284
13019;25996
13027;947
13035;25395
13043;2074
13052;24122
13060;4228
13068;21857
13076;7578
13084;19149
13093;11690
13101;15582
13109;15539
13117;11874
13125;19002
13134;8282
13142;22025
13150;5205
13158;23863
13166;2676
13175;25018
13183;1150
13191;25786
13198;503
13206;26154
13214;151
13223;26272
13231;35
13242;12091
13250;10812
13258;18016
13267;8235
13275;21698
13283;5332
13291;23864
13299;2665
13308;25110
13316;1271
13324;25858
13332;473
13340;26166
13349;132
13357;26270
13365;33
13373;26300
13380;7
13389;26304
13397;4
13405;26305
13413;4
13421;26307
13430;3
13438;26308
13446;4
13454;26306
13462;4
13470;26301
13479;17
13487;26282
13495;112
13503;26185
13511;454
13520;25816
13528;1333
13536;25095
13543;2889
13551;23358
13560;5749
13568;21264
13576;9218
13584;17992
13595;6
13604;26304
13612;64
13620;26290
13628;185
13636;26149
13645;588
13653;25760
13661;1710
13669;24718
13677;3345
13686;22735
13694;6343
13702;20231
13710;10150
13718;16805
13725;13782
13734;13336
13742;17619
13750;10177
13758;20626
13766;6721
13775;23066
13783;3780
13791;24607
13799;1892
13807;25465
13816;784
13824;26035
13832;275
13840;26234
13848;62
13857;26296
13865;16
13873;26306
13881;6
13889;26307
13897;5
13906;26311
13914;3
13922;26311
13929;4
13940;25719
13949;434
13957;26138
13965;142
13973;26269
13981;35
13990;26302
13998;9
14006;26310
14014;7
14022;26309
14031;4
14039;26311
14047;4
14055;26308
14063;3
14071;26313
14079;3
14087;26310
14095;15
14103;26293
14111;81
14120;26223
14128;337
14136;25994
14144;906
14152;25334
14161;2306
14169;24076
14177;4540
14185;21535
14193;7783
14202;18684
14210;12145
14218;15197
14226;15729
14234;11326
14243;19305
14251;8231
14259;22078
14267;4864
14275;24005
14284;2639
14294;1242
14302;23819
14310;4170
14318;21591
14327;7717
14335;19101
14343;11449
14351;15708
14359;15128
14367;12383
14376;18623
14384;9205
14392;21446
14400;5475
14408;23691
14417;2984
14425;25052
14433;1267
14441;25819
14449;525
14458;26182
14466;157
14474;26283
14482;30
14490;26308
14499;7
14506;26315
14514;4
14522;26315
14530;4
14538;26314
14547;6
14555;26312
14563;5
14571;26309
14579;6
14588;26305
14596;12
14604;26292
14612;82
14620;26208
14629;375
14637;25940
14647;7
14655;26312
14663;5
14672;26311
14680;5
14688;26309
14696;6
14704;26308
14713;7
14721;26297
14729;66
14737;26232
14745;267
14754;26022
14762;884
14770;25370
14778;2082
14786;24084
14794;4180
14803;22110
14811;7476
14818;19199
14826;11559
14834;15925
14843;15189
14851;12312
14859;18379
14867;8562
14875;21473
14884;5579
14892;23661
14900;3094
14908;24901
14916;1476
14925;25772
14933;593
14941;26135
14949;168
14957;26274
14966;40
14974;26306
14982;11
14990;26314
15001;6349
15010;20704
15018;5284
15026;23443
15033;2882
15041;25003
15049;1451
15058;25816
15066;624
15074;26171
15082;234
15090;26286
15099;64
15107;26307
15115;13
15123;26313
15131;6
15140;26312
15148;5
15156;26311
15164;5
15172;26314
15181;4
15189;26312
15197;3
15205;26308
15212;10
15220;26301
15229;48
15237;26235
15245;205
15253;25982
15261;732
15270;25413
15278;1925
15286;24261
15294;3870
15302;22205
15311;6778
15319;19319
15327;10576
15335;15704
15343;14586
15355;26308
15363;133
15371;26282
15379;293
15387;26095
15396;861
15404;25602
15412;2111
15419;24444
15427;4409
15436;22695
15444;8257
15452;20273
15460;12852
15468;17231
15476;16665
15485;13744
15493;19505
15501;10214
15509;21924
15517;6811
15526;23814
15534;3568
15542;24939
15550;1614
15558;25709
15567;623
15575;26120
15583;196
15591;26268
15599;52
15608;26306
15616;10
15624;26315
15632;5
15640;26313
15649;5
15657;26309
15664;3
15672;26312
15680;5
15688;26312
15700;209
15708;26213
15716;72
15724;26298
15732;18
15741;26313
15749;5
15757;26315
15765;4
15773;26314
15782;4
15790;26316
15797;4
15805;26311
15813;5
15822;26308
15830;6
15838;26298
15846;30
15854;26252
15863;131
15871;26056
15879;430
15887;25418
15895;1311
15903;24157
15912;2792
15920;21654
15928;5173
15936;18375
15944;8710
15953;14829
15961;12757
15969;11422
15977;16891
15985;8325
15994;20388
16001;5374
16009;23024
16017;3005
16025;24607
16034;1213
16042;25377
16053;20392
16061;3947
16069;17250
16078;6159
16086;11735
16094;8990
16102;7247
16110;13993
16119;4057
16127;17072
16135;1643
16143;18862
16151;2837
16159;26317
16168;10674
16176;26310
16184;403
16192;26034
16199;14
16208;26063
16216;4
16224;26276
16232;4
16240;26310
16249;4
16257;26308
16265;5
16273;26314
16281;5
16290;26314
16298;5
16306;26294
16314;6
16322;26046
16330;5
16339;24978
16346;1
16354;21845
16362;4
16370;17670
16379;1
16387;13352
16395;5
16403;9601
16411;6
16423;26032
16431;3
16439;25358
16447;4
16454;17418
16463;6
16471;10915
16479;5
16487;9192
16495;4
16504;7255
16512;4
16520;6245
16528;5
16536;6733
16545;4
16553;7256
16561;60
16569;7983
16577;546
16585;5122
16594;1285
16602;3573
16609;3897
16617;2831
16625;10084
16634;2033
16642;14340
16650;1179
16658;20279
16666;1096
16675;24253
16683;1096
16691;25884
16699;1232
16707;26277
16716;962
16724;26316
16732;331
16740;26318
16748;459
16756;26318
16765;866
16773;26315
16784;26320
16792;26318
16801;24153
16809;24321
16816;3113
16824;26277
16832;1054
16840;26316
16849;18882
16857;26319
16865;995
16873;26311
16881;16
16890;26315
16898;36
16906;26317
16914;10
16922;26319
16931;5
16939;26317
16947;321
16955;26316
16963;766
16972;26319
16980;820
16988;26318
16996;895
17004;26312
17012;3282
17021;26302
17029;6673
17036;26183
17044;9733
17052;25730
17061;13747
17069;24553
17077;17426
17085;23129
17093;21870
17102;20132
17110;23613
17121;26317
17129;1874
17137;26310
17146;4587
17154;26258
17162;8928
17170;26102
17178;14956
17187;25973
17195;21557
17203;26259
17211;25975
17219;26319
17228;26276
17236;25619
17244;26266
17252;19510
17260;26165
17268;11039
17277;26262
17284;5485
17292;26289
17300;2125
17308;26311
17317;814
17325;26317
17333;152
17341;26309
17349;9
17358;26310
17366;4
17374;26314
17382;7
17390;26318
17399;5
17407;26313
17415;4
17423;26312
17431;4
17439;26314
17447;19
17455;26299
17463;99
17474;26313
17482;7
17491;26313
17499;6
17507;26316
17515;7
17523;26316
17532;4
17540;26315
17548;5
17556;26317
17564;38
17573;26318
17581;134
17588;26303
17596;498
17604;26250
17613;1437
17621;26053
17629;2775
17637;25465
17645;4735
17654;24275
17662;7063
17670;22315
17678;10370
17686;19257
17694;13716
17703;15487
17711;15547
17719;10173
17727;19211
17735;7434
17744;22487
17752;5101
17760;24599
17768;3202
17776;25633
17785;1526
17793;26055
17801;582
17809;26228
17819;18239
17828;13095
17836;15338
17844;17018
17852;11816
17860;19455
17869;8216
17877;22980
17885;4559
17893;24868
17901;2526
17910;25632
17918;1283
17926;26056
17934;110
17942;25055
17950;9
17959;25270
17967;7
17975;26220
17983;5
17991;26308
18000;5
18007;26313
18015;5
18023;26314
18031;3
18040;26312
18048;5
18056;26318
18064;5
18072;26315
18081;8
18089;26310
18097;69
18105;26252
18113;316
18121;26054
18130;1069
18138;25594
18146;2685
18154;24746
18162;5538
18173;26311
18181;3
18189;26311
18197;7
18205;26320
18214;43
18222;26308
18230;247
18238;26239
18246;1030
18255;26002
18263;2071
18271;25309
18279;3763
18287;23992
18296;6791
18304;21597
18312;10531
18320;19788
18328;13943
18337;16825
18345;17454
18353;13077
18361;19639
18369;9582
18376;22456
18385;6357
18393;24388
18401;4016
18409;25468
18417;2069
18426;26027
18434;1034
18442;26234
18450;458
18458;26296
18467;141
18475;26313
18483;34
18491;26315
18499;8
18508;26317
18519;7863
18527;24537
18535;4784
18543;25572
18552;2604
18560;26052
18567;1283
18575;26242
18583;534
18591;26304
18600;155
18608;26316
18616;30
18624;26319
18632;8
18641;26318
18649;2
18657;26319
18665;5
18673;26321
18682;5
18690;26318
18698;5
18706;26315
18714;27
18723;26319
18731;131
18739;26300
18747;470
18754;26195
18762;1257
18771;25841
18779;2671
18787;24828
18795;4631
18803;22375
18812;6563
18820;17944
18828;8910
18836;12990
18844;13059
18853;8788
18861;17978
18872;26027
18880;398
18888;25545
18897;1378
18905;25299
18913;3443
18921;24310
18929;6217
18938;22008
18946;10339
18954;19694
18962;14546
18969;16978
18978;18950
18986;14046
18994;21847
19002;10462
19010;23881
19018;7385
19027;24926
19035;4221
19043;25650
19051;2237
19059;26038
19068;1971
19076;26263
19084;1025
19092;26291
19100;318
19109;26308
19117;65
19125;26311
19133;14
19141;26314
19150;5
19158;26315
19166;4
19174;26315
19182;4
19190;26316
19198;4
19206;26318
19217;292
19225;26297
19234;66
19242;26313
19250;10
19258;26318
19266;5
19274;26317
19283;6
19291;26313
19299;5
19307;26314
19315;5
19324;26316
19331;9
19339;26312
19347;81
19355;26265
19364;352
19372;26074
19380;834
19388;25446
19396;2093
19405;23791
19413;4263
19421;25164
19429;6142
19437;23010
19446;10627
19454;19752
19462;14104
19470;16419
19478;18180
19486;13496
19495;21163
19503;9738
19511;23742
19519;5855
19527;24802
19536;2634
19544;25684
19552;1181
19560;26121
19570;22679
19579;9689
19587;20712
19595;13530
19603;18327
19611;17353
19620;15226
19628;20619
19636;12104
19644;22455
19652;8575
19661;24391
19669;5235
19677;25412
19685;2919
19693;25985
19702;1402
19710;26220
19718;564
19726;26298
19734;168
19742;26310
19751;31
19759;26314
19767;7
19774;26316
19782;6
19791;26318
19799;5
19807;26313
19815;7
19823;26319
19832;12
19840;26314
19848;54
19856;26298
19864;195
19873;26176
19881;582
19889;25744
19897;997
19905;24845
19916;5
19924;26311
19932;6
19940;26311
19948;6
19956;26312
19965;6
19973;26311
19981;28
19989;26293
19997;120
20006;26187
20014;455
20022;25860
20030;1332
20038;24916
20047;2936
20055;22989
20063;5640
20071;20665
20079;8910
20088;17387
20096;15199
20104;14183
20112;18356
20119;10752
20127;21683
20136;7804
20144;23955
20152;4904
20160;25278
20168;2627
20177;25937
20185;1183
20193;26214
20201;548
20209;26294
20218;142
20226;26313
20234;28
20242;26313
20250;8
20259;26315
20270;7353
20278;23971
20286;3914
20294;25093
20303;1674
20311;25808
20319;756
20326;26127
20334;324
20343;26207
20351;147
20359;26255
20367;20
20375;26300
20383;5
20392;26312
20400;4
20408;26316
20416;6
20424;26318
20433;4
20441;26316
20449;7
20457;26316
20465;5
20474;26314
20481;9
20489;26291
20497;69
20505;26185
20514;260
20522;25945
20530;1282
20538;25713
20546;3551
20554;24816
20563;6474
20571;23005
20579;9962
20587;20549
20595;14227
20604;16985
20612;18577
20623;26313
20631;415
20639;26274
20648;738
20656;26107
20664;1538
20672;25664
20680;3522
20688;25247
20696;5668
20704;24202
20712;8637
20720;22742
20729;12025
20737;20419
20745;15528
20753;17850
20761;18622
20770;14445
20778;21266
20786;10720
20794;23384
20802;7222
20810;24820
20819;4333
20827;25739
20835;2295
20843;26139
20851;1078
20860;26274
20868;413
20876;26307
20884;102
20892;26316
20901;19
20909;26316
20917;6
20925;26317
20932;4
20941;26316
20949;5
20957;26315
20968;1499
20976;26215
20985;559
20993;26292
21001;128
21009;26307
21017;34
21026;26312
21034;6
21042;26309
21050;5
21058;26311
21065;3
21074;26312
21082;6
21090;26315
21098;4
21106;26309
21115;6
21123;26289
21131;36
21139;26189
21147;168
21156;25826
21164;576
21172;24888
21180;1518
21188;23476
21197;3297
21205;21227
21213;6262
21221;18429
21229;9439
21238;14676
21246;13331
21254;11162
21261;17246
21269;7398
21277;19869
21286;4217
21294;22492
21302;2251
21310;24335
21321;23207
21330;2480
21338;19848
21346;5977
21354;9304
21362;4805
21371;5513
21379;9879
21387;3542
21395;26286
21403;6505
21412;24897
21420;1957
21428;25939
21436;1437
21444;13528
21452;4
21460;198
21468;5
21476;5
21484;6
21492;24031
21501;6
21509;26245
21517;5
21525;26306
21533;8
21542;26289
21550;5
21558;25747
21566;3
21573;23121
21582;3
21590;20614
21598;5
21606;19056
21614;2
21623;16275
21631;4
21639;12105
21647;3
21655;8332
21663;34
21672;5678
21680;214
21691;25516
21698;3
21706;24344
21715;4
21723;22164
21731;4
21739;19034
21747;6
21756;19135
21764;6
21772;10414
21780;75
21788;8685
21797;558
21805;6192
21813;2277
21821;3345
21829;3219
21838;1388
21846;4580
21854;543
21861;7139
21869;135
21878;10673
21886;29
21894;15138
21902;7
21910;18486
21918;4
21927;22553
21935;5
21943;25013
21951;5
21959;26028
21968;5
21976;26270
21984;8
21992;26309
22000;5
22009;26310
22016;6
22024;26281
22032;4
22040;26075
22049;2
22060;25670
22068;5
22076;26217
22084;4
22093;26299
22101;2
22109;26314
22117;5
22124;26318
22132;4
22141;26309
22149;6
22157;26255
22165;5
22173;26058
22182;4
22190;25356
22198;14
22206;23991
22214;70
22223;21677
22231;289
22239;16689
22247;1838
22255;16469
22264;1919
22272;9957
22280;2470
22288;5483
22296;6490
22305;3769
22313;10628
22320;2207
22328;15692
22336;1196
22344;17062
22353;454
22361;23033
22369;233
22377;24691
22385;51
22394;25317
22402;6
22410;25840
22421;6412
22429;6254
22438;3473
22446;13439
22454;2882
22462;19209
22470;2150
22479;23162
22487;1305
22495;24889
22502;515
22510;25674
22519;133
22527;26088
22535;27
22543;26244
22551;7
22559;26309
22568;7
22576;26313
22584;7
22592;26316
22600;6
22609;26311
22617;4
22625;26313
22633;6
22641;26310
22650;8
22657;26291
22665;13
22673;26193
22681;57
22690;25919
22698;249
22706;25159
22714;602
22722;23197
22730;431
22739;19569
22747;3953
22755;19988
22763;9687
22771;18263
22783;11
22791;26314
22799;75
22807;26305
22815;177
22824;26193
22832;352
22840;25618
22848;689
22856;24185
22864;1220
22872;21194
22880;2655
22888;18077
22896;4871
22905;14289
22913;6275
22921;10723
22929;13539
22937;7789
22946;3766
22954;3074
22962;11668
22970;2597
22978;16676
22986;1952
22995;22536
23003;1455
23011;25024
23019;445
23027;26131
23036;136
23044;26093
23052;17
23060;26302
23068;10
23077;26315
23085;5
23092;26313
23100;6
23108;26314
23117;4
23125;26316
23136;1137
23144;25666
23152;732
23161;26111
23169;177
23177;26274
23185;68
23193;26307
23202;11
23210;26312
23218;6
23226;26314
23234;4
23241;26313
23250;6
23258;26313
23266;5
23274;26318
23282;5
23291;26316
23299;33
23307;26317
23315;48
23323;26305
23332;74
23340;26216
23348;430
23356;26115
23364;2424
23373;26072
23381;3735
23389;24492
23397;4935
23405;22072
23414;9599
23422;23018
23430;14048
23438;17083
23446;20454
23453;21345
23462;24530
23470;16230
23478;25190
23497;3008
23506;26254
23514;4303
23522;25887
23530;6882
23538;25318
23547;9984
23555;23712
23563;14120
23571;21632
23579;17761
23588;19284
23596;21207
23604;19294
23612;24489
23620;15596
23629;25468
23637;11222
23645;25861
23653;6314
23661;26063
23670;3537
23678;26251
23686;1503
23694;26305
23701;699
23709;26314
23718;509
23726;26314
23734;118
23742;26315
23750;33
23759;26314
23767;5
23775;26311
23783;4
23791;26307
23800;4
23808;26314
23816;7
23824;26310
23835;314
23844;26315
23851;50
23859;26311
23867;8
23875;26313
23884;5
23892;26313
23900;5
23908;26314
23916;7
23924;26313
23933;26
23941;26315
23949;131
23957;26312
23965;494
23974;26300
23982;1422
23990;26196
23998;2883
24006;25941
24015;5215
24023;25236
24031;7898
24039;23740
24046;11831
24055;21971
24063;15186
24071;19642
24079;19753
24087;16875
24095;22739
24104;13144
24112;24488
24120;10254
24128;25384
24136;7532
24145;25835
24153;3789
24161;26076
24169;2211
24180;6397
24189;22534
24197;12217
24205;20927
24213;17191
24221;18648
24230;20828
24238;14707
24246;22721
24254;10668
24262;24406
24271;7477
24279;25475
24287;3958
24294;25871
24302;2012
24311;26138
24319;710
24327;26258
24335;234
24343;26303
24351;49
24360;26313
24368;9
24376;26314
24384;6
24392;26317
24401;5
24409;26314
24417;6
24425;26314
24433;5
24442;26313
24450;4
24458;26313
24465;45
24473;26313
24482;213
24490;26269
24498;659
24506;26097
24514;1631
24522;25673
24534;4
24542;26314
24550;6
24558;26313
24567;4
24575;26314
24583;6
24591;26311
24599;35
24606;26285
24615;179
24623;26170
24631;564
24639;25716
24647;1503
24656;24943
24664;3158
24672;23666
24680;5737
24688;21269
24697;8056
24705;17842
24713;12144
24721;14471
24729;14511
24738;7970
24746;15995
24754;6126
24762;22486
24770;5133
24778;24337
24787;3390
24795;24164
24803;1464
24811;25037
24819;572
24828;26126
24836;378
24844;26263
24852;89
24859;26304
24868;11
24876;26308
24887;5186
24895;18251
24903;5993
24912;22691
24920;3255
24928;24129
24936;1780
24944;25458
24953;945
24961;25939
24969;312
24977;26241
24985;100
24994;26278
25002;10
25010;26310
25018;8
25026;26315
25034;7
25042;26315
25050;4
25058;26317
25066;4
25074;26314
25083;5
25091;26317
25099;6
25107;26315
25115;12
25124;26300
25132;31
25140;26157
25148;81
25156;25665
25165;295
25173;24552
25181;1028
25189;23006
25197;2894
25206;21215
25214;5915
25222;16609
25230;11008
25240;26310
25249;55
25257;26313
25265;392
25273;26308
25281;2137
25289;7
25298;6
25306;3
25314;5
25322;57
25330;4
25339;11383
25347;13114
25355;26297
25363;26189
25371;26272
25379;26299
25387;20343
25395;25877
25403;8471
25411;22442
25420;1681
25428;24115
25436;1911
25444;26019
25452;1628
25460;26086
25469;377
25477;26265
25485;94
25493;26234
25501;8
25510;26314
25518;5
25526;26316
25534;4
25542;26316
25551;5
25559;26308
25567;3
25574;25969
25582;3
25591;21452
25602;26320
25610;26291
25618;5
25626;26314
25635;6
25643;26312
25651;66
25659;26314
25667;6
25676;26312
25684;5
25692;26313
25699;7
25707;26310
25715;5
25724;26316
25732;44
25740;26305
25748;26
25756;26133
25765;148
25773;26031
25781;901
25789;25685
25797;2304
25806;24792
25814;3769
25822;22434
25830;8242
25838;20163
25847;13366
25855;16280
25863;17016
25871;13059
25879;21347
25887;9669
25896;22553
25904;3922
25912;24183
25920;3243
25928;25576
25936;1297
25944;25771
25955;20305
25963;6059
25971;19495
25980;10905
25988;16088
25996;13283
26004;12585
26012;16979
26021;8963
26029;17501
26037;5363
26045;23298
26053;6245
26062;25175
26070;2255
26078;25731
26086;708
26094;25952
26103;168
26111;26205
26119;39
26127;26264
26135;8
26143;26299
26151;2
26159;26299
26167;4
26175;26313
26183;6
26192;26310
26200;3
26208;26306
26216;6
26224;26301
26233;7
26241;26273
26249;24
26257;26258
26265;183
26274;26029
26282;728
26290;25632
26298;1855
26308;26312
26317;5
26325;26309
26333;4
26341;26311
26349;5
26358;26307
26366;17
26374;26271
26382;52
26390;25812
26398;103
26407;24246
26415;2425
26423;24785
26431;1952
26439;20973
26448;3101
26456;19167
26464;7066
26471;13964
26479;6759
26488;6981
26496;9180
26504;4243
26512;17797
26520;3226
26529;19923
26537;1449
26545;22089
26553;468
26561;23972
26569;237
26578;26042
26586;336
26594;26265
26602;16
26610;26125
26619;5
26627;26244
26635;7
26643;26298
26651;3
26662;17610
26670;784
26678;24019
26686;682
26694;25776
26703;1074
26711;26284
26719;569
26727;26302
26735;197
26744;26311
26752;44
26760;26308
26768;4
26776;26304
26785;6
26793;26305
26801;6
26809;26309
26817;4
26824;26311
26833;4
26841;26309
26849;5
26857;26303
26865;3
26874;26290
26882;37
26890;26257
26898;826
26906;26257
26915;3798
26923;26105
26931;8515
26939;25709
26947;11007
26956;24155
26964;13301
26972;21386
26980;16250
26988;18335
26996;19153
27005;13661
27015;219
27023;26267
27031;920
27039;25864
27048;3941
27056;25924
27064;4664
27072;22876
27080;8153
27089;20784
27097;15788
27105;22626
27113;17439
27121;10685
27130;18931
27138;7595
27146;21088
27154;4696
27162;23219
27171;2847
27179;24859
27187;1002
27195;25644
27203;266
27212;26070
27220;115
27227;26227
27235;11
27243;26240
27251;8
27260;26312
27268;8
27276;26311
27284;6
27292;26307
27301;7
27309;26312
27317;13
27325;26312
27333;154
27342;26310
27350;216
27358;26313
27368;1562
27376;26314
27385;368
27393;26312
27401;5
27409;26282
27417;5
27426;26078
27434;7
27442;24883
27450;4
27458;10123
27466;5
27475;10996
27483;5
27491;19804
27499;5
27507;24829
27515;4
27523;25746
27531;28
27539;25991
27547;732
27556;25538
27564;1219
27572;24245
27580;4833
27588;25038
27597;11241
27605;21951
27613;9971
27621;16796
27629;15241
27638;12084
27646;21126
27654;10555
27662;25017
27670;9261
27678;26146
27687;7291
27695;26295
27703;5140
27711;26309
27721;24370
27730;20305
27738;22322
27746;22403
27754;19362
27762;24618
27771;17589
27779;25621
27787;13674
27795;25310
27803;5476
27812;25629
27820;2601
27828;25913
27836;911
27844;26204
27853;376
27861;26295
27869;87
27877;26291
27885;6
27894;26311
27902;21
27910;26314
27918;5
27926;26314
27934;5
27942;26316
27950;7
27958;26315
27966;10
27974;26315
27983;28
27991;26315
27999;66
28007;26296
28015;507
28024;26213
28032;1403
28040;26116
28048;3130
28056;25713
28068;4
28076;26316
28084;5
28092;26313
28100;19
28109;26313
28116;76
28124;26308
28132;129
28140;26293
28148;437
28157;26149
28165;963
28173;25572
28181;1615
28189;24672
28198;5718
28206;24219
28214;7294
28222;20900
28230;9581
28239;17663
28247;15145
28255;14308
28263;19093
28271;11977
28280;22258
28288;7499
28296;24998
28304;5395
28312;21932
28321;531
28329;25402
28337;901
28345;26195
28353;382
28361;26243
28369;60
28377;26295
28385;18
28393;26307
28401;5
28410;26317
28421;4244
28429;20318
28437;3028
28445;22347
28454;1423
28462;22009
28470;301
28478;23366
28486;103
28495;24658
28503;32
28511;25146
28519;11
28527;25990
28536;9
28543;26270
28551;4
28559;26308
28567;6
28575;26311
28584;5
28592;26315
28600;5
28608;26311
28616;4
28625;26308
28633;4
28641;26294
28649;47
28657;26297
28666;21
28674;24665
28682;285
28690;24015
28698;2143
28707;22698
28715;4236
28722;20320
28730;6925
28738;17043
28746;10805
28755;14423
28763;13689
28774;26291
28782;23
28791;26153
28799;18
28807;25137
28815;4
28823;21894
28831;6
28840;20947
28848;125
28856;18648
28864;97
28872;14643
28881;1062
28888;19292
28896;9589
28904;23397
28912;9000
28921;9191
28929;6565
28937;5952
28945;14492
28953;9590
28962;24786
28970;17952
28978;23987
28986;1232
28994;16569
29002;256
29011;22595
29019;200
29027;25417
29035;93
29043;26030
29052;18
29060;26163
29068;6
29076;26273
29084;4
29093;26304
29100;6
29108;26315
29116;5
29124;26312
29136;134
29144;22744
29152;8
29160;23171
29168;3
29177;25876
29185;5
29193;26302
29201;6
29209;26265
29218;6
29226;25884
29233;3
29241;26308
29249;6
29257;26308
29266;19
29274;26309
29282;44
29290;26310
29298;135
29307;26310
29315;217
29323;25986
29331;134
29339;26124
29348;2011
29356;26186
29364;9442
29372;25362
29380;2676
29389;25414
29397;26120
29405;13750
29413;1642
29421;10780
29430;15744
29438;11492
29446;20747
29453;12216
29461;26312
29469;26315
29478;26317
29489;26314
29497;13965
29505;26308
29513;7612
29522;25226
29530;3984
29538;21551
29546;10171
29554;23001
29563;22221
29571;20483
29579;16707
29587;8686
29595;14803
29604;3904
29612;17645
29620;1458
29628;19724
29636;479
29645;22350
29653;147
29661;24431
29668;47
29676;25631
29684;12
29693;26063
29701;6
29709;26257
29717;4
29725;26294
29734;5
29742;26301
29750;4
29758;26304
29766;4
29775;26301
29783;4
29791;26309
29799;4
29807;26311
29816;74
29824;26306
29831;224
29842;26311
29850;7
29859;26312
29867;5
29875;26311
29883;5
29891;26309
29900;1
29908;26312
29916;4
29924;26304
29932;5
29940;26205
29948;6
29956;25404
29964;13
29972;24431
29980;408
29989;25586
29997;7155
30005;26109
30013;10086
30021;20160
30030;302
30038;4468
30046;1360
30054;8648
30062;14521
30071;15108
30079;22509
30087;13923
30095;25014
30103;11805
30111;25807
30120;8538
30128;26221
30136;8311
30144;26308
30152;14510
30161;26312
30169;26181
30177;26311
30187;26312
30195;26313
30204;26312
30212;26314
30220;26312
30228;26312
30236;26313
30245;26312
30253;26310
30261;26312
30269;26313
30277;26313
30286;26313
30294;26314
30302;26303
30310;26312
30318;24847
30327;26316
30335;20159
30343;26317
30351;26252
30359;26315
30367;26287
30376;26317
30384;25300
30392;26313
30400;25
30408;26299
30417;3
30424;5
30432;5
30440;7
30448;4
30457;6
30465;5
30473;4
30481;6
30489;5
30498;4
30506;5
30513;4
30521;2
30529;5
30537;3
30546;6
30557;5
30565;5
30573;10368
30582;4
30590;16493
30597;6
30605;14218
30613;19
30621;13627
30630;494
30638;12986
30646;2493
30654;11713
30662;6913
30671;11454
30679;15845
30687;13883
30695;23279
30703;16789
30712;25991
30720;18786
30728;26298
30736;23412
30744;26310
30753;26296
30761;26307
30769;26302
30777;26308
30785;26176
30793;26307
30802;920
30810;26306
30818;7
30826;26305
30834;4
30842;26289
30850;5
30858;26183
30866;6
30874;1973
30883;5
30891;4
30899;5
30907;4
30918;6
30927;3
30934;5
30942;3504
30950;4
30958;709
30967;4
30975;3
30983;7
30991;6
30999;4
31007;3
31016;4
31024;14271
31032;4
31039;25958
31047;73
31056;24521
31064;31
31072;22194
31080;1041
31088;24464
31097;12751
31105;26144
31113;21329
31121;25029
31129;14490
31138;12691
31146;3769
31154;4805
31162;14756
31170;12725
31178;25707
31187;21418
31195;26314
31203;26244
31211;26311
31219;26304
31228;26315
31236;26310
31244;26320
31252;26318
31260;26316
31269;26317
31279;26311
31287;26316
31295;26315
31303;26312
31312;26312
31320;26312
31328;26313
31336;26312
31344;26311
31353;26313
31361;26314
31369;26309
31377;26311
31385;26309
31394;26309
31402;26310
31410;26310
31418;26311
31426;26310
31434;564
31443;25819
31451;3
31459;10580
31467;6
31475;2199
31484;5
31492;5
31499;4
31507;6
31515;4
31524;4
31532;6
31540;5
31548;6
31556;3
31565;4
31573;4
31580;5
31588;3
31596;4
31604;4
31613;4
31621;117
31629;10427
31637;10235
31645;17228
31657;10563
31665;5
31673;4
31681;5
31688;5
31697;6
31705;3
31713;3
31721;5
31729;6
31738;6
31746;5
31754;4
31762;5
31769;7
31778;804
31786;805
31794;26218
31802;5172
31810;26312
31818;8350
31827;26312
31835;12260
31843;26310
31851;11403
31859;26314
31868;9226
31876;26311
31884;8326
31892;26311
31900;10443
31909;26314
31917;10455
31925;26314
31933;9712
31941;26315
31950;10885
31958;26315
31966;11950
31974;26307
31982;15004
31991;26309
31999;18704
32007;26311
32017;21562
32025;26315
32034;26114
32042;26310
32050;26062
32058;26310
32066;26261
32074;26312
32083;26266
32091;26312
32099;26225
32107;26312
32115;26079
32124;26309
32132;22412
32140;26309
32148;14956
32156;26310
32165;7681
32173;26291
32181;6623
32189;25928
32197;6530
32206;24127
32214;8106
32222;21093
32230;10982
32238;18083
32247;14435
32255;15029
32263;18405
32271;12259
32279;21678
32286;9499
32295;24002
32303;6763
32311;25353
32319;4221
32327;25982
32336;2253
32347;4220
32355;23037
32363;10340
32371;20552
32380;13128
32388;16361
32396;16458
32404;12619
32412;19927
32421;9012
32429;22650
32437;5776
32445;24568
32453;3535
32462;25649
32470;2003
32478;26108
32486;1002
32494;26269
32502;433
32510;26305
32518;141
32526;26307
32534;28
32542;26309
32551;8
32559;26306
32567;8
32575;26304
32583;3
32592;26305
32600;7
32608;26306
32616;9
32624;26306
32633;33
32641;26295
32649;160
32657;26248
32665;653
32673;26085
32681;2080
32689;25724
32700;4
32708;26308
32717;4
32725;26312
32733;5
32741;26309
32749;18
32758;26309
32766;74
32774;26296
32782;282
32790;26233
32798;2244
32807;26294
32815;1666
32823;26126
32830;447
32838;22411
32847;6273
32855;21573
32863;6982
32871;16926
32879;9406
32888;12306
32896;11241
32904;10077
32912;15004
32920;7463
32929;19581
32937;5380
32945;23067
32953;3819
32961;25185
32969;2290
32978;26000
32986;1128
32994;26238
33002;442
33010;26295
33019;108
33027;26305
33035;20
33045;18383
33053;9758
33062;22431
33070;6674
33078;24189
33086;3574
33094;25290
33103;1704
33111;25845
33119;690
33127;26125
33135;197
33144;26244
33152;40
33160;26288
33168;7
33176;26299
33185;5
33193;26301
33201;5
33209;26303
33217;4
33225;26300
33233;4
33241;26307
33249;4
33257;26306
33265;9
33274;26292
33282;33
33290;26210
33298;122
33306;25895
33315;414
33323;25001
33331;1050
33339;23152
33347;2459
33356;20498
33364;4928
33372;16955
33380;8089
33388;13468
33399;5
33407;26291
33415;33
33423;26154
33431;116
33439;25766
33448;400
33456;24862
33464;1050
33472;23083
33480;2628
33489;20644
33497;4853
33505;16950
33513;7898
33521;13282
33530;11563
33538;9554
33546;15717
33554;6083
33562;18986
33571;3514
33579;21550
33587;1761
33595;23168
33603;641
33612;24379
33620;155
33627;25333
33635;28
33643;25812
33651;9
33660;26185
33668;5
33676;26291
33684;7
33692;26306
33701;5
33709;26315
33717;5
33725;26311
33733;5
33742;26315
33752;430
33760;26211
33768;133
33776;26281
33785;24
33793;26299
33801;5
33809;26307
33817;5
33826;26306
33834;6
33842;26307
33850;4
33858;26307
33866;5
33875;26306
33883;6
33891;26308
33899;11
33907;26292
33915;58
33923;26226
33931;223
33939;25969
33947;702
33956;25281
33964;1857
33972;24046
33980;3871
33988;22321
33997;6597
34005;19638
34013;10475
34021;16714
34029;14307
34038;13618
34046;18652
34054;10138
34062;21686
34070;6697
34078;24081
34087;3918
34095;25374
34106;24018
34114;4966
34122;23440
34130;8680
34138;21192
34146;12030
34154;17765
34162;14663
34171;13873
34179;18207
34187;10239
34195;21084
34203;7008
34212;22999
34220;4186
34228;24434
34236;2232
34244;25500
34253;1151
34261;26049
34269;531
34277;26233
34285;128
34294;26288
34302;26
34310;26305
34318;6
34326;26306
34334;4
34343;26307
34350;4
34358;26307
34366;5
34374;26303
34383;5
34391;26305
34399;4
34407;26304
34415;15
34424;26277
34432;86
34440;26162
34448;369
34459;26313
34468;4
34476;26310
34483;4
34491;26310
34499;5
34508;26306
34516;3
34524;26304
34532;7
34540;26280
34548;43
34557;26178
34565;215
34573;25874
34581;763
34589;25127
34598;1917
34606;23703
34614;4362
34622;21665
34630;7395
34639;19203
34647;10982
34655;16143
34663;14985
34671;12729
34680;17858
34687;8672
34695;20718
34703;5495
34711;23298
34719;3504
34728;24971
34736;1873
34744;25776
34752;851
34760;26126
34769;302
34777;26259
34785;80
34793;26298
34801;17
34813;15793
34821;9138
34829;20495
34837;6036
34845;22878
34854;3502
34862;24392
34870;1784
34878;25418
34886;740
34894;25998
34902;249
34910;26208
34918;60
34926;26280
34935;12
34943;26298
34951;5
34959;26302
34967;5
34975;26305
34984;4
34992;26309
35000;3
35008;26306
35016;5
35025;26306
35033;5
35041;26304
35049;22
35057;26283
35065;129
35073;26181
35081;504
35089;25874
35097;1477
35106;25124
35114;3182
35122;23709
35130;5509
35138;21656
35146;8801
35155;18510
35166;4
35174;26309
35182;44
35191;26302
35199;133
35207;26232
35215;391
35223;25946
35231;1026
35240;25368
35248;2631
35256;24251
35264;5074
35271;22236
35280;7956
35288;19149
35296;11441
35304;16082
35312;15828
35321;13157
35329;19458
35337;9858
35345;21762
35353;6542
35362;23512
35370;3652
35378;24808
35386;1663
35394;25573
35402;635
35411;26119
35419;233
35427;26262
35435;56
35443;26296
35452;12
35460;26308
35468;6
35476;26312
35484;2
35493;26310
35500;4
35508;26312
35519;959
35527;25688
35536;498
35544;26137
35552;145
35560;26267
35568;33
35577;26300
35585;10
35593;26309
35601;7
35609;26313
35618;4
35626;26315
35634;7
35642;26311
35649;5
35657;26311
35666;6
35674;26310
35682;9
35690;26292
35698;60
35707;26228
35715;230
35723;25980
35731;776
35739;25307
35748;1853
35756;23901
35764;4122
35772;21929
35780;7329
35789;18814
35797;10553
35805;15504
35813;13786
35821;12285
35830;17422
35838;9075
35846;20522
35854;5865
35862;23119
35873;25307
35881;1385
35889;24881
35897;2906
35905;23302
35913;5507
35922;20972
35930;8607
35938;17847
35946;12528
35954;14354
35963;16188
35971;10484
35979;19233
35987;6801
35995;21741
36004;3803
36012;23862
36020;1957
36028;25114
36036;838
36045;25787
36053;289
36061;26145
36068;72
36076;26261
36084;14
36093;26299
36101;4
36109;26308
36117;4
36125;26308
36134;6
36142;26306
36150;5
36158;26306
36166;5
36175;26308
36183;4
36191;26304
36199;20
36207;26292
36216;113
36226;26309
36234;5
36242;26312
36250;6
36259;26307
36267;5
36275;26308
36283;5
36291;26309
36300;3
36308;26305
36316;9
36324;26298
36332;67
36340;26228
36349;265
36356;26002
36364;824
36372;25370
36380;2135
36389;24147
36397;4705
36405;22591
36413;8535
36421;20607
36430;12864
36438;17820
36446;16630
36454;14637
36462;19706
36471;10700
36479;22109
36487;6556
36495;23624
36503;3158
36511;24683
36520;1189
36528;25529
36536;432
36544;26030
36552;124
36561;26226
36571;10639
36579;11402
36587;11786
36595;17357
36604;9201
36612;20353
36620;5707
36628;22601
36636;3456
36645;24250
36653;1685
36661;25406
36669;802
36677;26052
36686;370
36694;26273
36702;145
36710;26306
36718;40
36727;26311
36735;13
36743;26313
36751;4
36759;26314
36767;4
36776;26312
36783;5
36791;26306
36799;7
36807;26303
36816;4
36824;26294
36832;7
36840;26212
36848;62
36857;25880
36865;252
36873;25257
36881;1433
36889;22887
36898;1417
36906;22542
36914;11056
36925;26312
36932;20
36941;26307
36949;1295
36957;26314
36965;3502
36973;12
36982;4
36990;1813
36998;5
37006;19235
37014;1187
37022;21059
37031;5602
37039;24075
37047;3960
37055;11462
37063;5407
37072;6771
37080;7896
37088;9435
37096;22446
37104;11268
37113;24090
37121;6457
37129;25334
37137;5090
37144;26151
37153;5505
37161;26289
37169;927
37177;26278
37185;334
37193;26306
37202;138
37210;26309
37218;171
37226;26312
37234;5
37243;26311
37251;6
37259;26310
37267;6
37278;26153
37287;2760
37295;26268
37302;1694
37310;26306
37318;108
37327;26224
37335;5
37343;26284
37351;5
37359;26309
37368;7
37376;26312
37384;5
37392;26315
37400;5
37409;26312
37417;11
37425;26314
37433;80
37441;26308
37449;298
37458;26235
37466;337
37474;26166
37481;1281
37489;25764
37498;3292
37506;25081
37514;4929
37522;23388
37530;7552
37539;20741
37547;11675
37555;17122
37563;14878
37571;14150
37580;19131
37588;11505
37596;18457
37604;4062
37612;22756
37620;4203
37632;633
37640;24169
37648;2137
37656;21426
37665;3332
37673;18117
37681;6770
37689;15266
37697;8539
37705;11148
37714;13736
37721;7983
37729;17609
37737;6003
37745;19440
37754;3556
37762;21924
37770;2179
37778;23967
37786;1939
37795;24865
37803;981
37811;25166
37819;290
37827;25319
37836;70
37844;25851
37852;15
37860;26138
37868;8
37876;26286
37885;3
37893;26308
37901;4
37909;26313
37917;7
37925;26314
37933;7
37941;26313
37949;4
37957;26317
37966;4
37974;26313
37985;308
37993;26310
38001;95
38010;26313
38018;11
38026;26312
38034;7
38042;26313
38051;4
38059;26310
38066;6
38074;26313
38082;4
38090;26310
38099;5
38107;26311
38115;6
38123;26200
38131;60
38140;26243
38148;470
38156;26102
38164;1475
38172;25417
38181;2513
38189;23694
38197;4072
38205;19169
38213;6845
38222;15252
38230;10867
38238;12480
38246;18051
38254;11004
38263;23228
38270;7664
38278;25437
38286;3994
38294;26166
38302;2020
38311;26299
38319;869
38327;26310
38338;18916
38346;22316
38355;18285
38363;24804
38371;16213
38379;25427
38387;9493
38396;25536
38404;2681
38412;25016
38420;1038
38428;26048
38437;822
38445;26273
38453;194
38461;26295
38468;30
38477;26307
38485;7
38493;26313
38501;6
38509;26309
38518;11
38526;26307
38534;5
38542;26269
38550;5
38558;26306
38567;12
38575;26310
38583;5
38591;26277
38599;4
38608;25689
38616;13
38624;24369
38631;56
38639;21873
38648;154
38656;12523
38664;7
38672;4643
38680;68
38692;25558
38700;6
38708;25481
38716;4
38724;25272
38733;12
38741;25888
38749;521
38757;26299
38765;1633
38774;25001
38782;203
38790;17560
38798;321
38805;12916
38813;480
38822;8025
38830;1911
38838;7142
38846;10661
38854;8213
38863;16443
38871;7179
38879;22121
38887;6378
38895;24336
38904;3888
38912;25727
38920;1663
38928;25909
38936;685
38945;26256
38953;235
38961;26309
38969;69
38977;26312
38985;9
38994;26312
39002;5
39010;26314
39017;5
39025;26313
39034;5
39042;26315
39053;633
39061;26230
39069;216
39078;26300
39086;64
39094;26313
39102;14
39110;26313
39119;6
39127;26315
39135;7
39143;26315
39150;5
39159;26309
39167;4
39175;26313
39183;5
39191;26310
39199;38
39208;26306
39216;200
39224;26266
39232;761
39240;26112
39249;2146
39257;25696
39265;3957
39273;24590
39281;6238
39290;22370
39298;10061
39306;19880
39314;13406
39322;16268
39331;17040
39339;12623
39347;20479
39355;9294
39362;23196
39370;6316
39379;24751
39387;4133
39398;2605
39406;24858
39415;5266
39423;23422
39431;7624
39439;21217
39447;11621
39455;18216
39464;15131
39472;13785
39480;18261
39488;9503
39496;21197
39505;6341
39513;23601
39521;3960
39529;25069
39537;2186
39546;25741
39554;826
39562;26088
39569;248
39577;26256
39586;60
39594;26297
39602;17
39610;26307
39618;5
39626;26311
39635;5
39643;26314
39651;5
39659;26312
39667;6
39676;26313
39684;5
39692;26314
39700;14
39708;26312
39717;58
39725;26303
39733;219
39741;26238
39751;3
39760;26313
39768;5
39776;26314
39784;4
39792;26314
39801;5
39809;26310
39817;4
39825;26309
39833;11
39842;26302
39850;34
39858;26244
39866;179
39874;26053
39882;896
39890;25632
39898;2288
39906;24737
39914;5813
39922;23787
39931;7811
39939;20853
39947;10705
39955;17523
39963;14061
39972;14078
39980;17390
39988;10540
39996;20718
40004;7526
40013;23169
40021;5015
40029;24824
40037;3028
40045;25678
40054;1427
40062;26065
40070;460
40078;26219
40086;101
40094;26287
40106;13759
40114;15419
40121;10866
40129;19179
40137;7578
40146;22414
40154;5124
40162;24467
40170;3200
40178;25596
40187;1835
40195;26016
40203;716
40211;26186
40219;174
40228;26281
40236;41
40244;26306
40252;10
40260;26306
40269;4
40277;26311
40285;4
40293;26309
40301;8
40310;26310
40317;5
40325;26311
40333;4
40341;26311
40349;16
40358;26309
40366;82
40374;26285
40382;283
40390;26192
40399;863
40407;25875
40415;2121
40423;25079
40431;4165
40440;23578
40448;7118
40459;26315
40467;6
40475;26314
40484;16
40492;26315
40499;89
40507;26305
40515;388
40524;26261
40532;1417
40540;26137
40548;3289
40556;25795
40564;6291
40573;25214
40581;10440
40589;24355
40597;14120
40605;22232
40614;12130
40622;13541
40630;8710
40638;7534
40646;15123
40655;5197
40663;19636
40671;3677
40679;24036
40687;3205
40696;25420
40704;1494
40712;26004
40720;598
40728;26220
40737;161
40745;26276
40752;23
40760;26308
40768;9
40776;26311
40785;5
40793;26313
40804;2861
40812;22676
40820;1804
40829;24681
40837;649
40845;25375
40853;189
40861;26046
40870;33
40878;26157
40886;7
40894;26284
40902;5
40910;26307
40918;3
40926;26307
40934;5
40942;26310
40951;3
40959;26312
40967;3
40975;26311
40983;5
40991;26292
41000;6
41008;26198
41016;15
41024;25850
41032;66
41041;25098
41049;216
41057;23343
41065;550
41072;20154
41081;1858
41089;17488
41097;3740
41105;14877
41113;6245
41122;10921
41130;10663
41138;7681
41146;14220
41154;4988
41166;67
41174;25759
41182;430
41190;25157
41198;1412
41207;23804
41215;3715
41223;22785
41231;7779
41239;20703
41247;9481
41256;16658
41264;12809
41272;11445
41280;14799
41288;7006
41296;18839
41304;4515
41312;17379
41320;1357
41328;20271
41337;275
41345;17027
41353;32
41361;22259
41369;18
41378;24930
41386;6
41394;9099
41402;4
41410;7
41418;6
41427;5
41435;6
41443;22603
41451;6
41458;26261
41467;5
41475;4
41483;4
41491;318
41499;26310
41508;26314
41516;26313
41527;26312
41535;26304
41543;25317
41552;5
41560;4
41568;7
41576;20878
41583;324
41592;26312
41600;128
41608;26313
41616;9
41624;26311
41633;72
41641;26295
41649;5
41657;23998
41665;17
41673;19399
41682;22
41690;22267
41698;547
41706;24111
41714;1675
41723;23508
41731;3329
41739;22302
41747;5711
41755;20372
41764;8792
41772;18216
41780;13326
41788;15779
41795;17388
41804;12712
41812;21057
41820;9245
41828;23467
41836;6151
41844;25141
41853;3795
41861;25839
41869;1283
41880;7004
41889;17653
41897;13134
41905;21274
41913;21969
41921;18203
41929;24689
41938;15518
41946;25880
41954;10166
41962;26040
41970;4158
41979;26160
41987;1342
41995;26069
42003;148
42011;26199
42019;47
42027;26298
42035;17
42043;26311
42051;9
42060;26312
42068;4
42076;26314
42084;4
42092;26312
42100;4
42109;26311
42117;4
42125;26295
42133;6
42141;26140
42150;371
42158;26294
42166;524
42174;26218
42181;990
42190;25884
42198;2396
42206;25302
42214;5642
42225;26312
42234;5
42242;26311
42250;6
42258;26311
42266;24
42275;26315
42283;92
42291;26308
42299;344
42307;26242
42316;971
42324;26028
42332;2489
42340;25585
42348;4768
42355;24517
42364;7719
42372;22630
42380;10858
42388;19662
42396;13886
42405;15960
42413;17482
42421;12666
42429;20379
42437;9416
42446;22770
42454;6272
42462;24401
42470;3732
42478;25308
42487;1701
42495;25863
42503;659
42511;26117
42519;191
42527;26283
42536;46
42544;26301
42552;14
42560;26311
42570;10116
42579;22475
42587;7162
42595;23915
42603;3528
42611;25200
42620;2050
42628;25876
42636;858
42644;26136
42652;298
42661;26267
42669;84
42677;26304
42685;24
42693;26311
42702;7
42710;26313
42718;3
42726;26318
42734;5
42743;26314
42751;6
42759;26313
42766;4
42774;26313
42782;9
42791;26310
42799;54
42807;26291
42815;170
42823;26177
42832;529
42840;25803
42848;1294
42856;24862
42864;2867
42873;23203
42881;5380
42889;20752
42897;9091
42905;17668
42914;13043
42925;26311
42933;30
42941;26296
42948;134
42957;26216
42965;522
42973;25967
42981;1476
42989;25358
42998;3153
43006;24274
43014;5470
43022;22431
43030;9145
43038;18947
43047;9971
43055;14378
43063;15383
43071;11760
43079;18854
43088;8669
43096;22450
43104;5958
43112;24407
43120;3568
43129;25438
43137;1815
43145;25976
43153;768
43161;26214
43170;221
43178;26286
43185;48
43193;26308
43201;10
43209;26312
43218;5
43226;26313
43234;5
43242;26312
43250;4
43259;26313
43267;7
43278;26088
43286;472
43294;26242
43303;126
43311;26294
43319;26
43327;26309
43334;7
43343;26315
43351;6
43359;26313
43367;5
43375;26313
43384;6
43392;26313
43400;4
43408;26314
43416;5
43425;26314
43433;22
43441;26304
43449;97
43457;26225
43465;304
43474;25908
43482;758
43490;25098
43498;1846
43506;23275
43515;3768
43522;22264
43530;8379
43538;21097
43546;13619
43555;22024
43563;6634
43571;4
43579;6
43587;14817
43596;25164
43604;7343
43612;24130
43620;1569
43628;24762
43640;24813
43648;5723
43656;22530
43664;4564
43672;17745
43681;9390
43689;17472
43697;12309
43704;11650
43712;15431
43720;9839
43729;20291
43737;7385
43745;22807
43753;4696
43761;24726
43770;2357
43778;25532
43786;1011
43794;25957
43802;345
43811;26212
43819;96
43827;26297
43835;30
43843;26310
43852;9
43860;26316
43868;5
43876;26315
43884;7
43892;26312
43901;5
43909;26310
43916;3
43924;26310
43932;8
43941;26308
43949;29
43957;26300
43965;182
43973;26237
43982;482
43993;26315
44001;4
44009;26314
44017;5
44026;26314
44034;4
44042;26310
44049;4
44057;26312
44066;14
44074;26311
44082;72
44090;26283
44098;270
44106;26154
44115;838
44123;25788
44131;1998
44139;24886
44147;3889
44156;23109
44164;6529
44172;20336
44180;10199
44188;16939
44197;13957
44205;13302
44213;17716
44221;9671
44229;20841
44238;6541
44246;23550
44254;4285
44262;25130
44270;2358
44278;25818
44286;1017
44294;26136
44302;358
44310;26263
44318;96
44327;26298
44338;14278
44346;17071
44354;10500
44362;20345
44371;6977
44379;22959
44387;4337
44395;24824
44403;2371
44412;25683
44420;990
44428;26078
44436;348
44444;26246
44453;88
44461;26294
44468;21
44476;26307
44484;6
44493;26312
44501;6
44509;26312
44517;5
44525;26306
44534;7
44542;26307
44550;4
44558;26307
44566;4
44574;26306
44583;33
44591;26290
44599;159
44607;26216
44615;544
44624;25906
44632;1414
44639;25175
44647;3020
44655;24696
44664;2895
44672;16297
44680;26210
44691;26305
44699;61
44708;26310
44716;15
44724;26284
44732;5
44740;26194
44749;92
44757;26268
44765;3537
44773;26296
44781;7886
44790;26170
44798;4536
44806;25313
44814;13426
44822;25124
44830;19036
44839;23397
44846;20501
44854;20185
44862;21791
44870;14861
44879;23355
44887;12360
44895;21928
44903;6483
44911;24226
44920;10744
44928;25962
44936;3322
44944;26197
44952;1011
44961;26268
44969;356
44977;26299
44985;68
44993;26306
45001;15
45010;26311
45018;6
45026;26308
45037;5732
45046;24591
45054;3696
45062;25494
45069;1633
45077;25989
45085;716
45094;26235
45102;290
45110;26295
45118;101
45126;26307
45135;35
45143;26309
45151;10
45159;26312
45167;4
45176;26315
45184;4
45192;26313
45200;3
45208;26314
45217;4
45225;26312
45233;23
45241;26314
45249;121
45256;26311
45265;429
45273;26265
45281;1126
45289;26091
45297;2525
45306;25532
45314;4364
45322;24516
45330;7118
45338;24742
45347;13692
45355;22369
45363;16134
45371;18921
45382;60
45391;26311
45399;208
45407;26295
45415;654
45423;26185
45432;1632
45440;25846
45448;3472
45456;25111
45464;6423
45473;23805
45480;9745
45488;21482
45496;13278
45504;18455
45512;16962
45521;14889
45529;21094
45537;12948
45545;23343
45553;9406
45562;24950
45570;7021
45578;25709
45586;4156
45594;26072
45603;1955
45611;26223
45619;785
45627;26291
45635;245
45644;26302
45652;64
45660;26313
45668;16
45676;26312
45684;7
45693;26311
45701;3
45709;26312
45716;6
45724;26311
45736;1452
45744;26248
45752;493
45760;26293
45768;124
45777;26307
45785;23
45793;26308
45801;7
45809;26311
45818;4
45826;26312
45834;7
45842;26310
45849;3
45858;26311
45866;6
45874;26310
45882;44
45890;26308
45898;164
45907;26303
45915;568
45923;26295
45931;2052
45939;26187
45948;4089
45956;25854
45964;6830
45972;24969
45980;10281
45989;23715
45997;14096
46005;21056
46013;17108
46021;17449
46030;20337
46038;14258
46046;22564
46054;10343
46062;24373
46071;7317
46089;26025
46097;4699
46105;25570
46114;8280
46122;24640
46130;11900
46138;23267
46146;15472
46154;20747
46163;18442
46171;17481
46179;21511
46187;14781
46195;23679
46204;10948
46212;25167
46220;8021
46228;25848
46236;5126
46245;26156
46253;2488
46261;26260
46269;1018
46277;26299
46286;336
46294;26307
46302;86
46310;26315
46318;19
46327;26312
46334;4
46342;26313
46350;6
46358;26313
46366;4
46375;26311
46383;7
46391;26314
46399;33
46407;26314
46416;163
46424;26312
46435;94
46443;26313
46451;22
46460;26313
46468;6
46476;26309
46483;4
46491;26313
46500;5
46508;26312
46516;9
46524;26310
46532;60
46541;26309
46549;274
46557;26312
46565;1322
46573;26312
46582;2102
46590;26231
46598;2710
46606;25783
46614;4553
46622;24797
46631;8010
46639;23372
46647;11883
46655;21328
46663;15823
46672;18270
46680;18877
46688;14410
46695;22169
46703;9518
46712;22936
46720;5512
46728;24028
46736;1788
46744;24323
46753;448
46761;24954
46769;61
46777;25033
46788;7608
46797;332
46805;6
46813;6
46821;4
46829;5
46836;3
46845;7
46853;7
46861;4
46869;3
46877;4
46886;6
46894;26056
46902;192
46910;26312
46918;160
46927;26313
46935;43
46943;26315
46951;9
46959;26314
46967;4
46975;26315
46983;7
46991;26315
46999;11
47007;26309
47016;58
47024;26312
47032;284
47040;26313
47048;838
47057;26310
47065;2150
47073;26286
47081;4246
47089;26153
47098;7332
47106;25774
47114;10994
47122;25055
47130;15132
47139;23688
47147;18547
47157;26313
47165;265
47173;26311
47182;759
47190;26310
47198;1920
47206;26297
47214;3558
47223;26209
47231;5369
47239;25670
47247;6583
47255;24114
47263;9015
47272;21358
47280;11793
47288;16753
47296;14418
47304;11887
47313;17962
47321;8063
47329;21276
47337;5131
47345;24010
47354;3341
47362;25247
47370;1468
47378;25819
47386;491
47395;26139
47402;176
47410;26283
47418;45
47426;26303
47434;9
47443;26306
47451;3
47459;26303
47467;5
47475;26309
47484;5
47492;26309
47503;1487
47511;26151
47519;506
47528;26258
47536;146
47544;26296
47552;32
47560;26306
47568;9
47576;26311
47584;4
47592;26309
47600;4
47609;26307
47617;5
47625;26310
47633;3
47641;26310
47650;4
47658;26304
47666;14
47674;26254
47682;71
47690;26055
47699;243
47707;25487
47715;692
47723;24196
47730;1829
47739;22348
47747;3991
47755;19907
47763;6945
47771;16190
47780;10114
47788;12291
47796;13841
47804;8835
47812;16819
47821;5730
47829;20421
47837;4016
47845;23829
47856;25687
47865;2330
47873;24557
47881;4150
47889;22513
47897;6837
47906;19201
47914;9346
47922;15258
47930;12596
47938;10913
47946;15618
47955;7403
47962;18946
47970;4451
47978;22020
47986;2872
47995;24257
48003;1310
48011;25092
48019;419
48027;25727
48036;122
48044;26087
48052;26
48060;26233
48068;7
48077;26296
48085;6
48093;26307
48101;4
48109;26308
48118;4
48126;26311
48134;4
48141;26314
48149;4
48157;26313
48166;6
48174;26306
48182;14
48190;26278
48198;69
48210;26308
48218;5
48226;26308
48234;6
48242;26309
48251;4
48259;26312
48267;4
48274;26309
48282;5
48291;26302
48299;6
48307;26192
48315;7
48323;25808
48332;42
48340;24939
48348;199
48356;23566
48364;868
48372;21761
48381;2509
48389;19342
48397;5194
48405;16223
48413;8795
48422;12320
48430;12015
48438;8640
48446;15231
48454;5364
48463;18612
48471;3202
48479;22103
48486;1916
48494;24184
48503;708
48511;25146
48519;229
48527;25895
48535;67
48543;26175
48552;17
48560;26270
48571;10243
48579;14601
48588;7121
48596;18407
48604;4382
48612;21777
48620;2602
48628;24258
48637;1216
48645;25259
48653;408
48661;25883
48669;103
48678;26168
48685;19
48693;26269
48701;5
48709;26306
48718;8
48726;26313
48734;6
48742;26311
48750;8
48759;26313
48767;5
48775;26315
48783;4
48791;26315
48799;3
48808;26273
48816;11
48824;26128
48831;56
48839;25697
48848;239
48856;24521
48864;644
48872;22849
48880;2120
48889;21220
48897;4874
48905;19217
48913;8912
48924;26313
48933;7
48941;26313
48949;73
48957;26297
48965;237
48974;26141
48982;659
48990;25650
48998;1835
49006;24760
49015;3539
49023;22841
49030;5755
49038;19502
49046;8170
49054;15243
49063;11313
49071;11273
49079;14877
49087;7775
49095;18307
49104;4956
49112;21139
49120;3200
49128;23687
49136;1759
49145;24945
49153;616
49161;25668
49169;160
49177;26080
49186;34
49194;26242
49202;11
49210;26293
49218;6
49226;26307
49235;5
49243;26312
49251;5
49259;26316
49266;6
49278;25601
49286;644
49294;26051
49302;223
49310;26250
49319;45
49327;26289
49335;7
49343;26310
49351;6
49360;26317
49368;7
49376;26316
49384;5
49392;26316
49400;5
49408;26318
49416;5
49424;26312
49432;6
49441;26308
49449;45
49457;26271
49465;193
49473;26103
49481;743
49490;25783
49498;2826
49506;25537
49514;7123
49522;24652
49531;9476
49539;21769
49547;11856
49555;17642
49563;13880
49572;13791
49580;19014
49588;13029
49596;23203
49604;10611
49613;24894
49620;7512
49631;3721
49639;25952
49647;4659
49656;24470
49664;5679
49672;21686
49680;8156
49688;18213
49697;11595
49705;14137
49713;15031
49721;9836
49729;18545
49737;5982
49746;21307
49754;3566
49762;23674
49770;1784
49778;24895
49787;661
49795;25615
49803;161
49811;25969
49818;25
49827;26184
49835;8
49843;26288
49851;4
49859;26311
49868;6
49876;26314
49884;5
49892;26313
49900;4
49908;26314
49917;4
49925;26313
49933;5
49941;26310
49949;14
49958;26280
49966;66
49974;26153
49984;3
49992;26315
50001;5
50009;26313
50017;4
50025;26310
50033;6
50042;26309
50050;3
50058;26310
50066;6
50074;26287
50083;26
50091;26159
50099;87
50107;25719
50115;333
50122;24698
50131;949
50139;22831
50147;2187
50155;20084
50163;4271
50172;16856
50180;7438
50188;14236
50196;11683
50204;11346
50213;15535
50221;7765
50229;18814
50237;4959
50245;22099
50254;3397
50262;24686
50270;2426
50278;25625
50286;797
50295;26010
50303;217
50311;26210
50319;35
50327;26283
50338;11546
50346;14382
50354;7910
50362;18166
50370;4443
50378;20857
50387;2477
50395;23438
50403;1197
50411;24676
50419;467
50428;25689
50436;145
50444;26100
50452;30
50460;26260
50469;7
50477;26310
50485;4
50493;26311
50501;5
50510;26314
50518;5
50526;26315
50533;4
50541;26311
50550;6
50558;26312
50566;4
50574;26302
50582;17
50590;26294
50599;150
50607;26125
50615;474
50623;25637
50631;1480
50640;24582
50648;2914
50656;22403
50664;5090
50672;18789
50681;7498
50692;26311
50699;4
50707;26303
50715;17
50724;26275
50732;99
50740;26133
50748;314
50756;25720
50765;991
50773;25002
50781;2719
50789;23873
50797;5569
50806;21970
50814;9192
50822;19312
50830;13012
50838;15096
50846;16478
50855;10676
50863;19580
50871;6767
50879;22359
50887;4009
50896;24439
50904;2295
50912;25453
50920;945
50928;25962
50936;272
50944;26187
50952;59
50960;26271
50968;13
50977;26298
50985;4
50993;26307
51001;5
51009;26310
51017;6
51026;26311
51034;4
51045;25349
51053;394
51062;25938
51070;119
51078;26202
51085;29
51093;26293
51101;8
51110;26310
51118;4
51126;26310
51134;4
51142;26309
51151;5
51159;26309
51167;4
51175;26310
51183;5
51192;26306
51200;10
51208;26302
51216;49
51224;26274
51233;203
51241;26143
51249;719
51257;25718
51264;1701
51272;24705
51281;3274
51289;22875
51297;5818
51305;20134
51313;8810
51322;16176
51330;12214
51338;12754
51346;15001
51354;9036
51363;19256
51371;7373
51379;24125
51387;8217
51398;4356
51407;26177
51415;6707
51423;25266
51431;5908
51439;20603
51448;7237
51456;19401
51464;16111
51472;19647
51480;16457
51489;10671
51496;17407
51504;4476
51512;17503
51520;1852
51528;20942
51537;912
51545;23666
51553;359
51561;25171
51569;106
51578;25695
51586;17
51594;26166
51602;14
51610;26302
51619;6
51627;26308
51635;4
51643;26305
51651;4
51660;26307
51668;6
51676;26308
51683;6
51691;26311
51699;4
51708;26310
51716;32
51724;26296
51732;118
51740;26192
51752;7
51760;26307
51768;5
51776;26309
51784;5
51793;26309
51801;2
51809;26307
51816;4
51824;26305
51833;6
51841;26275
51849;40
51857;26215
51865;196
51874;25949
51882;695
51890;25289
51898;1948
51906;24285
51914;4801
51923;23023
51931;9001
51939;20756
51947;12901
51955;17367
51964;17332
51972;15388
51980;21224
51988;9861
51996;21927
52005;4585
52013;22163
52021;653
52028;20895
52036;43
52045;21045
52053;6
52061;24798
52069;11
52077;26201
52086;23
52094;26303
52102;26
52113;20718
52121;12846
52130;23879
52138;9509
52146;25472
52154;8521
52162;26127
52170;6082
52179;26254
52187;2291
52195;26267
52203;420
52211;26270
52220;32
52228;26298
52235;12
52243;26307
52251;4
52260;26309
52268;8
52276;26309
52284;3
52292;26314
52301;5
52309;26308
52317;5
52325;26312
52333;49
52342;26306
52350;297
52358;26309
52366;821
52374;26282
52382;1593
52391;26072
52399;1672
52407;24556
52415;2180
52422;22184
52431;4199
52439;19174
52447;4866
52455;12682
52466;5
52475;26249
52483;4
52491;25939
52499;14
52507;25544
52516;121
52524;24641
52532;639
52540;22790
52548;1701
52557;19673
52565;3732
52573;15841
52581;6708
52589;12120
52596;10721
52605;8200
52613;14955
52621;5720
52629;19282
52637;3520
52646;22438
52654;1923
52662;24090
52670;615
52678;24524
52687;99
52695;24953
52703;10
52711;25158
52719;4
52728;25873
52736;6
52744;26192
52752;4
52760;26306
52769;3
52777;26312
52784;4
52792;26318
52800;6
52808;26312
52820;1436
52828;26308
52836;302
52844;26306
52852;21
52861;26306
52869;5
52877;26307
52885;5
52893;26312
52902;3
52910;26305
52917;6
52925;26316
52933;6
52942;26310
52950;6
52958;26300
52966;50
52974;26279
52983;236
52991;26064
52999;572
53007;25180
53015;1339
53023;23671
53032;3757
53040;22723
53048;8422
53056;21507
53064;14323
53073;20095
53081;19118
53089;18318
53097;21619
53105;14419
53114;23313
53122;10475
53130;24568
53137;7744
53145;25600
53154;5766
53162;26139
53173;25863
53181;11611
53189;25104
53198;13416
53206;23688
53214;18020
53222;21205
53230;20303
53239;16335
53247;21438
53255;8552
53263;22605
53271;4679
53279;24503
53288;2694
53296;25333
53304;702
53312;25822
53320;338
53329;26195
53337;68
53345;26259
53352;12
53360;26294
53369;6
53377;26304
53385;5
53393;26309
53401;6
53410;26310
53418;5
53426;26313
53434;6
53442;26309
53450;5
53459;26313
53467;31
53475;26297
53483;173
53491;26253
53500;776
53508;26151
53515;2689
53526;26309
53534;5
53543;26310
53551;3
53559;26308
53567;8
53575;26313
53584;38
53592;26314
53600;175
53608;26309
53616;547
53625;26272
53633;1298
53641;26077
53649;2451
53657;25357
53666;3810
53674;23409
53681;5587
53689;19826
53697;7435
53705;15319
53714;10851
53722;11644
53730;15089
53738;8835
53746;19119
53755;6353
53763;22770
53771;5248
53779;25131
53787;3693
53796;25793
53804;1395
53812;26081
53820;463
53828;26189
53837;49
53845;26239
53853;5
53861;25977
53872;2624
53881;14213
53888;2030
53896;14546
53904;1369
53912;22869
53921;1948
53929;25531
53937;1216
53945;26048
53953;556
53961;26222
53970;144
53978;26283
53986;30
53994;26305
54002;8
54011;26313
54019;5
54027;26312
54035;5
54043;26308
54052;3
54060;26312
54067;4
54075;26308
54083;4
54092;26311
54100;6
54108;26215
54116;24
54124;25850
54132;105
54141;24649
54149;278
54157;21832
54165;715
54173;17907
54182;1844
54190;13877
54198;4115
54206;10312
54214;8000
54226;26255
54233;10
54241;26233
54249;115
54257;26158
54266;798
54274;26102
54282;3171
54290;25927
54298;6188
54307;25405
54315;8498
54323;23553
54331;9879
54339;18843
54348;11723
54356;13419
54364;13573
54372;7894
54380;18039
54388;6015
54397;21906
54405;2979
54413;23474
54421;1282
54429;25361
54438;1199
54446;26262
54454;1757
54462;26311
54470;1207
54479;26314
54487;321
54494;26314
54502;56
54510;26309
54519;10
54527;26315
54535;8
54543;26314
54551;5
54559;26317
54571;716
54579;25920
54587;149
54595;26141
54604;18
54612;26246
54620;3
54628;26290
54636;7
54643;26309
54652;5
54660;26309
54668;6
54676;26308
54684;5
54693;26307
54701;5
54709;26253
54717;5
54725;26004
54734;4
54742;25400
54750;10
54758;24372
54766;88
54775;22909
54783;366
54791;19950
54799;1009
54807;17390
54814;3479
54823;15772
54831;8055
54839;13958
54847;13336
54855;11198
54864;17719
54872;8184
54880;20616
54888;4873
54896;22721
54905;2653
54913;24328
54921;934
54932;1778
54940;20030
54949;24928
54957;26316
54965;26316
54973;26315
54981;26316
54990;26316
54998;26316
55006;26315
55014;26318
55022;26316
55031;26313
55038;26315
55046;26316
55054;26309
55062;26308
55070;26308
55079;26310
55087;26310
55095;26307
55103;26315
55111;26314
55120;26313
55128;26314
55136;26313
55144;26315
55152;26317
55161;26314
55169;26316
55177;26315
55185;26313
55193;26314
55202;26312
55210;26310
55218;26313
55226;26313
55234;26314
55242;26314
55251;26312
55262;26311
55270;26311
55278;26309
55287;26311
55294;26311
55302;26314
55310;26318
55318;26313
55326;26314
55335;26315
55343;26315
55351;26313
55359;26312
55367;26307
55376;26310
55384;26308
55392;26307
55400;26309
55408;26311
55417;26309
55425;26309
55433;26313
55441;26311
55449;26310
55458;26308
55466;26311
55474;26309
55482;26311
55490;26316
55498;26311
55507;26316
55515;26317
55523;26309
55531;26309
55539;26312
55548;26309
55556;26309
55564;26311
55572;26314
55582;26314
55591;26316
55599;26315
55607;26317
55615;26314
55623;26312
55632;26313
55640;26312
55648;26315
55656;26314
55664;26312
55673;26314
55681;26316
55689;26309
55697;26310
55705;26312
55714;26311
55722;26310
55730;26309
55738;26308
55746;26309
55754;26310
55763;26308
55771;26314
55779;26313
55787;26313
55795;26313
55804;26313
55812;26312
55820;26317
55828;26316
55836;26313
55845;26312
55853;26314
55860;26313
55868;26315
55876;26311
55885;26311
55893;26309
55904;26311
55912;26311
55920;26310
55929;26307
55937;26304
55945;26305
55953;26310
55961;26311
55970;26311
55978;26309
55986;26312
55994;26312
56002;26314
56010;26310
56019;26311
56027;26311
56035;26312
56043;26313
56051;26313
56060;26314
56068;26316
56076;26313
56084;26314
56091;26315
56100;26314
56108;26313
56116;26316
56124;26316
56132;26317
56141;26317
56149;26311
56157;26315
56165;26313
56173;26314
56182;26313
56190;26313
56198;26314
56206;26315
56214;26315
56222;26314
56234;26312
56242;26310
56250;26313
56258;26313
56266;26307
56275;26310
56283;26309
56291;26310
56299;26309
56307;26310
56316;26309
56324;26312
56332;26312
56340;26315
56348;26312
56357;26313
56364;26311
56372;26314
56380;26315
56388;26309
56397;26308
56405;26310
56413;26308
56421;26311
56429;26310
56438;26311
56446;26310
56454;26310
56462;26310
56470;26309
56478;26309
56487;26309
56495;26311
56503;26314
56511;26309
56519;26309
56528;26311
56536;26313
56544;26311
56555;26309
56563;26309
56572;26307
56580;26308
56588;26311
56596;26310
56604;26310
56613;26310
56620;26314
56628;26310
56636;26310
56644;26310
56653;26310
56661;26313
56669;26310
56677;26316
56685;26314
56694;26310
56702;26307
56710;26307
56718;26306
56726;26308
56734;26309
56743;26310
56751;26310
56759;26315
56767;26316
56775;26315
56784;26315
56792;26312
56800;26314
56808;26312
56816;26310
56825;26310
56833;26314
56841;26311
56849;26312
56857;26309
56866;26308
56877;26310
56885;26307
56892;26309
56900;26307
56909;26307
56917;26308
56925;26308
56933;26307
56941;26308
56950;26308
56958;26311
56966;26313
56974;26308
56982;26309
56990;26310
56999;26310
57007;26310
57015;26312
57023;26312
57031;26309
57040;26313
57048;26310
57056;26310
57064;26311
57072;26308
57081;26309
57089;26309
57097;26309
57105;26307
57113;26314
57122;26312
57130;26312
57138;26316
57146;26312
57154;26310
57162;26312
57171;26308
57179;26307
57187;26305
57194;26307
57206;26306
57214;26306
57222;26312
57230;26310
57238;26312
57246;26311
57255;26313
57263;26312
57271;26313
57279;26311
57287;26311
57296;26311
57304;26312
57312;26310
57320;26309
57328;26309
57337;26310
57345;26308
57353;26312
57361;26315
57369;26315
57378;26311
57386;26314
57394;26308
57402;26307
57410;26308
57418;26309
57427;26311
57434;26311
57442;26311
57450;26310
57458;26316
57467;26311
57475;26314
57483;26311
57491;26308
57499;26308
57508;26308
57516;26311
57527;26309
57535;26309
57543;26310
57552;26312
57560;26312
57568;26317
57576;26316
57584;26314
57593;26313
57601;26310
57609;26313
57617;26313
57625;26318
57634;26315
57642;26312
57650;26312
57658;26309
57666;26316
57674;26311
57683;26312
57691;26313
57698;26313
57706;26315
57714;26313
57723;26313
57731;26314
57739;26312
57747;26312
57755;26314
57764;26314
57772;26312
57780;26310
57788;26312
57796;26310
57805;26310
57813;26310
57821;26308
57829;26307
57837;26309
57846;26308
57857;26310
57865;26309
57873;26308
57881;26306
57890;26307
57898;26311
57906;26306
57914;26306
57922;26310
57930;26306
57939;26307
57947;26305
57955;26303
57962;26309
57970;26309
57979;26308
57987;26309
57995;26310
58003;26313
58011;26313
58020;26310
58028;26308
58036;26312
58044;26311
58052;26312
58061;26308
58069;26310
58077;26310
58085;26311
58093;26308
58102;26304
58110;26307
58118;26309
58126;26311
58134;26309
58142;26310
58151;26310
58159;26307
58167;26316
58178;26311
58186;26314
58195;26313
58203;26315
58211;26312
58218;26312
58226;26309
58235;26310
58243;26309
58251;26312
58259;26311
58267;26310
58276;26310
58284;26308
58292;26311
58300;26313
58308;26315
58317;26309
58325;26310
58333;26310
58341;26309
58349;26312
58358;26311
58366;26312
58374;26311
58382;26311
58390;26310
58398;26310
58407;26309
58415;26311
58423;26308
58431;26310
58439;26312
58448;26313
58456;26311
58464;26310
58472;26314
58480;26309
58489;26309
58499;26312
58507;26316
58515;26313
58523;26312
58532;26313
58540;26313
58548;26315
58556;26315
58564;26315
58573;26312
58581;26313
58589;26316
58597;26316
58605;26312
58614;26314
58622;26315
58630;26312
58638;26313
58646;26313
58654;26313
58663;26312
58671;26313
58679;26316
58687;26317
58695;26312
58704;26314
58712;26314
58720;26308
58728;26314
58736;26313
58745;26315
58753;26315
58761;26314
58769;26314
58776;26313
58785;26314
58793;26313
58801;26314
58809;26314
58817;26311
58829;26314
58837;26316
58845;26311
58853;26318
58861;26318
58870;26316
58878;26313
58886;26314
58894;26313
58902;26316
58910;26311
58919;26317
58927;26314
58935;26312
58943;26315
58951;26311
58960;26313
58968;26308
58976;26314
58984;26312
58992;26313
59001;26313
59009;26311
59017;26313
59024;26311
59032;26311
59041;26311
59049;26310
59057;26312
59065;26308
59073;26315
59081;26314
59090;26315
59098;26312
59106;26312
59114;26313
59122;26308
59131;26308
59139;26308
59150;26307
59158;26312
59166;26309
59175;26308
59183;26307
59191;26308
59199;26310
59207;26314
59216;26314
59224;26311
59232;26312
59240;26312
59248;26312
59257;26309
59265;26313
59273;26310
59280;26313
59288;26316
59297;26311
59305;26314
59313;26311
59321;26314
59329;26315
59337;26317
59346;26312
59354;26312
59362;26313
59370;26315
59378;26311
59387;26314
59395;26314
59403;26316
59411;26316
59419;26315
59428;26314
59436;26311
59444;26313
59452;26312
59460;26309
59469;26315
59480;26311
59488;26310
59496;26310
59504;26307
59513;26311
59521;26309
59529;26311
59536;26312
59544;26313
59553;26315
59561;26315
59569;26313
59577;26311
59585;26311
59593;26313
59602;26310
59610;26310
59618;26310
59626;26311
59634;26308
59643;26307
59651;26310
59659;26310
59667;26310
59675;26310
59684;26312
59692;26312
59700;26312
59708;26310
59716;26308
59725;26309
59733;26309
59741;26309
59749;26309
59757;26312
59766;26312
59774;26310
59782;26312
59790;26312
59800;26312
59809;26313
59817;26313
59825;26313
59833;26314
59841;26314
59849;26316
59858;26312
59866;26313
59874;26312
59882;26311
59890;26313
59899;26313
59907;26311
59915;26313
59923;26311
59931;26314
59940;26316
59948;26313
59956;26311
59964;26314
59972;26315
59981;26312
59989;26312
59997;26312
60005;26309
