Tempo (ms);Valor
600331;12974
600339;12741
600347;12247
600356;12071
600364;11939
600372;12030
600380;12047
600388;12185
600397;12332
600405;12707
600413;12998
600421;13391
600429;13704
600438;13950
600446;14148
600454;14053
600462;14151
600470;14161
600478;14145
600487;14005
600495;14048
600503;13841
600511;13897
600519;13694
600528;13766
600536;13635
600544;13890
600552;13663
600560;13777
600569;13647
600577;13767
600585;13615
600593;13843
600601;13610
600610;13726
600618;13581
600629;13746
600637;13738
600645;13729
600654;13719
600662;13795
600670;13590
600678;13569
600686;13279
600695;13328
600703;13178
600711;13333
600719;13218
600727;13367
600735;13293
600744;13588
600752;13552
600760;13675
600768;13540
600776;13673
600785;13534
600793;13685
600801;13315
600809;13433
600817;13344
600826;13320
600834;11127
600842;8046
600850;6373
600858;10425
600867;15726
600875;15979
600883;14926
600891;14369
600899;13921
600908;13817
600916;13416
600924;13564
600935;13386
600943;13584
600952;13316
600960;13410
600968;13289
600976;13401
600984;13122
600993;13141
601001;12943
601009;12956
601017;12508
601025;12576
601033;12157
601042;12159
601050;11857
601058;11982
601066;11899
601074;12172
601083;12025
601091;12543
601099;12597
601107;13144
601115;13401
601124;13823
601132;14075
601140;14378
601148;14363
601156;14600
601165;14503
601173;14660
601181;14513
601189;14672
601197;14409
601206;14412
601214;14336
601222;14347
601233;14188
601241;14397
601250;14093
601258;14290
601266;14086
601274;14265
601282;14119
601290;14181
601299;13974
601307;14044
601315;13781
601323;13874
601331;13750
601340;13860
601348;13719
601356;13985
601364;13951
601372;14165
601381;14133
601389;14249
601397;14115
601405;14199
601413;14164
601422;14158
601430;14144
601438;14127
601446;13977
601454;14006
601463;14092
601471;11998
601479;8475
601487;7561
601495;10692
601503;17252
601512;17382
601520;16382
601528;15580
601539;14787
601548;14334
601556;14081
601564;13800
601572;13840
601580;13640
601588;13556
601597;13517
601605;13387
601613;13264
601621;13156
601629;13035
601638;12968
601646;12734
601654;12519
601662;12323
601670;12128
601679;12001
601687;11765
601695;11835
601703;11917
601711;12061
601720;12023
601728;12437
601736;12741
601744;13177
601752;13428
601761;13861
601769;13903
601777;14298
601785;14204
601793;14338
601801;14200
601810;14356
601818;14115
601826;14316
601837;14092
601846;14099
601854;13964
601862;13937
601870;13796
601878;13871
601886;13766
601895;13853
601903;13682
601911;13765
601919;13715
601927;13903
601936;13797
601944;13954
601952;13861
601960;14088
601968;14040
601977;14215
601985;13862
601993;13899
602001;13603
602009;13743
602018;13577
602026;13741
602034;13581
602042;13854
602050;13765
602058;14087
602067;13934
602075;14097
602083;13872
602091;14039
602099;13785
602108;13923
602116;13744
602124;13757
602132;13941
602143;11731
602152;7877
602160;6039
602168;9119
602176;15505
602184;16051
602193;15656
602201;14825
602209;14627
602217;14035
602225;14051
602234;13782
602242;13940
602250;13646
602258;13816
602266;13579
602275;13706
602283;13399
602291;13488
602299;13167
602307;13233
602316;12929
602324;13018
602332;12720
602340;12524
602348;12155
602356;12107
602365;11908
602373;12103
602381;11975
602389;12182
602397;12309
602406;12708
602414;13028
602422;13498
602430;13676
602438;13930
602449;14098
602457;14470
602465;14331
602473;14514
602481;14376
602490;14399
602498;14216
602506;14415
602514;14044
602522;14164
602531;13986
602540;14149
602548;14060
602556;14149
602564;14030
602573;14200
602581;14013
602589;14152
602597;14045
602605;14132
602614;14127
602622;14055
602630;13963
602638;13996
602646;13870
602654;13815
602663;13700
602671;13551
602679;13589
602687;13632
602695;13688
602704;13713
602712;13816
602720;13809
602728;13934
602736;13808
602747;13895
602755;13975
602763;13794
602771;13750
602779;13571
602788;13646
602796;13593
602804;11820
602812;8219
602820;6007
602829;8783
602837;15187
602845;15888
602853;15154
602861;14567
602870;14183
602878;13881
602886;13646
602894;13694
602902;13512
602910;13614
602919;13448
602927;13398
602935;13184
602943;13325
602951;13156
602960;13233
602968;12933
602976;12904
602984;12548
602992;12535
603001;12217
603009;12217
603017;11901
603025;11943
603033;11811
603042;12100
603053;12232
603061;12583
603069;12926
603077;13246
603086;13509
603094;13878
603102;13979
603110;14222
603118;14174
603127;14336
603135;14295
603143;14357
603151;14096
603159;14232
603167;13968
603176;14091
603184;13873
603192;13989
603200;13776
603208;14014
603217;13933
603225;14004
603233;13816
603241;13971
603249;13815
603258;14044
603266;13777
603274;13923
603282;13696
603290;13825
603299;13771
603307;13942
603315;13777
603323;13904
603331;13724
603340;13701
603348;13382
603359;13659
603367;13598
603375;13755
603384;13518
603392;13818
603400;13761
603408;14049
603416;13638
603425;13863
603433;13788
603441;13869
603449;13664
603457;13790
603465;13524
603474;13906
603482;13198
603490;10926
603498;7436
603506;6451
603515;11269
603523;16004
603531;15807
603539;15006
603547;14283
603556;14117
603564;13726
603572;13704
603580;13560
603588;13577
603597;13316
603605;13475
603613;13218
603621;13254
603629;13195
603638;13213
603646;13084
603657;13120
603665;12838
603673;12806
603682;12416
603690;12360
603698;11982
603706;12056
603714;12010
603722;12204
603731;12036
603739;12403
603747;12573
603755;12955
603763;13175
603772;13663
603780;13778
603788;13986
603796;14140
603804;14326
603813;14311
603821;14430
603829;14352
603837;14298
603845;14233
603854;14181
603862;14145
603870;14087
603878;13959
603886;13954
603895;14122
603903;14025
603911;13983
603919;13880
603927;13980
603935;13962
603944;14101
603952;14052
603963;14063
603971;14172
603980;14031
603988;13969
603996;13909
604004;13831
604012;13740
604020;13745
604029;13831
604037;13849
604045;13806
604053;13813
604061;13949
604070;13791
604078;13856
604086;13781
604094;13866
604102;13727
604111;13797
604119;13473
604127;13651
604135;13610
604143;11706
604152;8086
604160;6478
604168;9930
604176;16352
604184;16145
604193;15553
604201;14567
604209;14189
604217;13699
604225;13632
604233;13335
604242;13472
604250;13164
604258;13336
604269;13266
604278;13177
604286;13012
604294;13024
604302;12679
604310;12671
604318;12431
604327;12168
604335;11833
604343;11812
604351;11535
604359;11709
604368;11484
604376;11604
604384;11613
604392;12079
604400;12213
604409;12702
604417;12982
604425;13533
604433;13506
604441;13945
604450;13869
604458;14015
604466;13868
604474;14059
604482;13811
604490;13998
604499;13798
604507;14011
604515;13668
604523;13648
604531;13433
604540;13614
604548;13525
604556;13687
604567;13566
604575;13833
604584;13744
604592;13846
604600;13587
604608;13857
604616;13658
604625;13834
604633;13720
604641;14010
604649;13699
604657;13861
604666;13662
604674;13632
604682;13258
604690;13376
604698;13232
604707;13294
604715;13056
604723;13379
604731;13244
604739;13505
604748;13476
604756;13657
604764;13545
604772;13676
604780;13630
604788;13660
604797;13499
604805;13697
604813;13799
604821;12171
604829;8688
604838;6342
604846;8615
604854;15573
604862;16149
604872;15287
604881;14531
604889;14401
604897;13919
604905;13816
604913;13571
604922;13606
604930;13382
604938;13517
604946;13309
604954;13265
604963;13157
604971;13203
604979;12974
604987;13032
604995;12755
605004;12631
605012;12308
605020;12264
605029;12116
605037;11952
605046;11842
605054;12015
605062;12179
605070;12337
605078;12514
605086;12816
605095;13196
605103;13443
605111;13902
605119;13949
605127;14076
605136;14168
605144;14292
605152;14169
605160;14307
605168;14053
605179;14093
605187;14170
605195;13974
605203;13975
605211;13930
605220;13909
605228;13871
605236;13777
605244;13831
605252;13837
605261;13912
605269;13825
605277;13772
605285;13788
605293;13940
605302;13909
605310;14015
605318;13836
605326;13800
605334;13509
605342;13610
605351;13378
605359;13651
605367;13530
605375;13677
605383;13673
605392;13873
605400;13801
605408;13996
605416;13706
605424;13851
605433;13630
605441;13812
605449;13575
605457;13644
605465;13927
605477;11745
605485;8170
605493;6340
605501;10370
605509;16568
605518;16393
605526;15648
605534;14737
605542;14654
605550;14191
605559;13939
605567;13721
605575;13904
605583;13663
605591;13790
605599;13507
605608;13633
605616;13408
605624;13510
605632;13238
605640;13299
605649;12970
605657;12977
605665;12680
605673;12641
605681;12184
605690;12224
605698;12062
605706;12299
605714;12150
605722;12593
605731;12619
605739;13038
605747;13226
605755;13826
605763;13958
605772;14468
605783;14575
605791;15043
605799;14818
605807;14985
605816;14890
605824;15014
605832;14750
605840;14868
605848;14584
605857;14742
605865;14370
605873;14445
605881;14330
605889;14470
605897;14232
605906;14407
605914;14261
605922;14407
605930;14229
605938;14307
605947;13959
605955;13996
605963;13848
605971;13966
605979;13839
605988;13992
605996;13878
606004;14045
606012;14068
606020;14174
606029;14072
606037;14157
606045;14030
606053;13982
606061;13906
606070;13953
606078;13910
606089;14201
606097;13629
606105;11229
606114;7696
606122;7026
606130;11472
606138;17151
606146;16519
606154;15806
606163;14926
606171;14547
606179;14085
606187;13916
606195;13739
606204;13653
606212;13448
606220;13430
606228;13357
606236;13294
606245;13195
606253;13108
606261;13005
606269;12877
606277;12796
606286;12555
606294;12416
606302;12177
606310;12020
606318;11855
606327;11903
606335;11823
606343;12069
606351;12198
606359;12544
606367;12741
606376;13345
606387;13879
606395;14285
606403;14578
606412;14676
606420;14748
606428;14825
606436;14889
606444;14812
606452;14645
606461;14628
606469;14560
606477;14426
606485;14281
606493;14375
606502;14147
606510;14237
606518;14113
606526;14171
606534;13939
606543;14118
606551;14101
606559;14201
606567;13873
606575;13955
606584;13759
606592;13884
606600;13532
606608;13649
606616;13547
606625;13784
606633;13650
606641;13871
606649;13691
606657;13955
606665;13840
606674;14005
606682;13689
606693;13882
606701;13771
606710;13788
606718;13487
606726;13906
606734;13326
606742;10887
606750;6819
606759;5340
606767;10249
606775;15551
606783;15593
606791;15103
606800;14521
606808;14287
606816;13930
606824;13877
606832;13573
606841;13878
606849;13523
606857;13639
606865;13399
606873;13545
606882;13303
606890;13282
606898;13007
606906;13009
606914;12735
606922;12767
606931;12355
606939;12314
606947;12007
606955;12053
606963;11830
606972;11943
606980;11999
606988;12236
606999;12420
607007;13093
607016;13316
607024;13797
607032;13778
607040;14079
607048;14092
607057;14318
607065;14029
607073;14328
607081;14163
607089;14286
607098;14125
607106;14168
607114;13808
607122;14059
607130;13932
607139;14064
607147;13855
607155;13962
607163;13852
607171;14000
607180;13895
607188;14090
607196;14024
607204;14024
607212;13840
607220;13842
607229;13670
607237;13641
607245;13544
607253;13514
607261;13412
607270;13441
607278;13652
607286;13538
607296;13663
607304;13995
607313;13830
607321;13920
607329;13773
607337;13905
607345;13698
607354;13734
607362;13509
607370;14029
607378;12974
607386;9917
607395;6045
607403;5797
607411;12616
607419;15860
607427;15477
607436;14837
607444;14575
607452;14242
607460;13999
607468;13914
607476;13789
607485;13600
607493;13664
607501;13567
607509;13592
607517;13318
607526;13354
607534;13155
607542;13179
607550;12853
607558;12829
607567;12526
607575;12408
607583;12019
607592;12123
607602;11960
607611;11970
607619;11915
607627;12038
607635;12277
607643;12670
607652;13020
607660;13474
607668;13629
607676;13943
607684;14076
607693;14275
607701;14203
607709;14201
607717;14037
607725;14208
607734;14032
607742;14083
607750;13851
607758;14107
607766;13880
607774;13897
607783;13806
607791;13994
607799;13739
607807;13929
607815;13636
607824;13877
607832;13709
607840;13900
607848;13770
607856;13966
607865;13605
607873;13739
607881;13579
607889;13624
607900;13511
607909;13573
607917;13315
607925;13395
607933;13222
607941;13416
607950;13358
607958;13671
607966;13557
607974;13762
607982;13574
607991;13775
607999;13598
608007;13816
608015;13578
608023;13735
608031;13499
608040;13915
608048;13354
608056;11280
608064;7270
608072;5816
608081;10104
608089;15747
608097;15696
608105;15209
608113;14537
608122;14398
608130;13997
608138;13978
608146;13692
608154;13889
608163;13546
608171;13668
608179;13615
608187;13647
608195;13367
608207;13332
608215;13228
608223;13302
608231;12734
608239;12726
608248;12381
608256;12452
608264;11979
608272;11991
608280;11873
608289;12056
608297;11985
608305;12321
608313;12478
608321;13085
608329;13236
608338;13635
608346;13894
608354;14277
608362;14196
608370;14340
608379;14239
608387;14390
608395;14314
608403;14394
608411;14273
608420;14370
608428;14294
608436;14023
608444;13983
608452;13985
608461;13990
608469;13982
608477;13962
608485;13892
608493;14032
608502;13885
608513;13760
608521;13962
608529;13805
608537;13932
608546;13667
608554;13828
608562;13761
608570;13594
608578;13487
608586;13471
608595;13292
608603;13468
608611;13455
608619;13439
608627;13505
608636;13457
608644;13592
608652;13749
608660;13718
608668;13596
608677;13753
608685;13685
608693;13597
608701;13454
608709;13489
608718;13593
608726;13545
608734;11286
608742;7829
608750;5805
608759;10142
608767;15707
608775;15801
608783;14802
608791;14315
608799;13909
608811;13776
608819;13694
608827;13597
608835;13479
608844;13512
608852;13444
608860;13319
608868;13251
608876;13231
608884;13133
608893;13078
608901;12872
608909;12847
608917;12564
608925;12528
608934;12193
608942;12189
608950;11990
608958;12105
608966;11938
608975;12308
608983;12361
608991;12834
608999;12931
609007;13457
609016;13622
609024;14095
609032;14197
609040;14501
609048;14403
609057;14650
609065;14529
609073;14685
609081;14408
609089;14534
609097;14275
609106;14468
609117;14460
609125;14551
609133;14287
609142;14342
609150;14118
609158;14398
609166;14211
609174;14244
609182;14033
609191;14257
609199;14068
609207;14313
609215;14111
609223;14311
609232;14010
609240;14227
609248;14067
609256;14005
609264;13734
609273;13783
609281;13491
609289;13672
609297;13443
609305;13547
609314;13451
609322;13719
609330;13529
609338;13744
609346;13655
609354;13798
609363;13596
609371;13673
609379;13554
609387;13597
609395;13446
609404;13808
609412;13095
609423;9467
609431;6584
609439;7859
609448;14923
609456;16371
609464;15335
609472;14680
609480;14113
609489;14064
609497;13617
609505;13629
609513;13424
609521;13475
609530;13208
609538;13227
609546;13082
609554;13196
609562;12931
609571;12880
609579;12846
609587;12547
609595;12428
609603;12239
609612;12075
609620;11959
609628;11765
609636;11668
609644;11645
609652;11823
609661;11903
609669;12016
609677;12395
609685;12743
609693;13134
609702;13462
609710;13967
609721;14067
609729;14240
609737;14483
609746;14419
609754;14503
609762;14448
609770;14442
609778;14337
609787;14199
609795;14034
609803;14043
609811;13940
609819;13969
609828;14049
609836;14016
609844;14009
609852;13993
609860;13909
609869;13897
609877;14015
609885;13910
609893;13986
609901;13904
609910;14326
609918;14113
609926;14116
609934;13783
609942;13887
609950;13687
609959;13680
609967;13465
609975;13757
609983;13623
609991;13622
610000;13484
610008;13700
610016;13681
610027;13926
610035;13880
610044;13952
610052;13932
610060;13900
610068;13606
610076;13743
610085;13636
610093;14037
610101;12130
610109;8716
610117;6492
610126;9441
610134;16260
610142;16747
610150;15645
610158;14769
610167;14260
610175;14176
610183;13724
610191;13732
610199;13519
610207;13613
610216;13366
610224;13377
610232;13191
610240;13299
610248;13089
610257;13360
610265;12921
610273;12933
610281;12719
610289;12700
610298;12316
610306;12372
610314;12124
610322;12218
610332;12084
610341;12426
610349;12465
610357;12835
610365;12857
610373;13411
610382;13553
610390;14156
610398;14397
610406;14731
610414;14480
610423;14713
610432;14626
610440;14828
610448;14647
610456;14790
610465;14491
610473;14577
610481;14432
610489;14438
610497;14208
610505;14463
610514;14169
610522;14266
610530;14254
610538;14353
610546;14248
610555;14396
610563;14157
610571;14310
610579;14099
610587;14104
610596;13891
610604;13935
610612;13935
610620;13903
610630;13912
610639;14349
610647;14168
610655;14253
610663;14076
610671;14296
610680;13961
610688;14084
610696;14042
610704;14029
610712;13815
610721;14230
610729;13540
610737;11158
610745;7865
610753;7002
610761;12456
610770;17180
610778;16501
610786;15690
610794;14893
610802;14530
610811;14293
610819;13992
610827;13866
610835;13785
610843;13524
610852;13530
610860;13593
610868;13314
610876;13357
610884;13220
610893;13181
610901;12962
610909;12929
610917;12589
610925;12527
610937;12197
610945;11869
610953;11813
610961;11763
610969;11821
610978;12000
610986;12272
610994;12482
611002;12862
611010;13298
611018;13676
611027;13949
611035;14156
611043;14538
611051;14345
611059;14499
611068;14492
611076;14617
611084;14431
611092;14469
611100;14320
611109;14399
611117;14145
611125;14184
611133;13959
611141;14188
611150;13959
611158;13993
611166;13752
611174;13958
611182;13788
611191;14057
611199;13906
611207;14055
611215;13695
611223;13587
611231;13362
611243;13609
611251;13495
611259;13639
611267;13455
611276;13693
611284;13592
611292;13674
611300;13621
611308;13747
611316;13537
611325;13652
611333;13521
611341;13589
611349;13292
611357;13778
611366;13104
611374;10784
611382;7055
611390;5843
611398;11046
611407;16030
611415;15590
611423;15075
611431;14409
611439;14424
611448;13850
611456;13836
611464;13527
611472;13758
611480;13428
611489;13535
611497;13345
611505;13529
611513;13337
611521;13199
611529;12954
611541;12947
611549;12604
611557;12580
611565;12224
611574;12098
611582;11652
611590;11784
611598;11619
611606;11884
611614;11808
611623;12108
611631;12307
611639;12987
611647;13143
611655;13681
611664;13837
611672;14141
611680;14088
611688;14421
611696;14164
611705;14252
611713;14222
611721;14393
611729;14291
611737;14260
611746;14166
611754;14142
611762;13935
611770;13967
611778;13933
611786;14103
611795;14033
611803;14087
611811;13848
611819;13761
611827;13880
611836;13879
611847;13894
611855;14128
611863;13776
611871;13662
611880;13484
611888;13607
611896;13618
611904;13654
611912;13432
611921;13681
611929;13831
611937;13832
611945;13652
611953;13742
611962;13764
611970;13721
611978;13677
611986;13678
611994;13738
612003;13624
612011;13928
612019;12352
612027;8818
612035;5724
612044;7367
612052;14706
612060;16028
612068;15306
612076;14684
612084;14165
612093;14044
612101;13737
612109;13679
612117;13460
612125;13590
612134;13334
612142;13470
612153;13415
612161;13347
612169;13213
612178;13206
612186;13245
612194;12894
612202;12680
612210;12611
612219;12357
612227;12322
612235;12104
612243;12097
612251;12062
612260;12213
612268;12233
612276;12739
612284;12950
612292;13541
612301;13706
612309;14199
612317;14171
612325;14435
612333;14356
612342;14644
612350;14404
612358;14547
612366;14390
612374;14533
612382;14306
612391;14390
612399;13975
612407;14119
612415;13938
612423;14062
612432;13855
612440;13984
612450;13782
612458;14079
612466;13859
612475;13911
612483;13646
612491;13897
612499;13639
612507;13863
612516;13706
612524;13900
612532;13668
612540;13833
612548;13576
612557;13606
612565;13334
612573;13536
612581;13360
612589;13663
612598;13405
612606;13705
612614;13699
612622;13958
612630;13868
612638;14082
612647;13937
612655;13976
612663;13698
612671;13974
612679;13800
612688;13874
612697;13856
612705;12279
612712;8471
612720;6745
612730;9405
612738;16263
612746;16495
612756;15724
612764;14888
612773;14739
612781;14171
612789;14080
612797;13806
612805;13854
612814;13524
612822;13770
612830;13587
612838;13668
612846;13281
612855;13393
612863;13143
612871;13131
612879;12805
612887;12684
612895;12289
612904;12220
612912;11796
612920;11798
612928;11601
612936;11814
612945;11815
612953;12016
612961;12190
612969;12614
612977;13055
612986;13556
612994;13833
613002;14033
613010;14239
613018;14179
613027;14286
613035;14329
613043;14386
613051;14291
613062;14212
613071;14268
613079;14054
613087;14041
613095;13907
613103;14007
613112;13774
613120;13720
613128;13636
613136;13715
613144;13589
613153;13528
613161;13523
613169;13597
613177;13550
613185;13403
613193;13463
613202;13469
613210;13553
613218;13541
613226;13678
613234;13537
613243;13488
613251;13161
613259;13185
613267;13193
613275;13462
613284;13281
613292;13488
613300;13451
613308;13693
613316;13515
613325;13671
613333;13530
613341;13693
613349;13435
613360;13454
613369;13350
613377;13383
613385;13794
613393;12593
613401;9038
613410;5621
613418;5860
613426;12980
613434;15558
613442;15317
613450;14603
613459;14498
613467;14001
613475;13923
613483;13715
613491;13893
613500;13657
613508;13659
613516;13499
613524;13570
613532;13262
613541;13430
613549;13241
613557;13315
613565;12952
613573;13017
613582;12421
613590;12420
613598;12053
613606;11965
613614;11689
613623;11827
613631;11596
613639;12007
613647;12006
613655;12466
613667;12834
613675;13432
613683;13674
613691;14100
613699;14045
613708;14406
613716;14209
613724;14393
613732;14062
613740;14337
613748;14100
613757;14210
613765;13945
613773;14129
613781;13875
613789;14016
613798;13734
613806;14090
613814;13760
613822;13875
613830;13704
613839;13892
613847;13707
613855;13760
613863;13561
613871;13944
613880;13571
613888;13648
613896;13668
613904;13733
613912;13636
613921;13830
613929;13749
613937;13783
613945;13465
613953;13392
613961;13228
613973;13500
613981;13329
613989;13540
613997;13446
614006;13712
614014;13608
614022;13760
614030;13691
614038;13796
614046;13658
614055;13851
614063;13666
614071;13673
614079;13582
614087;14341
614096;12910
614104;9626
614112;6160
614120;6515
614128;13771
614137;16227
614145;15686
614153;15028
614161;14593
614169;14345
614178;13982
614186;13898
614194;13727
614202;13588
614210;13613
614218;13565
614227;13652
614235;13559
614243;13298
614251;13207
614259;13089
614271;12920
614279;12737
614287;12570
614295;12279
614303;11966
614312;11681
614320;11659
614328;11623
614336;11756
614344;11869
614353;12101
614361;12364
614369;12732
614377;13136
614385;13480
614394;13803
614402;14041
614410;14299
614418;14213
614426;14301
614435;14223
614443;14422
614451;14132
614459;14118
614467;14031
614476;14190
614484;14081
614492;14212
614500;14022
614508;14276
614516;14135
614525;14325
614533;14137
614541;14286
614549;14061
614557;14181
614566;14057
614577;14296
614585;14232
614593;14374
614601;14230
614610;14325
614618;14215
614626;14217
614634;13822
614642;13960
614651;13798
614659;13935
614667;13695
614675;13783
614683;13782
614692;14115
614700;13781
614708;13953
614716;13834
614724;14057
614733;13881
614741;14023
614749;13887
614757;13929
614765;13518
614774;14253
614782;13291
614790;10523
614798;7180
614806;6834
614814;13406
614823;17047
614831;16111
614839;15400
614847;14557
614855;14488
614864;13987
614872;13862
614883;13629
614891;13798
614899;13539
614908;13591
614916;13156
614924;13417
614932;13346
614940;13251
614949;12866
614957;13006
614965;12791
614973;12669
614981;12135
614990;12172
614998;11780
615006;11915
615014;11663
615022;12008
615031;11982
615039;12317
615047;12498
615055;13044
615063;13412
615071;13921
615080;14103
615088;14451
615096;14573
615104;14683
615112;14639
615121;14686
615129;14604
615137;14627
615145;14413
615153;14455
615162;14403
615170;14407
615180;14281
615188;14450
615196;14229
615205;14389
615213;14149
615221;14166
615229;14092
615237;14191
615246;14140
615254;14427
615262;14224
615270;14194
615278;14133
615287;14239
615295;14181
615303;14145
615311;14025
615319;14045
615327;13928
615336;13899
615344;13696
615352;13710
615360;13754
615368;13773
615377;13601
615385;13736
615394;13859
615402;13792
615410;13980
615419;13818
615427;13833
615435;13746
615443;13797
615451;13696
615460;13703
615468;13869
615476;13807
615486;9997
615494;6884
615503;6657
615511;13745
615519;16453
615527;15912
615535;14949
615544;14358
615552;14076
615560;13766
615568;13571
615576;13419
615585;13332
615593;13458
615601;13325
615609;13138
615617;12951
615625;13059
615634;12932
615642;12918
615650;12611
615658;12678
615666;12381
615675;12279
615683;11899
615691;11783
615699;11541
615707;11766
615716;11597
615724;11875
615732;11841
615740;12284
615748;12432
615757;13069
615765;13276
615773;13924
615781;13885
615792;14306
615801;14334
615809;14508
615817;14343
615825;14331
615833;14260
615842;14354
615850;14114
615858;14186
615866;14012
615874;14238
615882;14056
615891;14208
615899;13913
615907;14197
615915;14041
615923;14099
615932;13913
615940;14150
615948;13989
615956;14215
615964;14072
615973;14218
615981;14014
615989;14146
615997;14030
616005;14166
616014;13907
616022;14149
616030;13974
616038;14116
616046;13963
616055;13940
616063;13614
616071;13777
616079;13541
616090;13833
616099;13574
616107;13720
616115;13573
616123;13795
616131;13692
616140;13970
616148;13720
616156;13859
616164;13647
616172;13685
616180;13550
616189;13701
616197;14004
616205;12974
616213;9294
616221;6332
616230;6530
616238;13840
616246;15906
616254;15581
616262;14703
616271;14405
616279;14044
616287;13879
616295;13611
616303;13590
616312;13462
616320;13464
616328;13312
616336;13306
616344;13225
616353;13201
616361;13106
616369;13036
616377;12861
616385;12763
616397;12462
616405;12315
616413;12023
616421;12007
616429;11661
616438;11753
616446;11827
616454;11966
616462;12081
616470;12416
616478;12672
616487;13244
616495;13493
616503;13864
616511;14075
616519;14286
616528;14255
616536;14357
616544;14371
616552;14453
616560;14351
616569;14282
616577;14287
616585;14220
616593;14072
616601;14009
616610;14105
616618;13922
616626;13896
616634;13895
616642;14127
616650;13684
616659;13773
616667;13788
616675;13940
616683;13767
616695;13831
616703;13950
616711;13958
616719;13893
616727;13869
616735;13842
616744;13887
616752;13860
616760;13885
616768;13670
616776;13674
616785;13515
616793;13462
616801;13370
616809;13479
616817;13378
616826;13539
616834;13500
616842;13712
616850;13546
616858;13621
616867;13550
616875;13738
616883;13531
616891;13706
616899;13509
616908;13549
616916;13669
616924;13826
616932;11421
616940;7757
616948;5211
616957;8919
616965;15331
616973;16076
616981;15095
616989;14790
617001;14266
617009;14259
617017;13960
617025;13892
617033;13680
617042;13803
617050;13488
617058;13534
617066;13344
617074;13412
617083;13103
617091;13111
617099;12867
617107;12926
617115;12580
617124;12516
617132;12074
617140;12062
617148;11571
617156;11739
617165;11600
617173;11921
617181;11915
617189;12291
617197;12388
617206;13020
617214;13246
617222;13778
617230;13847
617238;14206
617246;14207
617255;14456
617263;14372
617271;14427
617279;14186
617287;14261
617296;14047
617307;14315
617315;14016
617323;14096
617331;13811
617340;13908
617348;13779
617356;13947
617364;13712
617372;13886
617381;13700
617389;13818
617397;13783
617405;13915
617413;13669
617422;13870
617430;13670
617438;13918
617446;13896
617454;13914
617463;13764
617471;13919
617479;13847
617487;13820
617495;13629
617503;13671
617512;13592
617520;13647
617528;13526
617536;13624
617544;13719
617553;13753
617561;13809
617569;13788
617577;13846
617585;13849
617594;13827
617605;13767
617613;13797
617621;13633
617629;13919
617638;13431
617646;10497
617654;7136
617662;6148
617670;12202
617679;16470
617687;16090
617695;15316
617703;14728
617711;14542
617720;14281
617728;13904
617736;13759
617744;13774
617752;13727
617761;13729
617769;13688
617777;13676
617785;13586
617793;13702
617801;13433
617810;13249
617818;12970
617826;13061
617834;12761
617842;12648
617851;12183
617859;12239
617867;12026
617875;12076
617883;12109
617892;12451
617900;12541
617910;13199
617918;13641
617926;14031
617935;14247
617943;14571
617951;14583
617959;14774
617967;14658
617976;14633
617984;14443
617992;14550
618000;14407
618008;14427
618017;14205
618025;14383
618033;14175
618041;14258
618049;13994
618057;14116
618066;13842
618074;13984
618082;13859
618090;14088
618098;13896
618107;14017
618115;13805
618123;14044
618131;13713
618139;13956
618148;13873
618156;14060
618164;13959
618172;14022
618180;13824
618189;14145
618197;13842
618205;13974
618216;13918
618224;13993
618233;13693
618241;13907
618249;13594
618257;13637
618265;13533
618274;13845
618282;13608
618290;13776
618298;13667
618306;13965
618314;13858
618323;14050
618331;13770
618339;13868
618347;13592
618355;13722
618364;13889
618372;12437
618380;8576
618388;5618
618396;6402
618405;13826
618413;15506
618421;15156
618429;14491
618437;14383
618446;13921
618454;13824
618462;13639
618470;13646
618478;13543
618487;13574
618495;13488
618503;13490
618514;13232
618522;13445
618531;13189
618539;13157
618547;12827
618555;12795
618563;12440
618572;12354
618580;11861
618588;11876
618596;11684
618604;11932
618612;11810
618621;11946
618629;11979
618637;12455
618645;12713
618653;13240
618662;13567
618670;13956
618678;14033
618686;14107
618694;14080
618703;14211
618711;14129
618719;14082
618727;14060
618735;14024
618744;13948
618752;13941
618760;13995
618768;13892
618776;13954
618785;13870
618793;13915
618801;13841
618809;13935
618820;13929
618829;13907
618837;13971
618845;13918
618853;13933
618861;13867
618870;14008
618878;13918
618886;13681
618894;13803
618902;13879
618910;13898
618919;13821
618927;13771
618935;13603
618943;13504
618951;13351
618960;13538
618968;13418
618976;13453
618984;13381
618992;13484
619001;13402
619009;13696
619017;13592
619025;13764
619033;13577
619042;13738
619050;13624
619058;13724
619066;13487
619074;14027
619082;13390
619091;10930
619099;6912
619107;5563
619115;10289
619127;15978
619135;15558
619143;15041
619151;14702
619159;14502
619167;14100
619176;14030
619184;13588
619192;13684
619200;13481
619208;13615
619217;13376
619225;13489
619233;13195
619241;13207
619249;12966
619258;13062
619266;12765
619274;12692
619282;12294
619290;12305
619299;11906
619307;11988
619315;11729
619323;11980
619331;11908
619340;12249
619348;12138
619356;12604
619364;12887
619372;13430
619380;13567
619389;13950
619397;13982
619405;14315
619413;14206
619425;14466
619433;14283
619441;14201
619449;13894
619457;14090
619465;13910
619474;14094
619482;13904
619490;14095
619498;13869
619506;14022
619515;13857
619523;14063
619531;13954
619539;14169
619547;14087
619556;14304
619564;13865
619572;14077
619580;13961
619588;14141
619597;13973
619605;14002
619613;13828
619621;13961
619629;13935
619638;14005
619646;13858
619654;13712
619662;13522
619670;13618
619678;13576
619687;13664
619695;13634
619703;13730
619711;13818
619719;13864
619739;14387
619747;14235
619755;14186
619763;13928
619772;14043
619780;13885
619788;14280
619796;12934
619804;9780
619813;6412
619821;7144
619829;14315
619837;16250
619845;15516
619854;14801
619862;14591
619870;14208
619878;14001
619886;13887
619895;13729
619903;13575
619911;13530
619919;13473
619927;13396
619935;13214
619944;13235
619952;12934
619960;12910
619968;12662
619976;12534
619985;12282
619993;12275
620001;11919
620009;11848
620017;11591
620026;11758
620034;11620
620044;11931
620052;12184
620060;12474
620069;12851
620077;13214
620085;13506
620093;13918
620101;14081
620110;14304
620118;14315
620126;14392
620134;14283
620142;14446
620151;14232
620159;14318
620167;14129
620176;14074
620184;13922
620193;14144
620201;13969
620209;14044
620217;13831
620225;13985
620233;13823
620242;14089
620250;13799
620258;14009
620266;13867
620274;14078
620283;13903
620291;14043
620299;13861
620307;14109
620315;13814
620324;13865
620332;13537
620342;13656
620350;13433
620358;13704
620367;13482
620375;13665
620383;13644
620391;13955
620399;13863
620408;14073
620416;13827
620424;13978
620432;13793
620440;14048
620449;13821
620457;13914
620465;13786
620473;13971
620481;11669
620489;7986
620498;5641
620506;10551
620514;16091
620522;16062
620530;14971
620539;14540
620547;14154
620555;14134
620563;13722
620571;13831
620580;13549
620588;13537
620596;13295
620604;13324
620612;13184
620621;13222
620629;13035
620637;13065
620648;12714
620656;12861
620665;12447
620673;12444
620681;12043
620689;12027
620697;11715
620706;11923
620714;11733
620722;12046
620730;12037
620738;12503
620746;12602
620755;13119
620763;13285
620771;13863
620779;13957
620787;14191
620796;14182
620804;14417
620812;14465
620820;14474
620828;14312
620837;14278
620845;14111
620853;14059
620861;14097
620869;14122
620878;14015
620886;14057
620894;14054
620902;13955
620910;14143
620919;14074
620927;14096
620935;13993
620943;13979
620954;14087
620963;14027
620971;14214
620979;14077
620987;13953
620995;13895
621004;13849
621012;13699
621020;13641
621028;13355
621036;13348
621044;13423
621053;13505
621061;13673
621069;13784
621077;13845
621085;13753
621094;13640
621102;13598
621110;13581
621118;13419
621126;13560
621135;13542
621143;14107
621151;12556
621159;8931
621167;5761
621176;7367
621184;15072
621192;16238
621200;15208
621208;14615
621217;14138
621225;14098
621233;13600
621241;13682
621252;13541
621261;13618
621269;13410
621277;13371
621285;13357
621293;13227
621302;13146
621310;13213
621318;12975
621326;13028
621334;12720
621342;12598
621351;12234
621359;12183
621367;11909
621375;11994
621383;11840
621392;12141
621400;12144
621408;12538
621416;12685
621424;13153
621433;13321
621441;13925
621449;14011
621457;14389
621465;14365
621474;14706
621482;14514
621490;14700
621498;14517
621506;14642
621514;14501
621523;14624
621531;14412
621539;14673
621547;14450
621559;14578
621567;14420
621575;14584
621583;14333
621591;14461
621599;14311
621608;14528
621616;14275
621624;14396
621632;14046
621640;14112
621649;13909
621657;14046
621665;13771
621673;14000
621681;13905
621690;14083
621698;14000
621706;14266
621714;14008
621722;14204
621731;14036
621739;14009
621747;13888
621755;14016
621763;13695
621772;13815
621780;14084
621788;12797
621796;9269
621804;6908
621812;7533
621821;15388
621829;17097
621837;16128
621845;15417
621853;14694
621865;14132
621873;14136
621881;13833
621889;13785
621897;13550
621906;13692
621914;13417
621922;13461
621930;13372
621938;13460
621947;12996
621955;12977
621963;12809
621971;12685
621979;12443
621988;12332
621996;12032
622004;11916
622012;11669
622020;11870
622029;11899
622037;12078
622045;12342
622053;12664
622061;12996
622070;13268
622078;13623
622086;13913
622094;14185
622102;14300
622110;14525
622119;14515
622127;14631
622135;14576
622143;14506
622151;14336
622163;14285
622171;14389
622179;14207
622187;14252
622195;14207
622204;13964
622212;13869
622220;13909
622228;13904
622236;13934
622245;13933
622253;13792
622261;13927
622269;13583
622277;13480
622286;13530
622294;13643
622302;13273
622310;13432
622318;13424
622327;13685
622335;13763
622343;13995
622351;13751
622359;13861
622367;13685
622376;13910
622384;13661
622392;13811
622400;13491
622408;14111
622417;13415
622425;10938
622433;7002
622441;5663
622449;11643
622458;16253
622469;15538
622477;15047
622485;14548
622493;14445
622502;14087
622510;14131
622518;13756
622526;13689
622534;13516
622543;13667
622551;13416
622559;13603
622567;13340
622575;13327
622584;13046
622592;13114
622600;12774
622608;12799
622616;12366
622625;12254
622633;11967
622641;12011
622649;11842
622657;12186
622665;12092
622674;12435
622682;12501
622690;13099
622698;13210
622706;13680
622715;13857
622723;14105
622731;14113
622739;14360
622747;14010
622756;14181
622764;14090
622774;14293
622782;14101
622790;14240
622799;13898
622807;14071
622815;13878
622823;14103
622831;13744
622840;13967
622848;13735
622856;13917
622864;13606
622872;13836
622881;13775
622889;13817
622897;13545
622905;13633
622913;13306
622921;13498
622930;13411
622938;13494
622946;13429
622954;13696
622962;13698
622971;13929
622979;13892
622987;13944
622995;13837
623003;13990
623012;13907
623020;13877
623028;13873
623037;13727
623045;14135
623054;13471
623062;10267
623072;4935
623080;6063
623088;13998
623097;15692
623105;15391
623113;14671
623121;14608
623129;14172
623138;13967
623146;13808
623154;13705
623162;13603
623170;13664
623178;13661
623187;13713
623195;13525
623203;13489
623211;13547
623219;13160
623228;12830
623236;12822
623244;12689
623252;12462
623260;12201
623269;11942
623277;11999
623285;11898
623293;12032
623301;12089
623310;12455
623318;12588
623326;13136
623334;13421
623342;13962
623351;14086
623359;14407
623367;14353
623378;14628
623386;14527
623395;14522
623403;14488
623411;14411
623419;14367
623427;14323
623436;14192
623444;14177
623452;14095
623460;14083
623468;13932
623476;14086
623485;14052
623493;14098
623501;13899
623509;14088
623517;13918
623526;14111
623534;13849
623542;13898
623550;13779
623558;13762
623567;13373
623575;13591
623583;13563
623591;13703
623599;13496
623608;13795
623616;13343
623624;13601
623632;13529
623640;13780
623649;13596
623657;13789
623665;13606
623676;13803
623684;13766
623693;13738
623701;13815
623709;12653
623717;8982
623725;5422
623734;6230
623742;13990
623750;15701
623758;15333
623766;14635
623774;14547
623783;13975
623791;14054
623799;13776
623807;13771
623815;13552
623824;13702
623832;13360
623840;13531
623848;13225
623856;13470
623865;13189
623873;13172
623881;12869
623889;12931
623897;12534
623906;12496
623914;12107
623922;12163
623930;11799
623938;11916
623946;11916
623955;12163
623963;12163
623971;12647
623982;13049
623991;13752
623999;13831
624007;14185
624015;14199
624023;14572
624031;14317
624040;14588
624048;14407
624056;14625
624064;14317
624072;14372
624081;14176
624089;14401
624097;14107
624105;14189
624113;14075
624122;14211
624130;14054
624138;14163
624146;13972
624154;14029
624163;13963
624171;14072
624179;13977
624187;14052
624195;13999
624204;14040
624212;13992
624220;13942
624228;13734
624236;13594
624244;13636
624253;13629
624261;13616
624269;13676
624277;13838
624289;14057
624297;14053
624305;14110
624313;13924
624321;13971
624329;13852
624338;13909
624346;13746
624354;13700
624362;14065
624370;13838
624379;11086
624387;7134
624395;5382
624403;10776
624411;15859
624420;15724
624428;15100
624436;14565
624444;14290
624452;13856
624461;13813
624469;13592
624477;13654
624485;13468
624493;13479
624502;13410
624510;13382
624518;13131
624526;13205
624534;12931
624542;12955
624551;12729
624559;12770
624567;12321
624575;12347
624586;12063
624595;11953
624603;11952
624611;12016
624619;12055
624627;12298
624636;12494
624644;12965
624652;13254
624660;13695
624668;13775
624677;14091
624685;14211
624693;14380
624701;14379
624709;14517
624718;14311
624726;14463
624734;14219
624742;14435
624750;14166
624759;14337
624767;14040
624775;14167
624783;14005
624791;14173
624799;13985
624808;14253
624816;14127
624824;14218
624832;13965
624840;14156
624849;14036
624857;14220
624865;13976
624873;14182
624881;13961
624893;13885
624901;13636
624909;13783
624917;13594
624925;13657
624934;13526
624942;13890
624950;13762
624958;13866
624966;13688
624975;13868
624983;13543
624991;13749
624999;13525
625007;13838
625016;13486
625024;13483
625032;13830
625040;13382
625048;10123
625057;6531
625065;5435
625073;12806
625081;15999
625089;15442
625097;14541
625106;14340
625114;13953
625122;13873
625130;13714
625138;13733
625147;13627
625155;13703
625163;13455
625171;13430
625179;13423
625188;13305
625199;13258
625207;13364
625215;12872
625223;12818
625232;12519
625240;12547
625248;12045
625256;12004
625264;11842
625273;11931
625281;11822
625289;12130
625297;12168
625305;12635
625314;12919
625322;13399
625330;13641
625338;13836
625346;13991
625354;14229
625363;14336
625371;14319
625379;14311
625387;14357
625395;14264
625404;14171
625412;14157
625420;14026
625428;14054
625436;13975
625445;14073
625453;13875
625461;13845
625469;13806
625477;13917
625486;13754
625496;13666
625504;13828
625512;13745
625520;13834
625529;13798
625537;13858
625545;13770
625553;13848
625561;13778
625570;13421
625578;13493
625586;13498
625594;13426
625602;13450
625610;13573
625619;13647
625627;13847
625635;13812
625643;13821
625651;13597
625660;13800
625668;13661
625676;13693
625684;13521
625692;13717
625701;13780
625710;13893
625718;11336
625726;7566
625734;5332
625743;10655
625751;16108
625759;15925
625767;15073
625775;14492
625784;14118
625792;14026
625802;13597
625810;13719
625818;13555
625827;13587
625835;13376
625843;13429
625851;13243
625859;13370
625868;13030
625876;13106
625884;12839
625892;12868
625900;12625
625908;12642
625917;12224
625925;12106
625933;11753
625941;12028
625949;11919
625958;12194
625966;12192
625974;12647
625982;12821
625990;13457
625999;13608
626007;14085
626015;13998
626023;14443
626031;14428
626040;14531
626048;14444
626056;14708
626064;14299
626072;14465
626081;14293
626089;14352
626097;14211
626108;14307
626116;14193
626125;14315
626133;14021
626141;14220
626149;14050
626157;14227
626166;14121
626174;14285
626182;13992
626190;14171
626198;13905
626206;13950
626215;13715
626223;13915
626231;13622
626239;13825
626247;13645
626256;13885
626264;13765
626272;14051
626280;14052
626288;14062
626297;13851
626305;14070
626313;13817
626321;13896
626329;13847
626338;13863
626346;14153
626354;13689
626362;10618
626370;7197
626378;6162
626387;12939
626395;17062
626406;15945
626414;15146
626423;14872
626431;14394
626439;14157
626447;13918
626455;13822
626463;13620
626472;13825
626480;13694
626488;13512
626496;13274
626504;13466
626513;13244
626521;13067
626529;12935
626537;12799
626545;12502
626554;12489
626562;11979
626570;11832
626578;11811
626586;11842
626595;12009
626603;12145
626611;12324
626619;12562
626627;12914
626636;13272
626644;13782
626652;14016
626660;14339
626668;14429
626676;14705
626685;14444
626693;14553
626701;14476
626712;14583
626721;14591
626729;14451
626737;14464
626745;14508
626753;14236
626761;14111
626770;14141
626778;14128
626786;13989
626794;14022
626802;14030
626811;14032
626819;14009
626827;14019
626835;13850
626843;13794
626852;13552
626860;13656
626868;13527
626876;13655
626884;13577
626893;13873
626901;13825
626909;13918
626917;13794
626925;14015
626934;13829
626942;14060
626950;13855
626958;14059
626966;13819
626974;13779
626983;13883
626991;13974
626999;11154
627010;6175
627018;5947
627027;13670
627035;16230
627043;15724
627051;14902
627059;14759
627068;14211
627076;14042
627084;13701
627092;13706
627100;13454
627109;13604
627117;13351
627125;13355
627133;13114
627141;13298
627150;13024
627158;13073
627166;12727
627174;12766
627182;12425
627191;12413
627199;11812
627207;11813
627215;11508
627223;11772
627231;11726
627240;11923
627248;11997
627256;12504
627264;12620
627272;13192
627281;13397
627289;13936
627297;13877
627305;14169
627316;14164
627325;14460
627333;14259
627341;14506
627349;14003
627357;14158
627366;13869
627374;14066
627382;13932
627390;14050
627398;13752
627407;14019
627415;13751
627423;13897
627431;13785
627439;13867
627448;13810
627456;14015
627464;13731
627472;13938
627480;13697
627489;13726
627497;13485
627505;13560
627513;13358
627521;13472
627529;13639
627538;13520
627546;13661
627554;13872
627562;13801
627570;13857
627579;13776
627587;13829
627595;13851
627603;13710
627611;13745
627623;13987
627631;14004
627639;11982
627647;8060
627655;6168
627664;9679
627672;16632
627680;16561
627688;15971
627696;15228
627705;14707
627713;14279
627721;14103
627729;13889
627737;13807
627746;13799
627754;13750
627762;13563
627770;13582
627778;13500
627786;13236
627795;13240
627803;13081
627811;13108
627819;12917
627827;12616
627836;12319
627844;12334
627852;12141
627860;11998
627868;11915
627877;12191
627885;12235
627893;12646
627901;12919
627909;13567
627918;13612
627929;14157
627937;14513
627945;14638
627953;14674
627962;14669
627970;14588
627978;14722
627986;14663
627994;14645
628003;14474
628011;14493
628019;14295
628027;14377
628035;14293
628044;14398
628052;14113
628060;14193
628068;14074
628076;14131
628084;13943
628093;14092
628101;13919
628109;14013
628117;13701
628125;13748
628134;13497
628142;13645
628150;13465
628158;13715
628166;13528
628175;13702
628183;13620
628191;13955
628199;13860
628207;13870
628216;13695
628227;13882
628235;13622
628243;13679
628251;13538
628260;14135
628268;12410
628276;8872
628284;5251
628292;6476
628301;13862
628309;15803
628317;15195
628325;14814
628333;14432
628342;14338
628350;13851
628358;13965
628366;13622
628374;13828
628382;13605
628391;13684
628399;13308
628407;13448
628415;13278
628423;13450
628432;12999
628440;13102
628448;12851
628456;12798
628464;12412
628473;12358
628481;12190
628489;11977
628497;11895
628505;12153
628514;12017
628522;12450
628532;12976
628540;13641
628548;13836
628557;14404
628565;14410
628573;14671
628581;14591
628590;14842
628599;14517
628607;14593
628615;14462
628623;14621
628631;14387
628639;14588
628648;14409
628656;14372
628664;14251
628672;14342
628680;14136
628689;13996
628697;13988
628705;14066
628713;13911
628721;14048
628730;14144
628738;14029
628746;13800
628754;13864
628762;13959
628771;14224
628779;13912
628787;13596
628795;13666
628803;13595
628812;13585
628820;13534
628830;13510
628838;13765
628846;13648
628855;13892
628863;13669
628871;13734
628879;13654
628887;13654
628895;13612
628904;13633
628912;13547
628920;13613
628928;13619
628936;13540
628945;11304
628953;7197
628961;5042
628969;8206
628977;14692
628986;15531
628994;15038
629002;14581
629010;14428
629018;14026
629027;13986
629035;13834
629043;13849
629051;13625
629059;13676
629068;13389
629076;13364
629084;13197
629092;13350
629100;13160
629108;13296
629117;13079
629125;13124
629136;12553
629144;12466
629153;12194
629161;12045
629169;11886
629177;11949
629185;12064
629193;12195
629202;12402
629210;12866
629218;13047
629226;13658
629234;13864
629243;14206
629251;14379
629259;14525
629267;14299
629275;14492
629284;14243
629292;14478
629300;13990
629308;13971
629316;13909
629325;14089
629333;13684
629341;14155
629349;14056
629357;14254
629366;14139
629374;14168
629382;13640
629390;13852
629398;13658
629406;13798
629415;13668
629423;13892
629431;13755
629442;13902
629450;13906
629459;14088
629467;13800
629475;13992
629483;13531
629491;13526
629500;13477
629508;13799
629516;13581
629524;13656
629532;13411
629541;13594
629549;13505
629557;13812
629565;13679
629573;13637
629582;13615
629590;13856
629598;13298
629606;13545
629614;13377
629623;13709
629631;13805
629639;11957
629647;7837
629655;5365
629663;7489
629672;14764
629680;15690
629688;15299
629696;14957
629704;14423
629713;13900
629721;14063
629729;13677
629737;13711
629748;13777
629757;13786
629765;13581
629773;13498
629781;13153
629789;13392
629798;12983
629806;13002
629814;12722
629822;12803
629830;12605
629839;12482
629847;11801
629855;11868
629863;11793
629871;12242
629880;11807
629888;11990
629896;12062
629904;12634
629912;13091
629921;13724
629929;13927
629937;14049
629945;14278
629953;14228
629961;14533
629970;14358
629978;14193
629986;14244
629994;14388
630002;14250
630011;14226
630019;14192
630027;14371
630035;14271
630046;13938
630055;14191
630063;14229
630071;14222
630079;14076
630087;14129
630096;13969
630104;14250
630112;14167
630120;13993
630128;13971
630137;13951
630145;13835
630153;13819
630161;13818
630169;13821
630178;13958
630186;13913
630194;13643
630202;13548
630210;13431
630218;13247
630227;13498
630235;13509
630243;13698
630251;13609
630259;13809
630268;13589
630276;13840
630284;13656
630292;13847
630300;13490
630309;13608
630317;13494
630325;13673
630333;13838
630341;13776
630353;9923
630361;6299
630369;5732
630377;12871
630385;15813
630394;15476
630402;14533
630410;14331
630418;13946
630426;14141
630435;13925
630443;13456
630451;13316
630459;13405
630467;13212
630476;13265
630484;13076
630492;13177
630500;12903
630508;12917
630516;12656
630525;12748
630533;12356
630541;12200
630549;11728
630557;11756
630566;11373
630574;11728
630582;11734
630590;11694
630598;11550
630607;12156
630615;12231
630623;12947
630631;13142
630639;13791
630648;13592
630659;14096
630667;14024
630675;14275
630683;14160
630692;14448
630700;14015
630708;14070
630716;13898
630724;14066
630733;13897
630741;14159
630749;13762
630757;13865
630765;13933
630774;13803
630782;13679
630790;13985
630798;13626
630806;13781
630814;13736
630823;13903
630831;13824
630839;13998
630847;13530
630855;13825
630864;13655
630872;13786
630880;13909
630888;13998
630896;13753
630905;13744
630913;13571
630921;13476
630929;13353
630937;13358
630946;13354
630957;13621
630965;13571
630973;13783
630981;13462
630990;13822
630998;13580
631006;13689
631014;13572
631022;13769
631031;13642
631039;13663
631047;13564
631055;14093
631063;11628
631071;7916
631080;5447
631088;9028
631096;15792
631104;16057
631112;15146
631121;14538
631129;14459
631137;14241
631145;13947
631153;13900
631162;13925
631170;13907
631178;13897
631186;13554
631194;13528
631203;13509
631211;13521
631219;13370
631227;13434
631235;13119
631244;13122
631252;12811
631263;12435
631271;12277
631279;12168
631288;12079
631296;12052
631304;12217
631312;12368
631320;12755
631329;12972
631337;13138
631345;13773
631353;13965
631361;14242
631369;14432
631378;14446
631386;14274
631394;14551
631402;14561
631410;14640
631419;14333
631427;14304
631435;14163
631443;14239
631451;14101
631460;14233
631468;13902
631476;14169
631484;13821
631492;14105
631501;14052
631509;14072
631517;13819
631525;14012
631533;13794
631542;13952
631550;13850
631560;14239
631568;14092
631576;14190
631585;13896
631593;14159
631601;13793
631609;13665
631617;13539
631625;13690
631634;13481
631642;13744
631650;13680
631658;13816
631666;13677
631675;13913
631683;13787
631691;13991
631699;13683
631707;13834
631716;13613
631724;13752
631732;13917
631740;13703
631748;10674
631757;7371
631766;5834
631774;12263
631782;16502
631790;16057
631799;15061
631807;14663
631815;14196
631823;14107
631831;13772
631839;13855
631848;13683
631856;13843
631866;13421
631874;13715
631882;13395
631891;13651
631899;13304
631907;13463
631915;13172
631923;13161
631932;12661
631940;12586
631948;12216
631956;12226
631964;11771
631973;11904
631981;11865
631989;12202
631997;12218
632005;12592
632014;12777
632022;13377
632030;13678
632038;14196
632046;14215
632055;14539
632063;14465
632071;14689
632079;14772
632087;14658
632095;14644
632104;14741
632112;14527
632120;14552
632128;14499
632136;14555
632145;14676
632153;14526
632161;14587
632172;14567
632180;14355
632189;14509
632197;14405
632205;14635
632213;14342
632221;14442
632230;14247
632238;14218
632246;13969
632254;14219
632262;14103
632271;14139
632279;14150
632287;14210
632295;14205
632303;14242
632312;14235
632320;14199
632328;14075
632336;14013
632344;14127
632353;13918
632361;13754
632369;14060
632377;13587
632385;10784
632393;7461
632402;6206
632410;12784
632418;16871
632426;16335
632434;15382
632443;14676
632451;14221
632459;14320
632470;13797
632478;13792
632487;13711
632495;13635
632503;13564
632511;13628
632519;13426
632528;13117
632536;13148
632544;13144
632552;12935
632560;12819
632569;12640
632577;12631
632585;11849
632593;11794
632601;11745
632610;11930
632618;11721
632626;11960
632634;12175
632642;12776
632650;12859
632659;13269
632667;13493
632675;14091
632683;14121
632691;14334
632700;14240
632708;14608
632716;14574
632724;14446
632732;14139
632741;14430
632749;14008
632757;14263
632765;14115
632776;14242
632785;14109
632793;14057
632801;13796
632809;13957
632817;13740
632826;14034
632834;13651
632842;13760
632850;13698
632858;13882
632867;13384
632875;13474
632883;13238
632891;13635
632899;13493
632908;13619
632916;13552
632924;13992
632932;13665
632940;13862
632948;13682
632957;13785
632965;13595
632973;13822
632981;13620
632989;13770
632998;13874
633006;13447
633014;10346
633022;6999
633030;5675
633039;12342
633047;16029
633055;15793
633063;15053
633071;14564
633083;14123
633091;14103
633099;13709
633107;13924
633115;13533
633124;13711
633132;13435
633140;13616
633148;13371
633156;13514
633165;13146
633173;13145
633181;12925
633189;13034
633197;12627
633206;12415
633214;12046
633222;12101
633230;11561
633238;11748
633246;11822
633255;12167
633263;12146
633271;12714
633279;13044
633287;13473
633296;13713
633304;14301
633312;14249
633320;14432
633328;14537
633337;14373
633345;14417
633353;14465
633361;14346
633369;14401
633381;14399
633389;14383
633397;14087
633405;14181
633413;14092
633422;14153
633430;14113
633438;14372
633446;14109
633454;13926
633463;13856
633471;13966
633479;13847
633487;13809
633495;13630
633503;13593
633512;13672
633520;13585
633528;13291
633536;13516
633544;13642
633553;13640
633561;13719
633569;13757
633577;13894
633585;13925
633594;13805
633602;13641
633610;13746
633618;13385
633626;13398
633635;13995
633643;13224
633651;9586
633659;5561
633667;5340
633676;12964
633687;15821
633695;15213
633703;14705
633711;14375
633720;14032
633728;14053
633736;13808
633744;13983
633752;13945
633761;14138
633769;13878
633777;13226
633785;13067
633793;13295
633801;13044
633810;12707
633818;12641
633826;12647
633834;12644
633842;12575
633851;12040
633859;12057
633867;11535
633875;11832
633883;11679
633892;11902
633900;12023
633908;12346
633916;12576
633924;13313
633933;13461
633941;13964
633949;13920
633957;14143
633965;14077
633974;14261
633982;13867
633993;14153
634001;13864
634009;13991
634018;13853
634026;13911
634034;13798
634042;14067
634050;13796
634058;13799
634067;13654
634075;13826
634083;13626
634091;13977
634099;13674
634108;13867
634116;13777
634124;14113
634132;13678
634140;13768
634149;13354
634157;13606
634165;13391
634173;13408
634181;13559
634190;13794
634198;13408
634206;13800
634214;13772
634222;14005
634231;13723
634239;13947
634247;13809
634255;13937
634263;13649
634271;13541
634280;13821
634291;13469
634299;9928
634307;6023
634316;5090
634324;12385
634332;15681
634340;15655
634348;14737
634356;14646
634365;14140
634373;14065
634381;13880
634389;13948
634397;13541
634406;13782
634414;13643
634422;13633
634430;13465
634438;13716
634447;13350
634455;13238
634463;12985
634471;12864
634479;12638
634488;12488
634496;12187
634504;12095
634512;11949
634520;12052
634529;12260
634537;12258
634545;12652
634553;12303
634561;12647
634569;13203
634578;13759
634586;13951
634596;14189
634604;14519
634612;14549
634621;14687
634629;14542
634637;14549
634645;14489
634653;14461
634662;14274
634670;14444
634678;14148
634686;14036
634694;14007
634703;14091
634711;13846
634719;13869
634727;13995
634735;14029
634744;14095
634752;14450
634760;14084
634769;13550
634777;13691
634786;13856
634794;14047
634802;13946
634810;13940
634818;13696
634826;13577
634835;13586
634843;13882
634851;13363
634859;13500
634867;13574
634876;13821
634884;13749
634892;14055
634902;13728
634910;13854
634919;13868
634927;13911
634935;13857
634943;13840
634951;14379
634960;13894
634968;10829
634976;7025
634984;5494
634992;11593
635001;15962
635009;16003
635017;15070
635025;14852
635033;14518
635042;14475
635050;14317
635058;14167
635066;13736
635074;13923
635082;13776
635091;13920
635099;13631
635107;13738
635115;13436
635123;13575
635132;13292
635140;13480
635148;12756
635156;12656
635164;12344
635173;12331
635181;11999
635189;12181
635200;12150
635208;12445
635217;12457
635225;12866
635233;13055
635241;13620
635249;13904
635258;14698
635266;13845
635274;14189
635282;14269
635290;14609
635299;14419
635307;14602
635315;14405
635323;14612
635331;14400
635340;14549
635348;14160
635356;14760
635364;14332
635372;13958
635380;13957
635389;14200
635397;14033
635405;14244
635413;14022
635421;14157
635430;14026
635438;14165
635446;14033
635454;14329
635462;14147
635471;13952
635479;13570
635487;13699
635495;13651
635506;13968
635515;13846
635523;14088
635531;13934
635539;14195
635547;14073
635556;14186
635564;14018
635572;14135
635580;13772
635588;13933
635597;13635
635605;13686
635613;14031
635621;13651
635629;11003
635638;7316
635646;6165
635654;12634
635662;16335
635670;15990
635678;14887
635687;14285
635695;14125
635703;13965
635711;13757
635719;13559
635728;13575
635736;13562
635744;13486
635752;13374
635760;13393
635769;13321
635777;13268
635785;13046
635793;13106
635801;12802
635813;12600
635821;12478
635829;12058
635837;11950
635845;11739
635854;11760
635862;11828
635870;12018
635878;12153
635886;12323
635895;12719
635903;13156
635911;13587
635919;13908
635927;14149
635935;14238
635944;14375
635952;14386
635960;14494
635968;14389
635976;14479
635985;14348
635993;14394
636001;14260
636009;14320
636017;14156
636026;14264
636034;14103
636042;14233
636050;14087
636058;14215
636067;14006
636075;14219
636083;14052
636091;14233
636099;14032
636111;14173
636119;13915
636127;13821
636135;13766
636143;13884
636152;13822
636160;13974
636168;13920
636176;14141
636184;14036
636193;14136
636201;14016
636209;14096
636217;13854
636225;13947
636233;13658
636242;13783
636250;13510
636258;13858
636266;13452
636274;11217
636283;7323
636291;6138
636299;10684
636307;16273
636315;15688
636324;15125
636332;14165
636340;14027
636348;13548
636356;13452
636365;13101
636373;13125
636381;12834
636389;12975
636397;12672
636406;12710
636417;12506
636425;12738
636433;12399
636441;12340
636450;11931
636458;11890
636466;11441
636474;11361
636482;10869
636490;10966
636499;10752
636507;11002
636515;10951
636523;11405
636531;11486
636540;12159
636548;12420
636556;13027
636564;13213
636572;13598
636581;13614
636589;13929
636597;13944
636605;14176
636613;14030
636622;14174
636630;13967
636638;14111
636646;14037
636654;14136
636663;13867
636671;13901
636679;13852
636687;13933
636695;13855
636703;13883
636714;13719
636722;13860
636730;13620
636738;13608
636746;13277
636755;13404
636763;13270
636771;13518
636779;13461
636788;13706
636797;13668
636805;13885
636813;13733
636821;13862
636829;13800
636838;13901
636846;13787
636854;13888
636862;13699
636870;13679
636879;13775
636887;13802
636895;11605
636903;7870
636911;6046
636920;10202
636928;16639
636936;16523
636944;15837
636952;14957
636961;14494
636969;14026
636977;13810
636985;13603
636993;13639
637001;13439
637010;13522
637020;13477
637028;13381
637036;13337
637044;13154
637053;13156
637061;12997
637069;12834
637077;12578
637085;12461
637094;12107
637102;11988
637110;11773
637118;11841
637126;11858
637135;11976
637143;12180
637151;12481
637159;12961
637167;13411
637176;13877
637184;14153
637192;14442
637200;14567
637208;14672
637217;14759
637225;14725
637233;14743
637241;14648
637249;14720
637257;14679
637266;14677
637274;14554
637282;14401
637290;14469
637298;14261
637307;14249
637315;13998
637326;14134
637334;14156
637342;14112
637351;13898
637359;13883
637367;13682
637375;13823
637383;13693
637392;13731
637400;13663
637408;13900
637416;13860
637424;14109
637433;13969
637441;14163
637449;13989
637457;14140
637465;13989
637474;14101
637482;13829
637490;13973
637498;14019
637506;14105
637514;11528
637523;7767
637531;5509
637539;10115
637547;16205
637555;16583
637564;15734
637572;15204
637580;14717
637588;14537
637596;14109
637605;14218
637613;13949
637624;14071
637632;13789
637640;13823
637649;13534
637657;13620
637665;13363
637673;13449
637681;13127
637690;13039
637698;12601
637706;12607
637714;12147
637722;12063
637731;11667
637739;11830
637747;11782
637755;12085
637763;12108
637772;12651
637780;12909
637788;13518
637796;13731
637804;14201
637812;14280
637821;14574
637829;14521
637837;14652
637845;14549
637853;14561
637862;14401
637870;14474
637878;14324
637886;14366
637894;14231
637903;14286
637911;14176
637919;14094
637930;13936
637938;14114
637947;13889
637955;14014
637963;13821
637971;13937
637979;13715
637988;13810
637996;13562
638004;13695
638012;13546
638020;13727
638029;13664
638037;13808
638045;13744
638053;13944
638061;13961
638070;14052
638078;13927
638086;13949
638094;13870
638102;13886
638110;13824
638119;13715
638127;13915
638135;13959
638143;11681
638151;7306
638160;4556
638168;8030
638176;15330
638184;15989
638192;15378
638201;14646
638209;14473
638217;13976
638225;13800
638236;13657
638245;13600
638253;13549
638261;13377
638269;13375
638277;13313
638286;13287
638294;13214
638302;13094
638310;12950
638318;12793
638327;12609
638335;12360
638343;12178
638351;11878
638359;11772
638367;11701
638376;11789
638384;11754
638392;12038
638400;12249
638408;12820
638417;13143
638425;13681
638433;13848
638441;14216
638449;14237
638458;14490
638466;14444
638474;14559
638482;14448
638490;14583
638499;14343
638507;14459
638515;14230
638523;14344
638534;14182
638543;14279
638551;14146
638559;14200
638567;14022
638575;14079
638584;13938
638592;14077
638600;13934
638608;14050
638616;13938
638625;14078
638633;13906
638641;13906
638649;13648
638657;13750
638665;13579
638674;13731
638682;13540
638690;13795
638698;13703
638706;13995
638715;13779
638723;13995
638731;13798
638739;13926
638747;13707
638756;13806
638764;13597
638772;13669
638780;13411
638788;14211
638797;12894
638805;9405
638813;5263
638821;5361
638829;12575
638841;16223
638849;15667
638857;15065
638865;14478
638873;14259
638882;13819
638890;13873
638898;13536
638906;13646
638914;13374
638922;13477
638931;13200
638939;13292
638947;13016
638955;13123
638963;12838
638972;12917
638980;12614
638988;12611
638996;12240
639004;12211
639013;11833
639021;11836
639029;11699
639037;11994
639045;12010
639054;12385
639062;12673
639070;13238
639078;13619
639086;14084
639095;14242
639103;14595
639111;14539
639119;14729
639127;14547
639135;14694
639155;14960
639163;14679
639171;14702
639180;14377
639188;14465
639196;14247
639204;14366
639212;14122
639220;14271
639229;14030
639237;14202
639245;13963
639253;14181
639261;13947
639270;14119
639278;13922
639286;14138
639294;13897
639302;13996
639311;13889
639319;13856
639327;13690
639335;13499
639343;13468
639352;13463
639360;13488
639368;13436
639376;13462
639384;13434
639393;13613
639401;13633
639409;13743
639417;13665
639425;13770
639433;13674
639442;13773
639452;13762
639460;13631
639468;14218
639476;13684
639485;10552
639493;6328
639501;5092
639509;10857
639517;16057
639526;16075
639534;15318
639542;14794
639551;14429
639559;14114
639568;13902
639576;13788
639584;13602
639592;13657
639600;13481
639609;13469
639617;13257
639625;13267
639633;13051
639641;13106
639650;12807
639658;12746
639666;12390
639674;12326
639682;11903
639690;11828
639699;11417
639707;11536
639715;11376
639723;11668
639731;11611
639740;12069
639748;12289
639758;13099
639766;13468
639774;13841
639783;13960
639791;14218
639799;14195
639807;14390
639815;14227
639824;14371
639832;14209
639840;14271
639848;14077
639856;14199
639865;13959
639873;14146
639881;13907
639889;14108
639897;13863
639906;14000
639914;13774
639922;14078
639930;13899
639938;14088
639946;13949
639955;14195
639963;13987
639971;14204
639979;14012
639987;14257
639996;14075
640004;14235
640012;13949
640020;14004
640028;13698
640037;14016
640045;13991
640053;14246
640064;14216
640072;14509
640081;14376
640089;14704
640097;14479
640105;14620
640113;14356
640122;14573
640130;14309
640138;14480
640146;14119
640154;14247
640163;14253
640171;12845
640179;8972
640187;6357
640195;8089
640204;15619
640212;16580
640220;15937
640228;14902
640236;14766
640244;14307
640253;14279
640261;13957
640269;13972
640277;13697
640285;13770
640294;13606
640302;13600
640310;13381
640318;13464
640326;13373
640335;13327
640343;13160
640351;13032
640362;12726
640370;12732
640379;12258
640387;12249
640395;11892
640403;12082
640411;12006
640420;12336
640428;12387
640436;12857
640444;13190
640452;13783
640461;14006
640469;14375
640477;14462
640485;14649
640493;14595
640502;14688
640510;14660
640518;14696
640526;14598
640534;14573
640542;14530
640551;14415
640559;14243
640567;14062
640575;13951
640583;13818
640592;13845
640600;13856
640608;13935
640616;13828
640624;13988
640633;13897
640641;14007
640649;13937
640657;14070
640668;14107
640677;14104
640685;14148
640693;13973
640701;13932
640709;13720
640718;13736
640726;13708
640734;13732
640742;13764
640750;13799
640759;13886
640767;13925
640775;14024
640783;14020
640791;14126
640799;14044
640808;14114
640816;13979
640824;13944
640832;13714
640840;13842
640849;13757
640857;12153
640865;8384
640873;6407
640881;9423
640890;15958
640898;15993
640906;15313
640914;14408
640922;14389
640931;14066
640939;14103
640947;13697
640955;13664
640963;13374
640975;13533
640983;13508
640991;13558
640999;13362
641007;13364
641016;13120
641024;13085
641032;12773
641040;12740
641048;12357
641057;12158
641065;11697
641073;11663
641081;11458
641089;11667
641097;11610
641106;11917
641114;11962
641122;12484
641130;12630
641138;13182
641147;13329
641155;13796
641163;13794
641171;14135
641179;13985
641188;14215
641196;14013
641204;14209
641212;14001
641220;14194
641229;13852
641237;13932
641245;13888
641253;14101
641261;13827
641273;13966
641281;13796
641289;13977
641297;13809
641305;14032
641314;13920
641322;14093
641330;13828
641338;13973
641346;13600
641354;13716
641363;13418
641371;13545
641379;13314
641387;13574
641395;13452
641404;13725
641412;13734
641420;14075
641428;14120
641436;14277
641445;14109
641453;14160
641461;14005
641469;14094
641477;14000
641486;14171
641494;14273
641502;12343
641510;8635
641518;6670
641527;9792
641535;16417
641543;16379
641551;15604
641559;14822
641567;14475
641578;14152
641586;14041
641594;13872
641602;13812
641610;13714
641620;13701
641628;13545
641636;13531
641644;13298
641652;13202
641661;13131
641669;13066
641677;12770
641685;12533
641693;12260
641702;12084
641710;11841
641718;11711
641726;11571
641734;11578
641743;11608
641751;11801
641759;12102
641767;12501
641775;12924
641784;13371
641792;13709
641800;13930
641808;14104
641816;14207
641825;14309
641833;14343
641841;14367
641849;14345
641857;14383
641865;14354
641874;14338
641884;14377
641892;14399
641900;14374
641908;14297
641917;14296
641925;14256
641933;14266
641941;14221
641949;14202
641958;14055
641966;13937
641974;13904
641982;13925
641990;13947
641999;13977
642007;14019
642015;14076
642023;14138
642031;14160
642040;14184
642048;14194
642056;14215
642064;14197
642072;14173
642081;14091
642089;14053
642097;14013
642105;14409
642113;12861
642121;9424
642130;7173
642138;8717
642146;15931
642154;16829
642162;16039
642171;15322
642182;14683
642190;14438
642198;14112
642206;13924
642215;13831
642223;13768
642231;13615
642239;13532
642247;13411
642256;13242
642264;13071
642272;12928
642280;12786
642288;12587
642297;12338
642305;12145
642313;11879
642321;11668
642329;11484
642338;11442
642346;11457
642354;11608
642362;11757
642370;12036
642378;12415
642387;12907
642395;13284
642403;13643
642411;13892
642419;14072
642428;14190
642436;14289
642444;14291
642452;14326
642460;14262
642469;14223
642477;14130
642488;14088
642496;14006
642504;13963
642513;13902
642521;13928
642529;13938
642537;14027
642545;14099
642554;14131
642562;14058
642570;14008
642578;13923
642586;13880
642595;13863
642603;13930
642611;13976
642619;14088
642627;14136
642636;14199
642644;14254
642652;14327
642660;14301
642668;14332
642676;14306
642685;14295
642693;14200
642701;14155
642709;14003
642717;14409
642726;14043
642734;11342
642742;7156
642750;5258
642758;10908
642767;15867
642775;15808
642783;15116
642794;14577
642802;14350
642811;14013
642819;13866
642827;13713
642835;13632
642843;13503
642852;13438
642860;13351
642868;13273
642876;13111
642884;12974
642893;12806
642901;12638
642909;12415
642917;12224
642925;11974
642934;11735
642942;11555
642950;11463
642958;11483
642966;11578
642974;11701
642983;11937
642991;12257
642999;12679
643007;13118
643015;13458
643024;13744
643032;13924
643040;14037
643048;14097
643056;14138
643065;14073
643073;14026
643081;13933
643092;13964
643100;14012
643109;13943
643117;13898
643125;13822
643133;13750
643141;13676
643150;13705
643158;13719
643166;13723
643174;13665
643182;13656
643191;13529
643199;13369
643207;13232
643215;13167
643223;13165
643231;13182
643240;13262
643248;13315
643256;13417
643264;13491
643272;13537
643281;13521
643289;13527
643297;13496
643305;13521
643313;13490
643322;13451
643330;13371
643338;13631
643346;13849
643354;11769
643363;7521
643371;4522
643379;8121
643387;15131
643398;15538
643407;14946
643415;14628
643423;14382
643431;14098
643439;13948
643448;13817
643456;13745
643464;13682
643472;13625
643480;13534
643489;13472
643497;13362
643505;13319
643513;13189
643521;13081
643529;12886
643538;12738
643546;12525
643554;12340
643562;12137
643570;12112
643579;12068
643587;12163
643595;12261
643603;12459
643611;12678
643620;13063
643628;13419
643636;13790
643644;14065
643652;14312
643661;14395
643669;14467
643677;14441
643685;14527
643693;14531
643704;14551
643712;14572
643720;14608
643728;14518
643736;14506
643745;14418
643753;14429
643761;14345
643769;14368
643777;14342
643785;14366
643794;14332
643802;14329
643810;14241
643818;14199
643826;14040
643835;13931
643843;13848
643851;13850
643860;13781
643868;13821
643877;13856
643885;13909
643893;13951
643901;13988
643909;13965
643918;13968
643926;13962
643934;13979
643942;13906
643950;13827
643959;13689
643967;13793
643975;14128
643983;12384
643991;8393
644002;5154
644010;10977
644018;15930
644026;15679
644034;14987
644042;14668
644051;14504
644059;14187
644067;14064
644075;13940
644083;13866
644092;13808
644100;13771
644108;13700
644116;13659
644124;13505
644133;13393
644141;13227
644149;13071
644157;12877
644165;12692
644174;12460
644182;12238
644190;12013
644198;11918
644206;11906
644215;11997
644223;12083
644231;12271
644239;12519
644247;12819
644255;13188
644264;13563
644272;13849
644280;14075
644288;14230
644296;14341
644308;14448
644316;14491
644324;14415
644332;14332
644340;14288
644349;14280
644357;14187
644365;14180
644373;14170
644381;14163
644390;14119
644398;14153
644406;14136
644414;14149
644422;14144
644431;14122
644439;14110
644447;14009
644455;13877
644463;13804
644472;13781
644480;13818
644488;13844
644496;13875
644504;13986
644513;14082
644521;14136
644529;14137
644537;14129
644545;14063
644553;14043
644562;14025
644570;14027
644578;13936
644586;13869
644594;13932
644603;14027
644614;10928
644622;7512
644630;6450
644638;13003
644647;16699
644655;15977
644663;15091
644671;14463
644679;14238
644688;13962
644696;13735
644704;13583
644712;13451
644720;13473
644729;13423
644737;13390
644745;13308
644753;13247
644761;13174
644770;13115
644778;12946
644786;12814
644794;12586
644802;12407
644810;12157
644819;11925
644827;11742
644835;11750
644843;11808
644851;11966
644860;12061
644868;12342
644876;12727
644884;13172
644892;13556
644901;13948
644912;14333
644920;14542
644928;14575
644936;14668
644945;14590
644953;14508
644961;14441
644969;14401
644977;14294
644986;14224
644994;14145
645002;14145
645010;14064
645018;14084
645027;14028
645035;13983
645043;13931
645051;13802
645059;13623
645068;13622
645076;13619
645084;13626
645092;13682
645100;13812
645108;13928
645117;14061
645125;14089
645133;14181
645141;14219
645149;14198
645158;14161
645166;14192
645174;14184
645182;14154
645190;14038
645199;14109
645207;14248
645218;11150
645226;7844
645234;6835
645243;12928
645251;17119
645259;16518
645267;15708
645275;14994
645284;14636
645292;14313
645300;14100
645308;13983
645316;13930
645325;13859
645333;13837
645341;13781
645349;13719
645357;13618
645366;13517
645374;13352
645382;13192
645390;12925
645398;12717
645406;12480
645415;12268
645423;12063
645431;11965
645439;11935
645447;12013
645456;12172
645464;12376
645472;12623
645480;12951
645488;13325
645497;13670
645505;13962
645513;14170
645524;14398
645532;14529
645541;14512
645549;14531
645557;14501
645565;14456
645573;14384
645582;14319
645590;14220
645598;14162
645606;14125
645614;14081
645623;14022
645631;13956
645639;13974
645647;13870
645655;13742
645663;13699
645672;13679
645680;13650
645688;13657
645696;13736
645704;13753
645713;13817
645721;13934
645729;13965
645737;13982
645745;13947
645754;13911
645762;13893
645770;13881
645778;13845
645786;13768
645795;13850
645803;13808
645811;11710
645821;7093
645829;6267
645838;12743
645846;16338
645854;15889
645862;15178
645870;14589
645879;14304
645887;13965
645895;13736
645903;13644
645911;13516
645919;13394
645928;13321
645936;13255
645944;13147
645952;13060
645960;12939
645969;12891
645977;12779
645985;12635
645993;12411
646001;12240
646010;11983
646018;11771
646026;11635
646034;11658
646042;11726
646051;11835
646059;12003
646067;12369
646075;12743
646083;13155
646092;13479
646100;13745
646108;13926
646116;14068
646127;14203
646136;14238
646144;14177
646152;14127
646160;14067
646168;14002
646177;13917
646185;13871
646193;13839
646201;13807
646209;13741
646217;13774
646226;13751
646234;13728
646242;13639
646250;13515
646258;13399
646267;13353
646275;13345
646283;13376
646291;13419
646299;13496
646308;13536
646316;13645
646324;13737
646332;13777
646340;13756
646349;13774
646357;13738
646365;13686
646373;13595
646381;13560
646390;13431
646398;13936
646406;13235
646414;10185
646425;5362
646434;6784
646442;14373
646450;15806
646458;15224
646466;14598
646474;14324
646483;14072
646491;13784
646499;13684
646507;13573
646515;13536
646524;13441
646532;13408
646540;13298
646548;13215
646556;13096
646565;12999
646573;12850
646581;12738
646589;12558
646597;12375
646606;12152
646614;11951
646622;11769
646630;11758
646638;11809
646647;11938
646655;12085
646663;12324
646671;12655
646679;13104
646687;13478
646696;13859
646704;14092
646712;14300
646720;14439
646732;14579
646740;14575
646748;14593
646756;14530
646764;14494
646772;14417
646781;14406
646789;14344
646797;14279
646805;14218
646813;14177
646822;14095
646830;14061
646838;14054
646846;14075
646854;14035
646863;14042
646871;13894
646879;13762
646887;13692
646895;13718
646904;13705
646912;13713
646920;13770
646928;13841
646936;13914
646945;13978
646953;13950
646961;13926
646969;13891
646977;13853
646985;13833
646994;13746
647002;13655
647010;13512
647018;13756
647026;13768
647038;10219
647046;5899
647054;4926
647062;11560
647070;15556
647079;15386
647087;14746
647095;14491
647103;14232
647111;13980
647120;13858
647128;13798
647136;13760
647144;13720
647152;13704
647161;13693
647169;13632
647177;13521
647185;13454
647193;13361
647202;13260
647210;13051
647218;12840
647226;12599
647234;12364
647242;12100
647251;11952
647259;11884
647267;11928
647275;11980
647283;12135
647292;12398
647300;12800
647308;13181
647316;13589
647324;13868
647336;14189
647344;14297
647352;14326
647360;14314
647368;14322
647377;14250
647385;14186
647393;14104
647401;14060
647409;13999
647418;13924
647426;13838
647434;13844
647442;13787
647450;13779
647459;13738
647467;13751
647475;13734
647483;13761
647491;13747
647500;13763
647508;13754
647516;13772
647524;13761
647532;13753
647540;13640
647549;13481
647557;13375
647565;13411
647573;13423
647581;13487
647590;13491
647598;13569
647606;13690
647614;13831
647622;13827
647631;13835
647642;13935
647650;13995
647658;13941
647666;13931
647675;13822
647683;13731
647691;14131
647699;13705
647707;11048
647716;7016
647724;5513
647732;11123
647740;15816
647748;15715
647757;14921
647765;14613
647773;14353
647781;14124
647789;13950
647798;13889
647806;13814
647814;13816
647822;13772
647830;13733
647838;13645
647847;13601
647855;13529
647863;13484
647871;13341
647879;13176
647888;12966
647896;12741
647904;12522
647912;12315
647920;12132
647929;12084
647937;12128
647947;12340
647955;12557
647963;12859
647972;13207
647980;13647
647988;13989
647996;14319
648004;14509
648013;14693
648021;14771
648029;14814
648037;14809
648045;14806
648054;14742
648062;14716
648070;14640
648078;14604
648086;14559
648094;14550
648103;14483
648111;14497
648119;14438
648127;14403
648136;14307
648145;14294
648153;14251
648161;14180
648169;14106
648177;14106
648186;14059
648194;14050
648202;13985
648210;13932
648218;13821
648227;13606
648235;13518
648245;13622
648253;13663
648261;13634
648270;13639
648278;13720
648286;13778
648294;13838
648302;13828
648311;13844
648319;13789
648327;13756
648335;13745
648343;13768
648351;13717
648360;13630
648368;14179
648376;12993
648384;9596
648392;6996
648401;7781
648409;15158
648417;16792
648425;15995
648433;15168
648442;14620
648450;14416
648458;14127
648466;13952
648474;13805
648483;13705
648491;13613
648499;13546
648507;13447
648515;13401
648524;13313
648532;13204
648540;13057
648551;12955
648559;12836
648568;12637
648576;12363
648584;12142
648592;11926
648600;11862
648609;11902
648617;11976
648625;12031
648633;12241
648641;12544
648649;12947
648658;13310
648666;13696
648674;13954
648682;14170
648690;14247
648699;14346
648707;14383
648715;14418
648723;14348
648731;14359
648740;14278
648748;14210
648756;14097
648764;14098
648772;14029
648781;14013
648789;13966
648797;13957
648805;13885
648813;13846
648822;13761
648830;13824
648838;13812
648846;13839
648857;13902
648866;13950
648874;13910
648882;13906
648890;13816
648898;13717
648906;13491
648915;13428
648923;13433
648931;13501
648939;13515
648947;13497
648956;13517
648964;13625
648972;13682
648980;13653
648988;13614
648997;13610
649005;13573
649013;13572
649021;13565
649029;13530
649038;13401
649046;13967
649054;13335
649062;10346
649070;6621
649079;5761
649087;12180
649095;15893
649103;15507
649111;14773
649119;14304
649128;14113
649136;13799
649144;13635
649155;13576
649164;13558
649172;13469
649180;13418
649188;13332
649196;13298
649204;13209
649213;13134
649221;12969
649229;12849
649237;12697
649245;12524
649254;12287
649262;12046
649270;11893
649278;11827
649286;11838
649295;11915
649303;12011
649311;12258
649319;12582
649327;12996
649336;13422
649344;13804
649352;14100
649360;14280
649368;14368
649377;14427
649385;14454
649393;14489
649401;14486
649409;14426
649417;14375
649426;14291
649434;14235
649442;14220
649450;14202
649462;14203
649470;14229
649478;14238
649486;14178
649494;14171
649502;14113
649511;14078
649519;14040
649527;14016
649535;14014
649543;14006
649552;13928
649560;13899
649568;13898
649576;13918
649584;13878
649593;13747
649601;13548
649609;13370
649617;13309
649625;13310
649634;13365
649642;13371
649650;13445
649658;13545
649666;13659
649674;13721
649683;13738
649691;13721
649699;13731
649707;13732
649715;13780
649724;13768
649732;13740
649740;13666
649748;14122
649759;11684
649768;7750
649776;5478
649784;9393
649792;15498
649800;15786
649809;15022
649817;14498
649825;14243
649833;13914
649841;13728
649850;13644
649858;13561
649866;13524
649874;13428
649882;13395
649891;13315
649899;13240
649907;13098
649915;13028
649923;12883
649932;12735
649940;12540
649948;12365
649956;12085
649964;11872
649972;11665
649981;11584
649989;11545
649997;11640
650005;11798
650013;12082
650022;12438
650030;12899
650038;13323
650046;13689
650054;13903
650065;14166
650073;14274
650081;14285
650089;14240
650097;14210
650106;14130
650114;14128
650122;14069
650130;14040
650138;13985
650147;13994
650155;13950
650163;13932
650171;13846
650179;13799
650188;13737
650196;13740
650204;13692
650212;13701
650220;13656
650228;13672
650238;13647
650246;13656
650254;13614
650262;13654
650270;13658
650279;13692
650287;13675
650295;13718
650303;13655
650311;13558
650320;13348
650328;13282
650336;13246
650344;13303
650352;13273
650361;13313
650371;13433
650379;13572
650387;13574
650395;13588
650404;13546
650412;13547
650420;13489
650428;13499
650436;13449
650445;13430
650453;13489
650461;13728
650469;11952
650477;8144
650486;5398
650494;8072
650502;14936
650510;15647
650518;14914
650526;14345
650535;14121
650543;13863
650551;13662
650559;13601
650567;13518
650576;13488
650584;13396
650592;13388
650600;13329
650608;13295
650617;13234
650625;13149
650633;13056
650641;12906
650649;12711
650658;12501
650666;12273
650677;12037
650685;11881
650693;11814
650702;11800
650710;11877
650718;11991
650726;12241
650734;12607
650743;13032
650751;13458
650759;13820
650767;14079
650775;14298
650783;14430
650792;14487
650800;14508
650808;14509
650816;14445
650824;14411
650833;14340
650841;14286
650849;14235
650857;14158
650865;14127
650874;14070
650882;14027
650890;14000
650898;13970
650906;13962
650915;13996
650923;13958
650931;13970
650939;13978
650947;13991
650956;13965
650964;14013
650975;14083
650983;14124
650991;14125
651000;14122
651008;14166
651016;14097
651024;13979
651032;13775
651041;13718
651049;13692
651057;13670
651065;13658
651073;13723
651081;13770
651090;13868
651098;13952
651106;13972
651114;13959
651122;13939
651131;13955
651139;13906
651147;13893
651155;13833
651163;13849
651172;14225
651180;12768
651188;9115
651196;5990
651204;7634
651213;14984
651221;16054
651229;15342
651237;14659
651245;14457
651254;14181
651262;14024
651270;13905
651281;13839
651289;13804
651298;13719
651306;13665
651314;13620
651322;13486
651330;13376
651338;13227
651347;13150
651355;12977
651363;12786
651371;12572
651379;12347
651388;12060
651396;11893
651404;11785
651412;11807
651420;11876
651429;12021
651437;12212
651445;12537
651453;12928
651461;13344
651470;13690
651478;13980
651486;14148
651494;14275
651502;14318
651511;14416
651519;14395
651527;14399
651535;14361
651543;14345
651551;14313
651560;14298
651568;14252
651576;14236
651587;14235
651596;14288
651604;14244
651612;14240
651620;14226
651628;14239
651636;14170
651645;14177
651653;14158
651661;14174
651669;14179
651677;14180
651686;14140
651694;14152
651702;14114
651710;14133
651718;14075
651727;13966
651735;13754
651743;13606
651751;13532
651759;13582
651768;13581
651776;13585
651784;13569
651792;13653
651800;13725
651809;13774
651817;13769
651825;13765
651833;13729
651841;13723
651849;13661
651858;13608
651866;13506
651874;13935
651885;12940
651894;9637
651902;6394
651910;7196
651918;14584
651926;16149
651934;15364
651943;14578
651951;14256
651959;14052
651967;13793
651975;13700
651984;13647
651992;13604
652000;13524
652008;13444
652016;13356
652025;13295
652033;13227
652041;13160
652049;13044
652057;12928
652066;12775
652074;12623
652082;12407
652090;12203
652098;11997
652106;11889
652115;11868
652123;11947
652131;12089
652139;12268
652147;12573
652156;12899
652164;13291
652172;13694
652180;14020
652191;14395
652200;14601
652208;14650
652216;14643
652224;14673
652232;14633
652241;14607
652249;14518
652257;14468
652265;14397
652273;14371
652282;14316
652290;14287
652298;14268
652306;14218
652314;14165
652323;14115
652331;14064
652339;14035
652347;14062
652355;14009
652364;13967
652372;13976
652380;13989
652388;13960
652396;13935
652404;13800
652413;13669
652421;13600
652429;13585
652437;13583
652445;13681
652454;13741
652462;13845
652470;13907
652478;13954
652567;11895
652575;9100
652584;10016
652592;17040
652600;17642
652608;16539
652616;15448
652625;14737
652633;14263
652641;13859
652649;13531
652657;13334
652666;13116
652674;12971
652682;12866
652690;12785
652698;12710
652707;12633
652715;12538
652723;12436
652731;12283
652739;12111
652748;11924
652756;11681
652764;11443
652772;11203
652780;11107
652788;11091
652797;11200
652805;11312
652813;11498
652821;11768
652829;12191
652838;12626
652846;12995
652854;13306
652862;13530
652873;13705
652882;13820
652890;13847
652898;13827
652906;13778
652914;13719
652923;13649
652931;13567
652939;13454
652947;13375
652955;13334
652964;13274
652972;13243
652980;13233
652988;13239
652996;13246
653005;13201
653013;13205
653021;13204
653029;13206
653037;13256
653046;13335
653054;13330
653062;13353
653070;13246
653078;13141
653086;13039
653095;13070
653103;13042
653111;13107
653119;13144
653127;13204
653136;13300
653144;13379
653152;13340
653160;13330
653168;13312
653179;13346
653187;13348
653195;13296
653203;13233
653211;13373
653220;13605
653228;11690
653236;7783
653244;5160
653252;8334
653261;15241
653269;15672
653277;14928
653285;14288
653293;14074
653302;13834
653310;13653
653318;13587
653327;13557
653335;13460
653343;13419
653352;13329
653360;13245
653368;13164
653376;13139
653384;13083
653393;12989
653401;12849
653409;12720
653417;12527
653425;12325
653434;12100
653442;11963
653450;11892
653458;11952
653466;12066
653477;12378
653485;12681
653493;13054
653501;13430
653509;13857
653518;14176
653526;14420
653534;14569
653542;14697
653550;14751
653559;14779
653567;14718
653575;14680
653583;14597
653591;14566
653599;14500
653608;14501
653616;14472
653624;14448
653632;14408
653640;14440
653649;14377
653657;14359
653665;14332
653673;14348
653681;14325
653690;14323
653698;14306
653706;14351
653714;14364
653722;14407
653731;14358
653739;14327
653747;14224
653755;14051
653763;13894
653772;13886
653783;13867
653791;13936
653799;13934
653807;13991
653816;14019
653824;14024
653832;13929
653840;13910
653848;13837
653857;13782
653865;13691
653873;13649
653881;13568
653889;13551
653897;14058
653906;12697
653914;8989
653922;5494
653930;6655
653938;14197
653947;15717
653955;15101
653963;14398
653971;14141
653979;13865
653988;13671
653996;13556
654004;13455
654012;13373
654020;13301
654029;13266
654037;13212
654045;13139
654053;13041
654061;12957
654070;12817
654078;12688
654089;12514
654097;12371
654105;12126
654114;11853
654122;11699
654130;11607
654138;11666
654146;11789
654154;11951
654163;12130
654171;12435
654179;12884
654187;13278
654195;13613
654204;13867
654212;14067
654220;14194
654228;14258
654236;14278
654245;14253
654253;14195
654261;14161
654269;14119
654277;14110
654286;14084
654294;14043
654302;13968
654310;13951
654318;13940
654327;13906
654335;13826
654343;13792
654351;13759
654359;13774
654367;13740
654376;13767
654387;13827
654395;13878
654403;13894
654412;13867
654420;13874
654428;13842
654436;13738
654444;13548
654452;13407
654461;13383
654469;13378
654477;13422
654485;13455
654493;13547
654502;13623
654510;13720
654518;13712
654526;13703
654534;13681
654543;13707
654551;13682
654559;13641
654567;13582
654575;13501
654584;13966
654592;13372
654600;10490
654608;6652
654616;5689
654625;12299
654633;15996
654641;15560
654649;14765
654657;14468
654665;14270
654674;14014
654682;13886
654693;13849
654701;13798
654710;13699
654718;13616
654726;13539
654734;13420
654742;13344
654750;13217
654759;13122
654767;12964
654775;12816
654783;12608
654791;12404
654800;12185
654808;12044
654816;11918
654824;11937
654832;11993
654841;12130
654849;12298
654857;12581
654865;12933
654873;13361
654882;13788
654890;14118
654898;14340
654906;14507
654914;14537
654922;14588
654931;14577
654939;14572
654947;14519
654955;14502
654963;14417
654972;14349
654980;14318
654988;14309
654999;14336
655007;14365
655016;14338
655024;14325
655032;14270
655040;14249
655048;14221
655057;14183
655065;14127
655073;14139
655081;14096
655089;14067
655098;14023
655106;14015
655114;13963
655122;13986
655130;13961
655139;13868
655147;13736
655155;13542
655163;13474
655171;13504
655180;13534
655188;13560
655196;13566
655204;13614
655212;13698
655220;13731
655229;13704
655237;13700
655245;13684
655253;13658
655261;13657
655270;13656
655278;13609
655286;13789
655297;13571
655305;10769
655314;6974
655322;5985
655330;12402
655338;16130
655346;15587
655355;14775
655363;14415
655371;14219
655379;13926
655387;13795
655396;13708
655404;13658
655412;13615
655420;13588
655428;13498
655437;13424
655445;13401
655453;13296
655461;13170
655469;13005
655478;12880
655486;12714
655494;12514
655502;12253
655510;12029
655518;11880
655527;11842
655535;11879
655543;11983
655551;12137
655559;12376
655568;12661
655576;13097
655584;13497
655592;13848
655603;14217
655612;14396
655620;14445
655628;14460
655636;14432
655644;14385
655653;14321
655661;14257
655669;14192
655677;14142
655685;14102
655694;14069
655702;14029
655710;14037
655718;14000
655726;14001
655735;13975
655743;13972
655751;13937
655759;13946
655767;13958
655775;14019
655784;14034
655792;14050
655800;14047
655808;14088
655816;14062
655825;14116
655833;14043
655841;13886
655849;13666
655857;13621
655866;13613
655874;13589
655882;13553
655890;13601
655898;13629
655910;13816
655918;13851
655926;13801
655934;13726
655942;13700
655951;13623
655959;13587
655967;13505
655975;13407
655983;13877
655992;13227
656000;10250
656008;6561
656016;5762
656024;12554
656033;15989
656041;15427
656049;14594
656057;14212
656065;13995
656073;13752
656082;13589
656090;13532
656098;13441
656106;13410
656114;13356
656123;13337
656131;13278
656139;13224
656147;13131
656155;13067
656164;12933
656172;12795
656180;12590
656188;12415
656196;12185
656207;11988
656215;11921
656223;11928
656231;12015
656239;12140
656248;12332
656256;12638
656264;12975
656272;13418
656280;13807
656289;14140
656297;14329
656305;14484
656313;14592
656321;14641
656329;14644
656338;14666
656346;14653
656354;14647
656362;14584
656370;14550
656379;14451
656387;14427
656395;14379
656403;14337
656411;14294
656420;14272
656428;14209
656436;14204
656444;14214
656452;14256
656461;14278
656469;14297
656477;14241
656485;14233
656493;14094
656502;13945
656513;13906
656521;13980
656529;13926
656537;14006
656546;14056
656554;14150
656562;14174
656570;14231
656578;14178
656586;14131
656595;14089
656603;14065
656611;14012
656619;13960
656627;13888
656636;13807
656644;14239
656652;12966
656660;9462
656668;6859
656677;7758
656685;15265
656693;16841
656701;15921
656709;15041
656718;14449
656726;14231
656734;13955
656742;13760
656750;13648
656759;13626
656767;13509
656775;13414
656783;13288
656791;13201
656799;13112
656808;13016
656819;12942
656827;12849
656835;12667
656844;12418
656852;12180
656860;11951
656868;11782
656876;11689
656884;11716
656893;11826
656901;11970
656909;12194
656917;12534
656925;12963
656934;13322
656942;13635
656950;13855
656958;14060
656966;14154
656975;14188
656983;14193
656991;14227
656999;14185
657007;14096
657016;14025
657024;14001
657032;13929
657040;13898
657048;13872
657057;13824
657065;13789
657073;13778
657081;13743
657089;13746
657097;13732
657106;13739
657117;13840
657125;13918
657133;13917
657142;13854
657150;13753
657158;13548
657166;13398
657174;13319
657182;13250
657191;13253
657199;13296
657207;13383
657215;13434
657223;13547
657232;13553
657240;13581
657248;13603
657256;13609
657264;13601
657273;13567
657281;13499
657289;13423
657297;13510
657305;13764
657314;11850
657322;7936
657330;5144
657338;8195
657346;15168
657354;15661
657363;14944
657371;14349
657379;14083
657387;13808
657395;13591
657404;13514
657412;13402
657423;13437
657431;13426
657439;13358
657448;13261
657456;13211
657464;13053
657472;12926
657480;12778
657489;12643
657497;12453
657505;12316
657513;12128
657521;11991
657530;11852
657538;11870
657546;11938
657554;12072
657562;12226
657571;12533
657579;12911
657587;13384
657595;13743
657603;14099
657612;14310
657620;14505
657628;14562
657636;14619
657644;14632
657652;14696
657661;14630
657669;14559
657677;14456
657685;14414
657693;14349
657702;14327
657710;14267
657718;14282
657729;14284
657737;14314
657746;14231
657754;14218
657762;14144
657770;14139
657778;14062
657787;14065
657795;14050
657803;14058
657811;14023
657819;14003
657828;13972
657836;13911
657844;13803
657852;13559
657860;13408
657869;13448
657877;13466
657885;13479
657893;13487
657901;13601
657910;13718
657918;13787
657926;13801
657934;13771
657942;13797
657950;13770
657959;13758
657967;13755
657975;13708
657983;13589
657991;14109
658000;13172
658008;9946
658016;6232
658027;8013
658035;15293
658044;16002
658052;15225
658060;14543
658068;14322
658076;14018
658085;13792
658093;13665
658101;13613
658109;13597
658117;13558
658126;13526
658134;13466
658142;13417
658150;13336
658158;13242
658167;13142
658175;12995
658183;12764
658191;12545
658199;12345
658207;12117
658216;11917
658224;11803
658232;11793
658240;11882
658248;12017
658257;12210
658265;12489
658273;12875
658281;13275
658289;13646
658298;13942
658306;14118
658314;14203
658322;14272
658333;14373
658342;14335
658350;14335
658358;14296
658366;14203
658374;14129
658383;14021
658391;13979
658399;13970
658407;13902
658415;13874
658424;13846
658432;13820
658440;13803
658448;13792
658456;13815
658465;13789
658473;13821
658481;13818
658489;13862
658497;13889
658505;13948
658514;13972
658522;13958
658530;13822
658538;13626
658546;13453
658555;13454
658563;13453
658571;13451
658579;13446
658587;13496
658596;13573
658604;13662
658612;13625
658620;13633
658640;13981
658648;13975
658656;13847
658664;13678
658672;13609
658681;14112
658689;12831
658697;9178
658705;5664
658713;6647
658722;14234
658730;15819
658738;15155
658746;14464
658754;14320
658762;14029
658771;13795
658779;13653
658787;13581
658795;13490
658803;13464
658812;13379
658820;13345
658828;13242
658836;13153
658844;13022
658853;12948
658861;12812
658869;12736
658877;12545
658885;12313
658894;12112
658902;11938
658910;11812
658918;11814
658926;11874
658935;11983
658945;12297
658953;12694
658961;13028
658969;13391
658978;13723
658986;14011
658994;14203
659003;14303
659011;14347
659020;14412
659028;14430
659036;14417
659044;14351
659052;14309
659060;14254
659069;14247
659077;14228
659085;14208
659093;14150
659101;14136
659110;14108
659118;14124
659126;14151
659134;14211
659142;14220
659151;14257
659159;14292
659167;14345
659175;14341
659183;14337
659192;14232
659200;14088
659208;13979
659216;13948
659224;13905
659233;13926
659241;14023
659251;14217
659259;14357
659267;14384
659276;14352
659284;14289
659292;14284
659300;14290
659308;14233
659316;14182
659325;14088
659333;13995
659341;14526
659349;13431
659357;10081
659366;7024
659374;7707
659382;15323
659390;16866
659398;16031
659407;15224
659415;14756
659423;14581
659431;14299
659439;14178
659448;14048
659456;13943
659464;13865
659472;13825
659480;13743
659489;13653
659497;13555
659505;13449
659513;13312
659521;13197
659529;12996
659538;12784
659546;12508
659557;12271
659565;12110
659574;12005
659582;11965
659590;12053
659598;12194
659606;12412
659614;12688
659623;13044
659631;13382
659639;13700
659647;13968
659655;14207
659664;14320
659672;14396
659680;14416
659688;14451
659696;14428
659705;14418
659713;14381
659721;14388
659729;14354
659737;14338
659746;14314
659754;14299
659762;14219
659770;14230
659778;14205
659786;14258
659795;14224
659803;14265
659811;14199
659819;14168
659827;13997
659836;13882
659844;13783
659855;13833
659863;13893
659871;13945
659880;14014
659888;14129
659896;14151
659904;14119
659912;14102
659921;14118
659929;14077
659937;14064
659945;13995
659953;13946
659962;13847
659970;13862
659978;14149
659986;12488
659994;8839
660003;6732
660011;9044
660019;16157
660027;16594
660035;15794
660044;15005
660052;14518
660060;14271
660068;14001
660076;13797
660084;13677
660093;13574
660101;13522
660109;13451
660117;13329
660125;13224
660134;13151
660142;13034
660150;12944
660161;12814
660169;12734
660178;12512
660186;12290
660194;12056
660202;11917
660210;11845
660219;11938
660227;12034
660235;12214
660243;12403
660251;12752
660260;13121
660268;13486
660276;13793
660284;14051
660292;14162
660301;14230
660309;14279
660317;14277
660325;14247
