Tempo (ms);Valor
1020573;4707
1020582;7755
1020590;15104
1020598;15705
1020606;15073
1020614;14626
1020623;14398
1020631;14161
1020639;13903
1020647;13753
1020655;13668
1020664;13590
1020672;13434
1020680;13370
1020688;13224
1020696;13109
1020705;13102
1020713;12984
1020721;12977
1020730;12905
1020738;12684
1020746;12363
1020755;12156
1020763;11853
1020771;11756
1020779;11644
1020787;11748
1020796;11800
1020804;12015
1020812;12186
1020820;12621
1020828;13017
1020837;13466
1020845;13731
1020856;14175
1020864;14441
1020872;14498
1020881;14528
1020889;14411
1020897;14410
1020905;14344
1020913;14248
1020922;14201
1020930;14109
1020938;13956
1020946;13857
1020954;13789
1020963;13666
1020971;13671
1020979;13684
1020987;13743
1020995;13730
1021004;13734
1021012;13655
1021020;13665
1021028;13460
1021036;13448
1021046;13396
1021054;13494
1021062;13457
1021070;13587
1021078;13566
1021086;13771
1021095;13707
1021103;13785
1021111;13670
1021119;13751
1021127;13608
1021139;13707
1021147;13637
1021155;13565
1021163;14077
1021171;12201
1021180;7850
1021188;4239
1021196;6856
1021204;14581
1021212;15305
1021221;14821
1021229;14392
1021237;14394
1021245;14130
1021253;14057
1021262;13959
1021270;13947
1021278;13821
1021286;13899
1021294;13831
1021303;13861
1021311;13722
1021319;13735
1021327;13538
1021335;13535
1021343;13296
1021352;13216
1021360;12867
1021369;12736
1021377;12432
1021385;12402
1021394;12244
1021402;12410
1021410;12434
1021421;12813
1021430;13122
1021438;13493
1021446;13889
1021454;14302
1021462;14593
1021470;14869
1021479;14946
1021487;15115
1021495;14989
1021503;15012
1021511;14932
1021520;14975
1021528;14860
1021536;14888
1021544;14766
1021552;14810
1021561;14641
1021569;14646
1021577;14543
1021585;14630
1021593;14539
1021602;14641
1021610;14514
1021618;14510
1021626;14206
1021634;14150
1021642;14026
1021651;14139
1021659;14038
1021667;14255
1021676;14190
1021684;14361
1021693;14388
1021703;14684
1021711;14428
1021719;14427
1021729;14329
1021737;14357
1021745;14272
1021753;14238
1021761;14154
1021769;14765
1021778;12943
1021786;8919
1021794;5657
1021802;7853
1021810;15512
1021819;16283
1021827;15469
1021835;14980
1021843;14656
1021851;14574
1021860;14287
1021868;14262
1021876;14055
1021884;14073
1021892;13908
1021901;13953
1021909;13803
1021917;13846
1021925;13668
1021933;13688
1021942;13413
1021950;13354
1021958;13052
1021966;12925
1021974;12544
1021982;12411
1021994;12197
1022002;12274
1022010;12223
1022018;12364
1022026;12359
1022035;12699
1022044;12942
1022052;13428
1022060;13735
1022068;14135
1022077;14226
1022085;14416
1022093;14359
1022101;14488
1022109;14387
1022118;14497
1022126;14326
1022134;14406
1022142;14224
1022150;14269
1022159;14106
1022167;14132
1022175;13963
1022183;14070
1022191;13928
1022200;14056
1022208;13878
1022216;13938
1022224;13622
1022232;13615
1022241;13440
1022249;13575
1022257;13499
1022265;13636
1022276;13669
1022285;13906
1022293;13880
1022301;13969
1022309;13856
1022317;13952
1022326;13823
1022334;13848
1022342;13647
1022351;13664
1022359;13520
1022367;14275
1022376;12772
1022384;8916
1022392;5049
1022400;6219
1022408;14125
1022417;15562
1022425;14823
1022433;14418
1022441;14008
1022449;13906
1022458;13523
1022466;13497
1022474;13324
1022482;13406
1022490;13223
1022499;13287
1022507;13093
1022515;13095
1022523;12872
1022531;12894
1022540;12638
1022548;12592
1022559;12337
1022567;12337
1022575;12018
1022584;11940
1022592;11743
1022600;11833
1022608;11786
1022616;12018
1022625;12052
1022633;12491
1022641;12764
1022649;13345
1022657;13599
1022665;14001
1022675;14087
1022683;14349
1022691;14292
1022699;14433
1022707;14282
1022716;14374
1022724;14203
1022732;14267
1022740;14090
1022748;14144
1022757;14033
1022765;14105
1022773;13935
1022781;13986
1022789;13891
1022798;14031
1022806;13937
1022814;14009
1022822;13938
1022830;13894
1022842;13635
1022850;13840
1022858;13667
1022866;13805
1022874;13741
1022883;13904
1022891;13819
1022899;14030
1022907;13948
1022915;14019
1022924;13850
1022932;13980
1022940;13755
1022948;13809
1022956;13639
1022964;13620
1022973;14183
1022981;13432
1022989;9615
1022997;5284
1023006;4794
1023015;12740
1023023;15428
1023031;15127
1023039;14521
1023047;14488
1023056;14140
1023064;14006
1023072;13818
1023080;13794
1023088;13627
1023097;13633
1023105;13549
1023113;13564
1023124;13372
1023132;13433
1023141;13200
1023149;13207
1023157;12911
1023165;12844
1023173;12499
1023182;12380
1023190;12045
1023198;12078
1023206;11879
1023214;11952
1023223;12024
1023231;12356
1023239;12476
1023247;12925
1023255;13201
1023263;13654
1023272;13860
1023280;14158
1023288;14213
1023296;14344
1023304;14253
1023313;14314
1023321;14271
1023330;14320
1023338;14203
1023346;14279
1023355;14233
1023363;14281
1023371;14180
1023379;14178
1023387;14118
1023396;14125
1023404;14097
1023415;14269
1023423;14165
1023431;14177
1023440;13856
1023448;13788
1023456;13594
1023464;13691
1023472;13571
1023481;13711
1023489;13679
1023497;13860
1023505;13833
1023513;14028
1023522;13963
1023530;14019
1023538;13929
1023546;13976
1023554;13877
1023562;13860
1023571;13640
1023579;14157
1023587;13906
1023595;10924
1023603;6249
1023612;4162
1023620;10373
1023628;15363
1023636;15171
1023644;14637
1023654;14412
1023662;14197
1023670;13971
1023678;13788
1023686;13750
1023697;13700
1023706;13602
1023714;13653
1023722;13433
1023730;13348
1023739;13243
1023747;13179
1023755;12994
1023763;12901
1023771;12697
1023780;12540
1023788;12307
1023796;12118
1023804;11877
1023812;11813
1023821;11835
1023829;11954
1023837;12085
1023845;12246
1023853;12587
1023862;12979
1023870;13414
1023878;13725
1023886;14012
1023894;14140
1023902;14302
1023911;14311
1023919;14382
1023927;14269
1023935;14282
1023943;14157
1023952;14190
1023960;14148
1023969;14193
1023979;14168
1023987;14149
1023996;14126
1024004;14052
1024012;14043
1024021;14001
1024029;14061
1024038;14002
1024046;14022
1024054;13844
1024062;13661
1024070;13579
1024079;13538
1024087;13602
1024095;13670
1024103;13727
1024111;13782
1024120;13921
1024128;13938
1024136;14034
1024144;14025
1024152;13950
1024161;13724
1024169;13649
1024177;13511
1024185;13456
1024193;14026
1024201;13444
1024210;9771
1024218;5259
1024226;4172
1024234;11842
1024242;15172
1024251;14901
1024262;14373
1024270;14343
1024278;14092
1024286;13833
1024295;13748
1024303;13707
1024311;13585
1024319;13498
1024327;13535
1024337;13429
1024345;13380
1024353;13038
1024361;12601
1024369;12589
1024378;12491
1024386;12415
1024394;12199
1024402;12089
1024410;11848
1024419;11748
1024427;11634
1024435;11775
1024443;11806
1024451;12037
1024460;12303
1024468;12684
1024476;12811
1024484;13383
1024492;13635
1024500;14022
1024509;14088
1024517;14295
1024525;14209
1024533;14294
1024545;14288
1024553;14299
1024561;14173
1024569;14100
1024577;14021
1024585;13978
1024594;13936
1024602;13970
1024610;13982
1024618;14099
1024626;14118
1024635;14186
1024644;14045
1024652;14080
1024660;13870
1024668;13780
1024677;13606
1024685;13735
1024693;13640
1024701;13821
1024709;13795
1024718;13949
1024726;13924
1024734;14057
1024742;13888
1024750;13999
1024759;13862
1024767;13955
1024775;13772
1024783;13870
1024791;13648
1024799;14351
1024808;13813
1024816;10582
1024824;5914
1024835;6113
1024844;14209
1024852;15671
1024860;15115
1024868;14749
1024876;14593
1024884;14448
1024893;14180
1024901;14206
1024909;14082
1024917;14174
1024925;14049
1024934;14046
1024942;13944
1024950;14037
1024958;13823
1024967;13923
1024976;13695
1024984;13694
1024992;13340
1025000;13286
1025008;12886
1025017;12843
1025025;12552
1025033;12637
1025041;12556
1025049;12773
1025058;12761
1025066;13136
1025074;13252
1025082;13769
1025090;14028
1025098;14468
1025107;14599
1025118;15006
1025126;14990
1025134;15006
1025143;14865
1025151;14926
1025159;14801
1025167;14817
1025175;14707
1025183;14666
1025192;14498
1025200;14545
1025208;14428
1025216;14494
1025224;14397
1025233;14484
1025241;14391
1025249;14440
1025257;14292
1025265;14202
1025274;13925
1025282;13963
1025291;13860
1025299;13930
1025307;13881
1025316;14138
1025324;14034
1025332;14199
1025340;14103
1025348;14250
1025357;14091
1025365;14113
1025373;14015
1025381;14134
1025389;13994
1025401;14046
1025409;14741
1025417;13894
1025425;10193
1025433;6123
1025442;5943
1025450;13995
1025458;16126
1025466;15612
1025474;14931
1025482;14814
1025491;14517
1025499;14364
1025507;14140
1025515;14177
1025523;13969
1025532;14044
1025540;13896
1025548;13955
1025556;13738
1025564;13732
1025573;13480
1025581;13431
1025589;13169
1025597;13120
1025605;12754
1025614;12595
1025623;12271
1025631;12224
1025639;11952
1025647;12040
1025656;11969
1025664;12226
1025672;12297
1025683;12888
1025691;13273
1025700;13754
1025708;13947
1025716;14317
1025724;14422
1025732;14660
1025741;14619
1025749;14700
1025757;14555
1025765;14642
1025773;14546
1025782;14581
1025790;14415
1025798;14435
1025806;14220
1025814;14276
1025822;14173
1025831;14125
1025839;14004
1025847;14104
1025855;13984
1025863;14040
1025872;13796
1025880;13771
1025888;13606
1025896;13635
1025904;13575
1025913;13835
1025921;13790
1025929;13962
1025938;14019
1025946;14125
1025955;13993
1025965;14062
1025973;13965
1025981;14034
1025989;13867
1025999;13743
1026007;14090
1026015;13814
1026023;10805
1026031;7003
1026040;5591
1026048;12096
1026056;16101
1026064;15686
1026072;14884
1026081;14521
1026089;14157
1026097;13900
1026105;13703
1026113;13729
1026121;13472
1026130;13491
1026138;13284
1026146;13341
1026154;13201
1026162;13169
1026171;12946
1026179;12957
1026187;12676
1026195;12563
1026203;12216
1026212;12123
1026220;11825
1026228;11668
1026236;11572
1026244;11622
1026256;11641
1026264;11921
1026272;11922
1026280;12301
1026288;12487
1026297;13033
1026305;13311
1026313;13735
1026322;13778
1026330;13952
1026339;13862
1026347;13982
1026355;13912
1026363;13894
1026371;13805
1026380;13926
1026388;13767
1026396;13814
1026404;13643
1026412;13633
1026420;13555
1026429;13734
1026437;13634
1026445;13714
1026453;13539
1026461;13452
1026470;13270
1026478;13376
1026486;13370
1026494;13474
1026502;13517
1026511;13730
1026519;13846
1026527;13913
1026538;13895
1026546;14023
1026555;13870
1026563;13947
1026571;13872
1026579;13862
1026587;13641
1026596;14020
1026604;13803
1026612;11584
1026620;8158
1026629;6698
1026638;10988
1026646;16281
1026654;15869
1026662;15305
1026670;14620
1026679;14376
1026687;14150
1026695;13916
1026703;13765
1026711;13753
1026719;13650
1026728;13643
1026736;13547
1026744;13435
1026752;13402
1026760;13317
1026769;13134
1026777;12843
1026785;12698
1026793;12465
1026801;12165
1026810;11927
1026821;11560
1026829;11788
1026837;11808
1026845;11976
1026854;12066
1026862;12244
1026870;12489
1026878;12928
1026886;13266
1026895;13532
1026903;13831
1026911;14042
1026919;14124
1026927;14244
1026936;14275
1026945;14506
1026953;14420
1026961;14682
1026969;14528
1026978;14567
1026986;14569
1026994;14517
1027002;14422
1027010;14490
1027018;14343
1027027;14281
1027035;14202
1027043;13993
1027051;13965
1027059;14107
1027068;13914
1027076;13799
1027084;13996
1027092;14046
1027103;14211
1027112;14356
1027120;14284
1027128;14204
1027136;14303
1027144;14416
1027153;14228
1027161;14100
1027169;14087
1027177;14101
1027185;14124
1027194;12873
1027202;9741
1027210;7967
1027218;9028
1027226;15361
1027235;16089
1027243;15397
1027251;14611
1027260;14208
1027268;13989
1027277;13671
1027285;13479
1027293;13338
1027301;13293
1027309;13388
1027318;13277
1027326;13150
1027334;12988
1027342;12886
1027350;12757
1027358;12719
1027367;12643
1027375;12474
1027383;12280
1027394;12112
1027402;11869
1027411;11761
1027419;11656
1027427;11776
1027435;11720
1027443;12037
1027452;12236
1027460;12748
1027468;13126
1027476;13455
1027484;13677
1027493;13933
1027501;14004
1027509;14051
1027517;13941
1027525;14040
1027534;14034
1027542;14058
1027550;14030
1027558;14109
1027566;14104
1027575;14133
1027584;14106
1027592;14081
1027600;14052
1027608;13964
1027617;13953
1027625;13842
1027633;13759
1027641;13649
1027649;13635
1027657;13637
1027666;13657
1027677;13911
1027685;13753
1027693;13824
1027702;13940
1027710;13991
1027718;13992
1027726;13971
1027734;13989
1027742;13952
1027751;13879
1027759;13681
1027767;13957
1027775;13311
1027783;10860
1027792;7997
1027800;7557
1027808;13078
1027816;15744
1027824;15125
1027833;14436
1027841;14026
1027849;13896
1027857;13721
1027865;13526
1027874;13340
1027882;13352
1027890;13264
1027898;13134
1027907;13017
1027916;12973
1027924;12855
1027932;12774
1027940;12685
1027948;12603
1027960;12506
1027968;12342
1027976;12037
1027984;11723
1027992;11598
1028001;11494
1028009;11557
1028017;11536
1028025;11750
1028033;11993
1028041;12369
1028050;12762
1028058;13128
1028066;13488
1028074;13693
1028082;13934
1028091;13977
1028099;14043
1028107;14036
1028115;14108
1028123;14005
1028132;14002
1028140;14005
1028148;14047
1028156;13930
1028164;13986
1028173;13889
1028181;13915
1028189;13862
1028197;13921
1028205;13875
1028214;13936
1028223;13870
1028231;13752
1028241;13771
1028249;13879
1028258;13852
1028267;13942
1028275;13963
1028283;14063
1028291;14078
1028300;14130
1028308;14171
1028316;14037
1028324;14098
1028332;14170
1028340;14020
1028349;13995
1028357;13775
1028365;14194
1028373;13699
1028381;11588
1028390;8054
1028398;6848
1028406;11989
1028414;15782
1028422;15311
1028431;14657
1028439;14244
1028447;14092
1028455;13662
1028463;13527
1028472;13356
1028480;13345
1028488;13213
1028496;13262
1028504;13177
1028513;13202
1028524;13106
1028532;13097
1028540;12953
1028548;12735
1028557;12754
1028565;12664
1028573;12423
1028581;12261
1028590;12011
1028599;11871
1028607;11787
1028615;11756
1028623;11847
1028631;12146
1028639;12309
1028648;12880
1028656;13228
1028664;13678
1028672;13886
1028680;14066
1028689;14164
1028697;14551
1028705;14567
1028713;14583
1028721;14504
1028730;14631
1028738;14599
1028746;14610
1028754;14399
1028762;14340
1028771;14182
1028779;14314
1028787;14325
1028795;14382
1028806;14402
1028815;14419
1028823;14115
1028831;14026
1028839;13858
1028847;14005
1028856;13907
1028864;13982
1028872;13852
1028880;13803
1028888;13656
1028897;13687
1028906;13757
1028914;13531
1028922;13361
1028930;14290
1028938;13941
1028947;13572
1028955;14112
1028963;14132
1028971;14062
1028979;13656
1028988;10941
1028996;7554
1029004;6993
1029012;12257
1029020;15563
1029029;15632
1029037;14219
1029045;14475
1029053;14233
1029061;13317
1029070;13063
1029078;14201
1029086;13459
1029097;12758
1029105;13528
1029114;13506
1029122;13328
1029130;13378
1029138;12820
1029146;13270
1029155;13064
1029163;12611
1029171;12574
1029179;12507
1029187;12027
1029196;12302
1029204;11734
1029212;11794
1029220;11734
1029229;11870
1029238;11912
1029246;11898
1029254;12733
1029262;13643
1029270;13647
1029278;13724
1029287;13944
1029295;14005
1029303;14029
1029311;14307
1029319;14201
1029328;14193
1029336;14229
1029344;13984
1029352;14461
1029360;14104
1029369;13806
1029380;14134
1029388;14208
1029396;14039
1029404;13910
1029413;13914
1029421;13837
1029429;13961
1029437;13910
1029445;13939
1029454;14045
1029462;14182
1029470;13968
1029478;13982
1029486;13699
1029495;13695
1029503;13628
1029511;13670
1029519;13654
1029527;13766
1029535;13742
1029544;13878
1029553;13843
1029561;13974
1029569;13959
1029577;13967
1029586;13844
1029594;13846
1029602;13761
1029610;13820
1029618;14264
1029627;13057
1029635;9494
1029643;6360
1029651;7654
1029662;15701
1029671;15765
1029679;15082
1029687;14450
1029695;14366
1029703;14039
1029712;13857
1029720;13660
1029728;13583
1029736;13386
1029744;13348
1029753;13209
1029761;13133
1029769;12973
1029777;12970
1029785;12838
1029794;12735
1029802;12517
1029810;12415
1029818;12160
1029826;11949
1029834;11688
1029843;11678
1029851;11608
1029859;11630
1029867;11690
1029875;11850
1029885;12117
1029893;12599
1029901;13052
1029909;13529
1029917;13840
1029926;14132
1029934;14249
1029945;14410
1029953;14430
1029961;14451
1029970;14419
1029978;14398
1029986;14353
1029994;14297
1030002;14145
1030011;14054
1030019;13897
1030027;13859
1030035;13696
1030043;13634
1030052;13563
1030060;13610
1030068;13581
1030076;13622
1030084;13625
1030093;13630
1030101;13583
1030109;13622
1030117;13651
1030125;13650
1030134;13616
1030142;13528
1030150;13377
1030158;13298
1030166;13337
1030174;13394
1030183;13354
1030192;13360
1030200;13427
1030208;13511
1030216;13580
1030227;13637
1030236;13649
1030244;13685
1030252;13624
1030260;13598
1030269;13502
1030277;13539
1030285;14107
1030293;12735
1030301;8824
1030310;6045
1030318;7432
1030326;14721
1030334;15764
1030342;15259
1030351;14547
1030359;14237
1030367;13978
1030375;13696
1030383;13597
1030392;13546
1030400;13496
1030408;13435
1030416;13401
1030424;13356
1030433;13313
1030441;13290
1030449;13200
1030457;13047
1030465;12943
1030473;12805
1030482;12634
1030490;12362
1030498;12143
1030506;11865
1030518;11791
1030526;11893
1030534;11937
1030542;12005
1030550;12313
1030558;12784
1030568;13189
1030576;13637
1030584;13960
1030592;14164
1030600;14225
1030609;14378
1030617;14426
1030625;14398
1030633;14346
1030641;14365
1030650;14326
1030658;14257
1030666;14248
1030674;14133
1030682;14057
1030691;13986
1030699;14012
1030707;14137
1030715;14394
1030723;14410
1030732;14453
1030740;14492
1030748;14558
1030756;14561
1030764;14607
1030772;14621
1030781;14616
1030789;14629
1030800;14519
1030808;14457
1030817;14446
1030825;14382
1030833;14364
1030841;14356
1030849;14295
1030857;14377
1030867;14442
1030875;14428
1030883;14430
1030891;14410
1030899;14376
1030908;14357
1030916;14289
1030924;14277
1030932;14720
1030940;14631
1030949;12188
1030957;8828
1030965;8152
1030973;12484
1030981;17014
1030990;16584
1030998;16047
1031006;15411
1031014;15004
1031022;14681
1031031;14449
1031039;14219
1031047;14154
1031055;13888
1031063;13782
1031071;13639
1031083;13699
1031091;13664
1031099;13481
1031107;13353
1031116;13221
1031124;13051
1031132;12792
1031140;12547
1031148;12306
1031156;12049
1031165;11935
1031173;11911
1031182;11970
1031190;12147
1031198;12498
1031207;12701
1031215;13111
1031223;13556
1031231;13889
1031239;14211
1031248;14318
1031256;14336
1031264;14385
1031272;14497
1031280;14488
1031289;14371
1031297;14326
1031305;14340
1031313;14409
1031321;14294
1031330;14419
1031338;14235
1031346;14223
1031354;14033
1031365;14071
1031374;14187
1031382;14178
1031390;14096
1031398;14149
1031406;14124
1031415;14181
1031423;14181
1031431;14209
1031439;14129
1031447;14056
1031455;13998
1031464;13999
1031472;13858
1031480;13904
1031488;13990
1031496;13861
1031506;13737
1031514;13794
1031522;13929
1031530;13988
1031538;14041
1031547;14052
1031555;13879
1031563;13974
1031571;13936
1031579;13853
1031588;14207
1031596;13260
1031604;10642
1031612;9860
1031620;10312
1031629;15049
1031637;16108
1031645;15521
1031656;14719
1031664;14321
1031673;14235
1031681;14202
1031689;13623
1031697;13414
1031705;13324
1031714;13447
1031722;13413
1031730;13493
1031738;13349
1031746;13287
1031754;13242
1031763;13486
1031771;13389
1031779;13341
1031787;13323
1031795;13122
1031804;13159
1031812;12778
1031820;12757
1031828;13159
1031837;13011
1031846;12937
1031854;13400
1031862;13800
1031870;14187
1031878;14466
1031887;14750
1031895;15071
1031903;14854
1031911;14916
1031919;14891
1031928;14980
1031939;14821
1031947;14983
1031955;14801
1031963;14694
1031972;14818
1031980;15389
1031988;14721
1031996;14216
1032004;13964
1032013;13982
1032021;13974
1032029;13936
1032037;13785
1032045;13912
1032054;13822
1032062;13838
1032070;13722
1032078;13781
1032086;13710
1032094;13865
1032103;13833
1032111;13584
1032119;13392
1032127;13482
1032135;13535
1032144;13553
1032153;13546
1032161;13597
1032169;13512
1032177;13594
1032186;13294
1032194;13113
1032202;13093
1032210;13389
1032221;12948
1032230;12976
1032238;12974
1032246;13062
1032254;13077
1032262;13201
1032271;13240
1032279;13187
1032287;12966
1032295;12826
1032303;12875
1032312;13095
1032320;12558
1032328;10906
1032336;9607
1032344;10323
1032353;13540
1032361;15539
1032369;14807
1032377;14224
1032385;13552
1032393;13235
1032402;12974
1032410;12799
1032418;12796
1032426;12777
1032434;12620
1032443;12603
1032451;12789
1032460;12879
1032468;12457
1032476;12454
1032485;12333
1032493;12403
1032503;12435
1032512;12339
1032520;12154
1032529;11930
1032537;11793
1032545;11709
1032553;11704
1032561;11705
1032570;11850
1032578;12103
1032586;12244
1032594;12771
1032602;12994
1032611;13383
1032619;13726
1032627;14041
1032635;14195
1032643;14244
1032652;14142
1032660;14232
1032668;14169
1032676;14153
1032684;14091
1032692;14029
1032701;13969
1032709;13934
1032717;13822
1032725;13772
1032733;13674
1032742;13685
1032750;13556
1032758;13574
1032766;13481
1032775;13468
1032786;13534
1032794;13580
1032802;13620
1032810;13532
1032818;13343
1032828;13294
1032836;13219
1032844;13263
1032852;13240
1032860;13257
1032869;13185
1032877;13216
1032885;13112
1032893;13154
1032901;13133
1032910;13151
1032918;13113
1032926;13155
1032934;13037
1032942;13051
1032951;13073
1032959;12992
1032967;13025
1032975;13041
1032983;12979
1032991;12971
1033000;12926
1033008;13037
1033016;13055
1033024;13096
1033032;13014
1033041;13091
1033049;13063
1033057;13147
1033068;13133
1033076;13240
1033085;13135
1033093;13125
1033101;13107
1033109;13143
1033117;13035
1033126;13056
1033135;12983
1033143;13066
1033151;12995
1033159;13052
1033168;13034
1033176;13083
1033184;13000
1033192;13051
1033200;13035
1033209;13121
1033217;13146
1033225;13185
1033233;13169
1033241;13137
1033250;13106
1033258;13177
1033266;13119
1033274;13115
1033282;13023
1033290;12951
1033299;13012
1033307;13014
1033315;13014
1033323;13035
1033331;13059
1033340;13123
1033351;13329
1033359;13475
1033367;13354
1033375;13358
1033384;13300
1033392;13420
1033400;13445
1033408;12306
1033416;9655
1033425;8498
1033433;9777
1033442;14743
1033450;15254
1033458;14916
1033467;14374
1033475;14163
1033483;13920
1033491;13794
1033499;13622
1033508;13596
1033516;13524
1033524;13496
1033532;13455
1033540;13403
1033549;13360
1033557;13366
1033565;13292
1033573;13227
1033581;13105
1033590;12974
1033598;12789
1033606;12702
1033614;12424
1033622;12220
1033630;12079
1033642;12075
1033650;12127
1033658;12213
1033666;12263
1033674;12455
1033683;12742
1033691;13146
1033699;13424
1033707;13744
1033715;13950
1033724;14148
1033732;14229
1033740;14274
1033748;14311
1033757;14278
1033766;14188
1033774;14186
1033782;14090
1033790;14004
1033798;13925
1033807;13926
1033815;13840
1033823;13824
1033831;13768
1033839;13782
1033848;13680
1033856;13674
1033864;13699
1033872;13608
1033880;13562
1033889;13561
1033897;13639
1033905;13558
1033913;13551
1033924;13583
1033933;13599
1033941;13558
1033949;13452
1033957;13482
1033965;13440
1033974;13428
1033982;13359
1033990;13374
1033998;13347
1034006;13358
1034014;13325
1034023;13337
1034031;13409
1034039;13467
1034047;13414
1034055;13406
1034064;13260
1034073;13257
1034081;13212
1034089;13256
1034097;13290
1034106;13317
1034114;13382
1034122;13401
1034130;13450
1034138;13517
1034147;13625
1034155;13667
1034163;13587
1034171;13511
1034179;13487
1034188;13540
1034196;13511
1034207;11058
1034215;8671
1034223;8570
1034232;12997
1034240;15697
1034248;15396
1034256;14741
1034264;14275
1034273;14153
1034281;13955
1034289;13848
1034297;13737
1034305;13687
1034313;13625
1034322;13647
1034330;13568
1034338;13455
1034346;13443
1034354;13382
1034363;13252
1034371;13113
1034379;13063
1034387;12973
1034395;12846
1034404;12597
1034413;12333
1034421;12112
1034429;12057
1034437;11960
1034446;12043
1034454;12097
1034462;12321
1034470;12587
1034478;13058
1034490;13789
1034498;14157
1034506;14391
1034514;14515
1034522;14595
1034531;14537
1034539;14569
1034547;14578
1034555;14631
1034563;14505
1034572;14442
1034580;14381
1034588;14355
1034596;14296
1034604;14167
1034612;14166
1034621;14180
1034629;14117
1034637;13999
1034645;14109
1034653;14087
1034662;13840
1034670;13656
1034678;13833
1034686;13871
1034694;14024
1034703;14006
1034711;13979
1034719;13996
1034728;14136
1034736;14099
1034745;14104
1034753;14134
1034761;14045
1034772;14048
1034780;14168
1034789;14102
1034797;14153
1034805;14300
1034813;14259
1034821;14189
1034830;14306
1034838;14216
1034846;14265
1034854;14289
1034862;14218
1034871;14072
1034879;14097
1034887;14297
1034895;13206
1034903;10373
1034911;9166
1034920;10172
1034928;15301
1034936;16222
1034944;15900
1034952;15190
1034961;14911
1034969;14765
1034977;14627
1034985;14459
1034993;14431
1035002;14416
1035010;14501
1035018;14361
1035026;14204
1035034;13820
1035043;13820
1035052;13415
1035062;13756
1035070;13614
1035078;13297
1035087;13019
1035096;12812
1035104;12470
1035112;12141
1035120;12124
1035129;11877
1035137;11833
1035145;12035
1035153;12268
1035161;12716
1035170;13281
1035178;13771
1035186;14281
1035194;14577
1035202;14881
1035210;15257
1035219;15187
1035227;15614
1035235;15636
1035243;15344
1035251;15218
1035260;15350
1035268;15364
1035276;15231
1035284;15203
1035292;15209
1035301;15050
1035309;14915
1035317;14845
1035325;14697
1035333;14543
1035345;14540
1035353;14524
1035361;14392
1035369;14141
1035377;14118
1035386;13960
1035394;13934
1035402;13983
1035410;14081
1035419;13880
1035428;13940
1035436;13855
1035444;13905
1035452;13778
1035460;13768
1035469;13749
1035477;13683
1035485;13585
1035493;13582
1035501;13375
1035510;13545
1035518;13568
1035526;13550
1035534;13418
1035542;13403
1035550;13225
1035559;13266
1035567;13315
1035575;13415
1035583;13346
1035591;13445
1035600;13467
1035608;13437
1035616;13325
1035627;13481
1035635;13367
1035644;13246
1035652;13194
1035660;13235
1035668;13247
1035676;13332
1035685;13220
1035693;13240
1035701;13145
1035709;13143
1035717;13174
1035727;13214
1035735;13080
1035743;13006
1035751;12909
1035759;12926
1035768;13112
1035776;12141
1035784;9239
1035792;7354
1035800;8210
1035809;13777
1035817;14706
1035825;14382
1035833;13796
1035841;13472
1035849;13270
1035858;13021
1035866;12924
1035874;12900
1035882;12832
1035890;12775
1035899;12729
1035910;12697
1035918;12615
1035926;12571
1035934;12448
1035943;12376
1035951;12232
1035959;12162
1035967;11947
1035975;11801
1035984;11501
1035992;11296
1036000;11057
1036008;11014
1036016;10979
1036025;11085
1036033;11209
1036041;11507
1036049;11894
1036057;12368
1036067;12773
1036075;13159
1036083;13411
1036091;13647
1036099;13673
1036108;13740
1036116;13707
1036124;13711
1036132;13643
1036140;13614
1036148;13566
1036157;13535
1036165;13477
1036173;13424
1036181;13322
1036193;13268
1036201;13147
1036209;13052
1036217;12928
1036225;12940
1036233;12830
1036242;12859
1036250;12808
1036258;12847
1036266;12816
1036274;12903
1036283;12915
1036291;12939
1036299;12889
1036307;12868
1036315;12776
1036324;12763
1036332;12701
1036340;12728
1036348;12699
1036356;12702
1036365;12640
1036373;12659
1036381;12623
1036389;12649
1036398;12633
1036407;12708
1036415;12701
1036423;12755
1036431;12751
1036439;12813
1036447;12784
1036456;12763
1036464;12693
1036475;12843
1036483;12873
1036492;12934
1036500;12918
1036508;13008
1036516;13048
1036524;13176
1036532;13288
1036541;13387
1036549;13360
1036557;13402
1036565;13338
1036573;13286
1036582;13487
1036590;13555
1036598;11791
1036606;8209
1036614;6479
1036623;9739
1036631;14981
1036639;15378
1036647;14804
1036655;14289
1036664;14150
1036672;14022
1036680;13812
1036688;13776
1036696;13713
1036705;13726
1036713;13657
1036722;13686
1036730;13631
1036738;13607
1036746;13542
1036755;13476
1036766;13314
1036774;13285
1036782;13087
1036791;12902
1036799;12599
1036807;12369
1036815;12061
1036823;11955
1036831;11888
1036840;11909
1036848;12019
1036856;12234
1036864;12548
1036872;13085
1036881;13575
1036889;14040
1036897;14342
1036905;14609
1036913;14704
1036922;14793
1036930;14811
1036938;14786
1036946;14730
1036954;14716
1036963;14637
1036971;14617
1036979;14608
1036987;14608
1036995;14533
1037004;14504
1037012;14460
1037020;14450
1037029;14421
1037037;14440
1037048;14478
1037056;14554
1037064;14526
1037072;14501
1037081;14442
1037090;14440
1037098;14378
1037106;14371
1037114;14293
1037122;14314
1037130;14239
1037139;14222
1037147;14161
1037155;14102
1037163;14013
1037171;14025
1037180;14006
1037188;14010
1037196;14000
1037204;14014
1037212;14017
1037221;14049
1037229;14050
1037237;13958
1037245;13846
1037253;13762
1037262;13755
1037270;13798
1037278;13784
1037286;13790
1037294;13787
1037303;13832
1037311;13925
1037319;14014
1037330;14020
1037338;14004
1037347;13895
1037355;13801
1037363;13687
1037371;14093
1037380;13678
1037389;11339
1037397;7454
1037405;6651
1037413;11542
1037421;15413
1037430;15277
1037438;14629
1037446;14315
1037454;14192
1037462;13974
1037470;13835
1037479;13727
1037487;13639
1037495;13583
1037503;13540
1037511;13483
1037520;13430
1037528;13364
1037536;13285
1037544;13186
1037552;13092
1037561;12979
1037569;12780
1037577;12588
1037585;12326
1037593;12094
1037602;11836
1037613;11662
1037621;11694
1037629;11717
1037637;11790
1037646;11958
1037654;12323
1037662;12805
1037670;13260
1037678;13666
1037687;13964
1037696;14160
1037704;14293
1037712;14294
1037720;14322
1037729;14313
1037737;14312
1037745;14296
1037753;14234
1037761;14204
1037769;14184
1037778;14199
1037786;14118
1037794;14026
1037802;13990
1037810;13983
1037819;13950
1037827;13906
1037835;13840
1037843;13835
1037851;13796
1037860;13777
1037868;13724
1037876;13735
1037884;13720
1037895;13817
1037904;13867
1037912;13782
1037920;13775
1037928;13779
1037936;13800
1037945;13774
1037953;13748
1037961;13717
1037969;13683
1037977;13661
1037986;13640
1037994;13663
1038002;13664
1038010;13711
1038019;13778
1038028;13689
1038036;13545
1038044;13436
1038052;13413
1038060;13433
1038068;13400
1038077;13415
1038085;13428
1038093;13480
1038101;13515
1038109;13629
1038118;13649
1038126;13658
1038134;13596
1038142;13564
1038150;13484
1038159;13497
1038167;13838
1038175;12758
1038186;7971
1038194;6432
1038203;9878
1038211;14991
1038219;15224
1038227;14488
1038235;14092
1038244;13987
1038252;13806
1038260;13702
1038268;13593
1038276;13519
1038285;13473
1038293;13403
1038301;13310
1038309;13211
1038317;13149
1038326;13128
1038334;12990
1038342;12891
1038351;12708
1038359;12578
1038367;12365
1038376;12171
1038384;11883
1038392;11679
1038400;11506
1038408;11485
1038417;11414
1038425;11573
1038433;11806
1038441;12031
1038449;12360
1038458;12864
1038469;13531
1038477;13916
1038485;14160
1038493;14311
1038502;14401
1038510;14462
1038518;14454
1038526;14412
1038534;14368
1038543;14335
1038551;14291
1038559;14302
1038567;14273
1038575;14255
1038584;14192
1038592;14172
1038600;14107
1038608;14097
1038616;14089
1038625;14106
1038633;14068
1038641;14064
1038649;14003
1038657;14076
1038665;14050
1038675;14037
1038683;13998
1038691;14033
1038699;14021
1038707;14035
1038716;13957
1038724;13948
1038732;13934
1038740;13956
1038760;14290
1038768;14243
1038776;14166
1038784;14120
1038792;13960
1038801;13708
1038809;13656
1038817;13590
1038825;13614
1038833;13593
1038842;13552
1038850;13507
1038858;13561
1038866;13622
1038874;13710
1038883;13671
1038891;13641
1038899;13626
1038907;13629
1038915;13583
1038924;13524
1038932;13851
1038940;13533
1038948;11086
1038956;7517
1038964;6731
1038973;11884
1038981;15611
1038989;15422
1038998;14656
1039006;14349
1039015;14185
1039023;13912
1039031;13694
1039041;13700
1039050;13677
1039059;13648
1039067;13582
1039075;13572
1039083;13470
1039091;13437
1039100;13388
1039108;13192
1039116;12951
1039124;12818
1039132;12621
1039141;12420
1039149;12113
1039157;11906
1039165;11681
1039173;11608
1039182;11510
1039190;11602
1039198;11723
1039206;11963
1039214;12245
1039223;12692
1039231;13140
1039239;13609
1039247;13858
1039255;14069
1039263;14171
1039272;14302
1039280;14371
1039288;14408
1039296;14380
1039304;14356
1039314;14290
1039324;14333
1039332;14326
1039340;14347
1039350;14238
1039358;14176
1039366;14082
1039374;14072
1039382;14054
1039390;14056
1039399;14006
1039407;14066
1039415;14319
1039423;13997
1039431;13791
1039440;13818
1039448;13876
1039456;13922
1039464;13925
1039472;14002
1039481;13965
1039489;13994
1039497;14013
1039505;14078
1039513;14035
1039522;14007
1039530;13886
1039538;13913
1039546;13859
1039554;13886
1039562;13710
1039571;13602
1039579;13512
1039587;13582
1039595;13616
1039603;13665
1039615;13623
1039623;13744
1039631;13750
1039639;13856
1039647;13849
1039656;13852
1039665;13763
1039673;13749
1039681;13677
1039689;13607
1039698;13554
1039706;13867
1039714;12375
1039722;8787
1039730;6653
1039739;8957
1039747;14964
1039755;15534
1039763;14716
1039771;14115
1039780;13909
1039788;13703
1039796;13480
1039804;13413
1039812;13285
1039821;13294
1039829;13205
1039837;13166
1039845;13077
1039853;13060
1039862;12968
1039870;12896
1039878;12775
1039886;12715
1039897;12545
1039906;12437
1039914;12133
1039922;11889
1039930;11667
1039938;11589
1039946;11508
1039955;11595
1039963;11644
1039971;11881
1039979;12133
1039988;12548
1039997;12995
1040005;13494
1040013;13816
1040021;14066
1040029;14192
1040038;14323
1040046;14359
1040054;14401
1040062;14340
1040070;14316
1040079;14274
1040087;14220
1040095;14158
1040103;14130
1040111;14082
1040120;14082
1040128;14044
1040136;14034
1040144;14005
1040152;14001
1040161;14009
1040169;14021
1040180;14016
1040188;14106
1040196;14034
1040205;14036
1040213;14002
1040221;13995
1040229;13932
1040237;13999
1040246;13939
1040254;13998
1040262;13955
1040270;13955
1040278;13927
1040286;13917
1040296;13748
1040304;13678
1040312;13565
1040320;13595
1040328;13568
1040337;13636
1040345;13690
1040353;13769
1040361;13861
1040369;13982
1040378;13915
1040386;13938
1040394;13900
1040402;13857
1040410;13819
1040419;13766
1040427;14071
1040435;13826
1040443;11440
1040451;7784
1040463;7812
1040471;14472
1040479;16157
1040487;15495
1040495;14621
1040504;14355
1040512;14124
1040520;13981
1040528;13864
1040536;13847
1040545;13746
1040553;13741
1040561;13655
1040569;13585
1040577;13470
1040585;13403
1040594;13240
1040602;13115
1040610;12941
1040619;12816
1040627;12605
1040636;12396
1040644;12122
1040652;11867
1040660;11661
1040668;11615
1040677;11628
1040685;11701
1040693;11890
1040701;12141
1040709;12487
1040718;12950
1040726;13366
1040734;13707
1040745;14094
1040753;14327
1040762;14384
1040770;14441
1040778;14447
1040786;14485
1040794;14402
1040803;14381
1040811;14275
1040819;14242
1040827;14152
1040835;14084
1040844;13996
1040852;13943
1040860;13895
1040868;13867
1040876;13829
1040884;13795
1040893;13765
1040901;13777
1040909;13776
1040917;13771
1040925;13725
1040934;13690
1040943;13730
1040951;13748
1040959;13766
1040967;13715
1040976;13709
1040984;13616
1040992;13508
1041000;13421
1041008;13382
1041017;13309
1041025;13354
1041036;13511
1041044;13571
1041052;13675
1041061;13670
1041069;13680
1041077;13609
1041085;13635
1041093;13635
1041102;13594
1041110;13579
1041118;13605
1041126;13756
1041134;11874
1041143;8203
1041151;6828
1041159;10183
1041167;15965
1041175;15887
1041183;15169
1041192;14398
1041200;14025
1041208;13810
1041216;13605
1041224;13517
1041233;13461
1041241;13408
1041249;13319
1041257;13261
1041266;13178
1041275;13146
1041283;13080
1041291;12959
1041299;12820
1041307;12699
1041319;12540
1041327;12398
1041335;12148
1041343;11851
1041351;11661
1041360;11561
1041368;11594
1041376;11687
1041384;11853
1041392;12044
1041401;12392
1041409;12814
1041417;13287
1041425;13709
1041433;13984
1041442;14227
1041450;14324
1041458;14422
1041466;14539
1041474;14516
1041482;14519
1041491;14499
1041499;14448
1041507;14416
1041515;14363
1041523;14340
1041532;14261
1041540;14257
1041548;14244
1041556;14243
1041564;14226
1041573;14281
1041582;14240
1041590;14221
1041600;14184
1041608;14177
1041617;14156
1041625;14155
1041634;14168
1041642;14223
1041650;14183
1041659;14068
1041667;13920
1041675;13777
1041683;13653
1041691;13642
1041700;13611
1041708;13587
1041716;13614
1041724;13702
1041732;13756
1041741;13827
1041749;13826
1041757;13803
1041765;13753
1041773;13746
1041782;13709
1041790;13686
1041798;13659
1041806;14292
1041814;13315
1041822;9990
1041831;7167
1041839;7797
1041847;14582
1041855;16286
1041863;15624
1041872;14845
1041883;14373
1041891;14167
1041899;13925
1041907;13754
1041916;13638
1041924;13545
1041932;13429
1041941;13358
1041949;13306
1041958;13263
1041966;13164
1041974;13073
1041982;12942
1041990;12800
1041999;12649
1042007;12425
1042015;12110
1042023;11878
1042031;11617
1042040;11516
1042048;11521
1042056;11602
1042064;11711
1042072;11937
1042081;12225
1042089;12671
1042097;13099
1042105;13547
1042113;13880
1042121;14141
1042130;14253
1042138;14345
1042146;14372
1042154;14434
1042166;14464
1042174;14444
1042182;14331
1042190;14309
1042198;14239
1042206;14178
1042215;14086
1042223;14071
1042231;14014
1042239;13989
1042248;13936
1042257;13952
1042265;13913
1042273;13953
1042281;13950
1042289;14014
1042298;14008
1042306;14019
1042314;13995
1042322;13997
1042330;13968
1042339;14029
1042347;13978
1042355;13940
1042363;13824
1042371;13742
1042380;13640
1042388;13653
1042396;13611
1042404;13580
1042412;13594
1042420;13697
1042429;13735
1042437;13831
1042445;13837
1042456;13969
1042465;13984
1042473;13986
1042481;13913
1042489;13896
1042497;13815
1042505;14319
1042514;13023
1042522;9312
1042530;6427
1042538;8012
1042546;14780
1042555;15866
1042563;15158
1042571;14506
1042580;14280
1042588;14051
1042597;13778
1042605;13665
1042613;13531
1042621;13518
1042629;13379
1042638;13341
1042646;13266
1042654;13225
1042662;13071
1042670;13025
1042679;12927
1042687;12854
1042695;12629
1042703;12498
1042711;12262
1042719;12073
1042728;11818
1042739;11770
1042747;11821
1042755;11920
1042764;11982
1042772;12180
1042780;12418
1042788;12846
1042796;13247
1042804;13666
1042813;13943
1042821;14128
1042829;14222
1042837;14367
1042845;14313
1042854;14362
1042862;14305
1042870;14269
1042878;14168
1042886;14160
1042895;14036
1042904;14002
1042912;13911
1042920;13906
1042928;13809
1042937;13856
1042945;13836
1042953;13816
1042961;13799
1042969;13861
1042978;13836
1042986;13898
1042994;13914
1043002;14022
1043010;14029
1043022;14086
1043030;14124
1043038;14182
1043046;14171
1043054;14131
1043063;14063
1043071;13923
1043079;13759
1043087;13733
1043095;13659
1043103;13643
1043112;13662
1043120;13810
1043128;13834
1043136;13944
1043144;13934
1043153;13983
1043161;13902
1043169;13902
1043177;13820
1043185;13790
1043194;13675
1043202;13964
1043210;13896
1043218;11761
1043226;7702
1043235;6109
1043244;10620
1043252;15683
1043260;15631
1043268;14879
1043277;14399
1043285;14288
1043293;14037
1043304;13908
1043312;13843
1043321;13756
1043329;13630
1043337;13569
1043345;13435
1043353;13373
1043362;13213
1043370;13114
1043378;12902
1043386;12793
1043394;12619
1043402;12467
1043411;12230
1043419;12018
1043427;11777
1043435;11641
1043443;11529
1043452;11625
1043460;11714
1043468;11928
1043476;12126
1043484;12502
1043493;12924
1043501;13357
1043509;13697
1043517;13988
1043525;14178
1043534;14337
1043543;14339
1043551;14347
1043559;14322
1043567;14355
1043576;14262
1043587;14255
1043595;14224
1043603;14167
1043611;14025
1043620;13973
1043628;13910
1043636;13923
1043644;13857
1043652;13857
1043661;13808
1043669;13873
1043677;13874
1043685;13869
1043693;13884
1043702;13923
1043710;13923
1043718;13954
1043726;13923
1043734;13940
1043742;13928
1043751;13980
1043759;13850
1043767;13811
1043775;13659
1043783;13572
1043792;13487
1043800;13477
1043808;13469
1043816;13579
1043824;13624
1043833;13709
1043841;13788
1043850;13847
1043858;13829
1043866;13815
1043877;13841
1043885;13852
1043893;13725
1043902;13646
1043910;14134
1043919;13022
1043927;9379
1043935;6264
1043943;7470
1043951;14393
1043960;15760
1043968;15202
1043976;14484
1043984;14346
1043992;14120
1044001;13942
1044009;13825
1044017;13781
1044025;13682
1044033;13639
1044041;13588
1044050;13625
1044058;13536
1044066;13448
1044074;13313
1044082;13209
1044091;13011
1044099;12849
1044107;12581
1044115;12393
1044123;12136
1044132;11936
1044140;11790
1044148;11730
1044159;11857
1044167;12058
1044176;12213
1044184;12524
1044192;12917
1044200;13348
1044208;13672
1044218;13985
1044226;14200
1044234;14417
1044242;14503
1044250;14547
1044259;14530
1044267;14568
1044275;14514
1044283;14428
1044291;14335
1044300;14294
1044308;14236
1044316;14218
1044324;14085
1044332;14060
1044340;14001
1044349;13982
1044357;13912
1044365;13946
1044373;13894
1044381;13932
1044390;13904
1044398;13890
1044406;13857
1044414;13908
1044422;13856
1044431;13846
1044442;13849
1044450;13836
1044458;13595
1044466;13558
1044475;13517
1044483;13501
1044491;13507
1044499;13593
1044508;13608
1044517;13742
1044525;13765
1044533;13766
1044541;13762
1044549;13740
1044558;13684
1044566;13695
1044574;13596
1044582;13576
1044590;14048
1044599;12774
1044607;9195
1044615;7406
1044623;8816
1044631;15398
1044639;16346
1044648;15700
1044656;14886
1044664;14288
1044672;14062
1044680;13789
1044689;13608
1044697;13499
1044705;13411
1044713;13352
1044724;13300
1044733;13315
1044741;13182
1044749;13114
1044757;12952
1044765;12843
1044774;12627
1044782;12428
1044790;12262
1044798;11958
1044806;11645
1044815;11476
1044823;11386
1044831;11367
1044840;11464
1044848;11596
1044857;11859
1044865;12192
1044873;12604
1044881;13047
1044889;13405
1044898;13767
1044906;13993
1044914;14173
1044922;14264
1044930;14365
1044938;14350
1044947;14351
1044955;14333
1044963;14287
1044971;14266
1044979;14174
1044988;14128
1044996;14051
1045004;14034
1045015;14063
1045023;14088
1045032;14110
1045040;14077
1045048;14101
1045056;14081
1045064;14109
1045073;14085
1045081;14088
1045089;14058
1045097;14096
1045105;14084
1045114;14094
1045122;14060
1045130;14021
1045138;13873
1045146;13746
1045155;13682
1045164;13634
1045172;13594
1045180;13595
1045188;13662
1045197;13745
1045205;13892
1045213;13921
1045221;13927
1045229;13921
1045238;13919
1045246;13905
1045254;13896
1045262;13801
1045270;13719
1045278;14236
1045287;13628
1045298;9151
1045306;6965
1045314;8622
1045322;15222
1045331;16038
1045339;15415
1045347;14684
1045355;14234
1045363;14057
1045372;13773
1045380;13629
1045388;13571
1045396;13531
1045404;13436
1045413;13381
1045421;13321
1045429;13300
1045437;13353
1045445;13337
1045454;13214
1045462;13001
1045470;12830
1045478;12600
1045486;12376
1045496;12044
1045504;11819
1045512;11632
1045520;11584
1045528;11586
1045537;11714
1045545;11862
1045553;12188
1045561;12593
1045569;13106
1045581;13717
1045589;14053
1045597;14211
1045605;14312
1045613;14365
1045622;14369
1045630;14373
1045638;14364
1045646;14308
1045654;14264
1045662;14191
1045671;14149
1045679;14092
1045687;14032
1045695;13943
1045703;13928
1045712;13924
1045720;13927
1045728;13879
1045736;13841
1045744;13829
1045753;13887
1045761;13852
1045769;13916
1045777;13932
1045785;13976
1045794;13922
1045802;13956
1045811;13950
1045819;13972
1045827;13947
1045836;13927
1045844;13911
1045852;13942
1045863;13949
1045871;13976
1045880;13906
1045888;13878
1045896;13864
1045904;13863
1045912;13794
1045921;13652
1045929;13505
1045937;13472
1045945;13385
1045953;13387
1045961;13383
1045970;13417
1045978;13406
1045986;13424
1045994;13481
1046002;13563
1046011;13543
1046019;13537
1046027;13496
1046035;13452
1046043;13377
1046052;13504
1046060;13782
1046068;12391
1046076;8580
1046084;6088
1046093;8185
1046101;14493
1046109;15373
1046117;14824
1046126;14317
1046135;14186
1046145;13952
1046153;13861
1046161;13779
1046169;13721
1046179;13591
1046187;13494
1046195;13398
1046203;13338
1046211;13282
1046220;13229
1046228;13101
1046236;12978
1046244;12829
1046252;12681
1046260;12438
1046269;12235
1046277;11950
1046285;11780
1046293;11580
1046301;11539
1046310;11559
1046318;11740
1046326;11938
1046334;12300
1046342;12700
1046351;13165
1046359;13522
1046367;13867
1046375;14080
1046383;14253
1046392;14278
1046400;14360
1046408;14336
1046416;14362
1046424;14353
1046436;14367
1046444;14389
1046452;14383
1046460;14380
1046468;14310
1046477;14224
1046485;14216
1046494;14190
1046502;14203
1046510;14177
1046519;14198
1046527;14150
1046535;14180
1046543;14095
1046551;14112
1046559;14010
1046568;14041
1046576;14003
1046584;14010
1046592;13990
1046600;13966
1046609;13893
1046617;13866
1046625;13839
1046633;13840
1046641;13787
1046650;13812
1046658;13784
1046666;13855
1046674;13776
1046682;13684
1046691;13525
1046699;13394
1046707;13312
1046718;13383
1046726;13414
1046735;13405
1046743;13417
1046751;13499
1046759;13561
1046767;13583
1046776;13535
1046784;13538
1046792;13488
1046801;13490
1046809;13432
1046818;13348
1046826;13784
1046834;13381
1046842;10702
1046850;6928
1046858;6281
1046867;11790
1046875;15355
1046883;15162
1046891;14443
1046899;14174
1046908;13939
1046916;13704
1046924;13530
1046932;13477
1046940;13402
1046949;13413
1046957;13316
1046965;13272
1046973;13235
1046981;13194
1046990;13083
1047001;13008
1047009;12935
1047017;12781
1047025;12567
1047034;12338
1047042;12060
1047050;11831
1047058;11626
1047066;11535
1047075;11525
1047083;11652
1047091;11779
1047099;12085
1047108;12456
1047117;12965
1047125;13385
1047133;13799
1047141;14015
1047149;14258
1047158;14343
1047166;14409
1047174;14437
1047182;14477
1047190;14404
1047198;14459
1047207;14433
1047215;14420
1047223;14364
1047231;14355
1047239;14318
1047248;14343
1047256;14259
1047264;14266
1047272;14185
1047283;14232
1047292;14237
1047300;14243
1047308;14156
1047316;14164
1047324;14090
1047333;14129
1047341;14091
1047349;14099
1047357;14042
1047365;14009
1047374;13957
1047382;13986
1047390;13964
1047398;13943
1047406;13880
1047415;13927
1047423;13863
1047431;13885
1047440;13888
1047448;13902
1047457;13884
1047465;13915
1047473;13916
1047481;13906
1047489;13770
1047497;13660
1047506;13613
1047514;13687
1047522;13669
1047530;13717
1047538;13688
1047547;13692
1047555;13761
1047566;13995
1047574;14024
1047582;13985
1047591;13881
1047599;13798
1047607;13632
1047615;13605
1047623;13639
1047632;13808
1047640;12290
1047648;8776
1047656;6923
1047664;9912
1047673;15466
1047681;15813
1047689;15066
1047697;14576
1047705;14363
1047714;14134
1047722;13984
1047730;13932
1047738;13770
1047746;13838
1047754;13855
1047763;13796
1047771;13779
1047780;13822
1047788;13685
1047796;13597
1047805;13345
1047813;13379
1047821;13371
1047829;13437
1047837;13197
1047846;13081
1047857;12608
1047865;12589
1047873;12433
1047881;12548
1047890;12342
1047898;12302
1047906;12399
1047914;12825
1047922;13121
1047931;13516
1047939;13719
1047947;13950
1047955;13918
1047963;13976
1047972;13992
1047980;14228
1047988;14318
1047996;14525
1048004;14519
1048013;14638
1048021;14566
1048029;14769
1048037;14860
1048045;15037
1048054;14956
1048062;14923
1048070;14616
1048078;14463
1048086;14259
1048094;14338
1048104;14376
1048112;14551
1048120;14461
1048128;14453
1048138;14053
1048148;13819
1048156;13470
1048164;13602
1048172;13681
1048180;13881
1048189;13915
1048197;14027
1048205;13999
1048213;14071
1048221;13929
1048230;14075
1048238;13986
1048246;13791
1048254;13349
1048262;13348
1048271;13128
1048279;13135
1048287;12906
1048295;12852
1048303;12660
1048312;12876
1048320;12603
1048328;12649
1048336;12749
1048344;12972
1048353;12782
1048361;12822
1048369;12832
1048377;13031
1048385;13342
1048393;12200
1048402;8633
1048410;6783
1048421;11200
1048429;16049
1048438;15836
1048446;15275
1048454;14774
1048462;14798
1048471;14592
1048479;14731
1048488;14465
1048496;14361
1048504;14168
1048512;14190
1048520;13867
1048529;13665
1048537;13315
1048545;13134
1048553;12802
1048561;12626
1048570;12355
1048578;12222
1048586;11929
1048594;11701
1048602;11351
1048611;11031
1048619;10745
1048627;10652
1048635;10630
1048643;10598
1048652;10726
1048660;10980
1048668;11352
1048676;11718
1048684;12349
1048692;12746
1048704;13197
1048712;13724
1048720;13799
1048728;13992
1048737;13898
1048745;14041
1048753;13979
1048761;14152
1048769;14209
1048777;14340
1048787;14180
1048795;14189
1048803;14083
1048811;14108
1048819;13995
1048828;13948
1048836;13937
1048844;14028
1048852;14074
1048860;14152
1048869;14238
1048877;14270
1048885;14348
1048893;14406
1048901;14498
1048910;14481
1048918;14520
1048926;14491
1048934;14568
1048942;14417
1048951;14355
1048959;14133
1048967;14082
1048975;13831
1048986;13767
1048995;13821
1049003;13626
1049011;13701
1049019;13533
1049027;13389
1049036;13124
1049044;13081
1049052;13037
1049060;13066
1049068;12997
1049076;12929
1049085;13376
1049093;13077
1049101;10487
1049109;6619
1049118;5660
1049127;11343
1049135;15429
1049143;15068
1049151;14253
1049159;13785
1049168;13692
1049176;13376
1049184;13174
1049192;12934
1049200;12768
1049209;12625
1049217;12722
1049225;12703
1049233;12905
1049241;12911
1049250;13044
1049258;12930
1049266;12974
1049277;12972
1049285;12908
1049294;12813
1049302;12637
1049310;12541
1049318;12445
1049326;12407
1049335;12424
1049343;12510
1049351;12712
1049359;12992
1049367;13380
1049375;13912
1049384;14463
1049392;14890
1049400;15322
1049408;15537
1049416;15762
1049425;15833
1049433;15883
1049442;15909
1049450;15966
1049458;15761
1049467;15690
1049475;15532
1049483;15491
1049491;15360
1049499;15367
1049508;15193
1049516;15141
1049524;14948
1049532;14915
1049540;14798
1049549;14795
1049560;14623
1049568;14595
1049576;14634
1049584;14435
1049593;14214
1049601;14100
1049609;14051
1049617;13981
1049625;14041
1049634;14057
1049642;13903
1049650;13596
1049658;13647
1049666;13113
1049674;13166
1049683;14146
1049691;13959
1049699;13751
1049707;13715
1049715;14100
1049724;14190
1049732;14318
1049740;14192
1049749;14360
1049757;14539
1049766;14685
1049774;14531
1049782;14701
1049790;14520
1049798;15311
1049807;14217
1049815;10703
1049823;6463
1049831;6286
1049842;15103
1049851;15913
1049859;15023
1049867;14154
1049875;13676
1049883;13288
1049892;12852
1049900;12735
1049908;12541
1049916;12476
1049924;12311
1049933;12308
1049941;12137
1049949;12185
1049957;12107
1049965;12116
1049974;11947
1049982;11917
1049990;11643
1049998;11555
1050006;11287
1050014;11198
1050023;10938
1050031;10984
1050039;10954
1050047;11223
1050055;11319
1050064;11637
1050072;11779
1050081;12098
1050089;12298
1050097;12748
1050106;12829
1050114;13163
1050124;13438
1050133;13574
1050141;13603
1050150;13735
1050158;13718
1050166;13695
1050174;13558
1050182;13639
1050191;13574
1050199;13631
1050207;13470
1050215;13485
1050223;13377
1050232;13442
1050240;13404
1050248;13533
1050256;13438
1050264;13550
1050273;13402
1050281;13527
1050289;13493
1050297;13745
1050305;13615
1050313;13545
1050322;13306
1050330;13328
1050338;13079
1050346;13177
1050354;13078
1050363;13254
1050371;13197
1050379;13482
1050387;13325
1050396;13496
1050407;13531
1050415;13705
1050423;13640
1050431;13705
1050439;13617
1050449;13783
1050457;14086
1050465;12592
1050473;8895
1050481;7063
1050490;9639
1050498;16385
1050506;16599
1050514;15977
1050522;15115
1050531;14808
1050539;14481
1050547;14327
1050555;14050
1050563;14083
1050572;13901
1050580;13932
1050588;13715
1050596;13753
1050604;13546
1050612;13532
1050621;13266
1050629;13163
1050637;12836
1050645;12741
1050653;12465
1050662;12309
1050670;11990
1050678;11909
1050686;11709
1050697;11824
1050706;11944
1050714;12187
1050722;12297
1050730;12646
1050738;12969
1050747;13478
1050755;13770
1050763;14221
1050772;14589
1050780;14851
1050789;14884
1050797;14979
1050805;14913
1050813;14887
1050821;14691
1050830;14679
1050838;14492
1050846;14493
1050854;14357
1050862;14359
1050871;14233
1050879;14309
1050887;14203
1050895;14220
1050903;14127
1050911;14185
1050920;14174
1050928;14236
1050936;14083
1050944;14058
1050952;13899
1050961;13885
1050969;13801
1050980;13880
1050988;13932
1050996;14009
1051005;14026
1051013;14159
1051021;14094
1051029;14136
1051037;13856
1051046;13629
1051054;13410
1051062;13567
1051070;13612
1051079;13819
1051088;13864
1051096;14507
1051104;12986
1051112;9519
1051120;7451
1051129;9602
1051137;16469
1051145;17252
1051153;16477
1051161;15820
1051170;15136
1051178;14944
1051186;14527
1051194;14373
1051202;14161
1051210;14156
1051219;13910
1051227;13941
1051235;13754
1051243;13708
1051251;13426
1051263;13377
1051271;13124
1051279;13079
1051287;12747
1051295;12721
1051304;12367
1051312;12247
1051320;11910
1051328;11861
1051336;11737
1051345;11980
1051353;11934
1051361;12295
1051369;12493
1051377;12996
1051386;13292
1051394;13769
1051402;13860
1051410;14093
1051419;14101
1051428;14216
1051436;13963
1051444;13995
1051452;13810
1051460;13824
1051469;13678
1051477;13731
1051485;13532
1051493;13576
1051501;13483
1051510;13483
1051518;13350
1051526;13428
1051534;13208
1051545;13565
1051554;13430
1051562;13515
1051570;13357
1051578;13370
1051586;13138
1051594;13284
1051603;13183
1051611;13440
1051619;13389
1051627;13621
1051635;13569
1051644;13858
1051652;13801
1051660;13940
1051668;13768
1051676;13849
1051685;13707
1051693;13824
1051701;13694
1051709;13746
1051717;13864
1051726;13864
1051734;11344
1051743;7581
1051751;5610
1051759;10414
1051768;15747
1051776;15675
1051784;14973
1051792;14336
1051800;13869
1051809;13612
1051817;13302
1051828;13243
1051836;13054
1051844;13057
1051853;12871
1051861;12983
1051869;12868
1051877;12875
1051885;12733
1051894;12728
1051902;12535
1051910;12482
1051918;12215
1051926;12036
1051934;11759
1051943;11630
1051951;11377
1051959;11462
1051967;11517
1051975;11782
1051984;11915
1051992;12279
1052000;12675
1052008;13221
1052016;13716
1052025;14120
1052033;14338
1052041;14607
1052049;14713
1052057;14845
1052067;14874
1052075;14909
1052083;14843
1052091;14834
1052099;14793
1052108;14763
1052119;14762
1052127;14863
1052135;14659
1052143;14663
1052152;14552
1052160;14601
1052168;14492
1052176;14504
1052184;14412
1052193;14396
1052201;14262
1052209;14289
1052217;14089
1052225;14031
1052233;13881
1052242;13876
1052250;13755
1052258;13881
1052266;13848
1052274;13980
1052283;13957
1052291;13996
1052299;13943
1052307;14001
1052315;13970
1052324;14014
1052332;13936
1052340;13861
1052348;14322
1052356;13933
1052365;11061
1052373;7053
1052381;5622
1052390;11768
1052400;16219
1052409;15912
1052417;15186
1052425;14859
1052433;14453
1052442;14243
1052451;14037
1052459;13999
1052467;13819
1052475;13777
1052483;13601
1052492;13586
1052500;13500
1052508;13392
1052516;13188
1052524;13069
1052532;12894
1052541;12728
1052549;12536
1052557;12338
1052565;12092
1052573;11867
1052582;11743
1052590;11752
1052598;11812
1052606;11887
1052614;12076
1052623;12368
1052631;12855
1052639;13279
1052647;13691
1052655;13998
1052664;14217
1052672;14283
1052683;14389
1052691;14491
1052699;14398
1052708;14458
1052716;14367
1052724;14384
1052732;14295
1052740;14290
1052750;14177
1052758;14139
1052766;14069
1052774;14057
1052782;13979
1052791;14013
1052799;13992
1052807;14011
1052815;13953
1052823;13934
1052831;13940
1052840;13931
1052848;13850
1052856;13811
1052864;13693
1052872;13586
1052881;13499
1052889;13468
1052897;13419
1052905;13455
1052913;13524
1052922;13535
1052930;13626
1052938;13619
1052946;13660
1052954;13605
1052966;13622
1052974;13704
1052982;13601
1052990;13561
1052998;13480
1053007;14094
1053015;13423
1053023;10340
1053031;6134
1053039;5171
1053048;11609
1053056;15630
1053065;15536
1053073;14914
1053081;14584
1053090;14390
1053098;14099
1053106;13964
1053114;13876
1053122;13832
1053130;13744
1053139;13648
1053147;13647
1053155;13513
1053163;13453
1053171;13304
1053180;13185
1053188;13046
1053196;12941
1053204;12645
1053212;12404
1053221;12163
1053229;12016
1053237;11968
1053248;11923
1053256;12023
1053265;12068
1053273;12340
1053281;12672
1053289;13121
1053297;13693
1053306;14263
1053314;14626
1053322;14881
1053330;14980
1053338;15049
1053347;15006
1053355;14947
1053363;14821
1053371;14688
1053379;14515
1053389;14288
1053397;14170
1053405;13961
1053413;13774
1053421;13786
1053430;13727
1053438;13578
1053446;13720
1053454;13540
1053462;13709
1053470;13706
1053479;13697
1053487;13607
1053495;13635
1053503;13618
1053511;13769
1053520;13723
1053531;13917
1053539;13906
1053547;13798
1053555;13568
1053564;13590
1053572;13647
1053580;13684
1053588;13660
1053596;13797
1053605;13919
1053613;14133
1053621;14150
1053629;14126
1053637;13964
1053646;13963
1053654;13901
1053662;14016
1053670;14006
1053678;14075
1053687;13970
1053695;14419
1053703;12471
1053711;8238
1053720;4902
1053729;7451
1053737;14573
1053745;15776
1053753;15045
1053761;14578
1053769;14185
1053778;13967
1053786;13764
1053794;13832
1053802;13626
1053810;13668
1053822;13548
1053830;13466
1053838;13336
1053846;13228
1053854;13108
1053863;13031
1053871;12880
1053879;12700
1053887;12484
1053895;12338
1053904;12032
1053912;11794
1053920;11553
1053928;11544
1053936;11497
1053945;11549
1053953;11620
1053961;11870
1053969;12196
1053977;12664
1053986;13143
1053994;13693
1054002;13948
1054010;14211
1054018;14275
1054026;14378
1054036;14297
1054044;14343
1054052;14258
1054060;14299
1054068;14237
1054077;14278
1054085;14137
1054093;14148
1054104;14121
1054113;14209
1054121;14153
1054129;14106
1054137;14084
1054145;14046
1054153;13959
1054162;13964
1054170;13841
1054178;13878
1054186;13885
1054194;13930
1054203;13912
1054211;13993
1054219;13893
1054227;13838
1054235;13704
1054244;13748
1054252;13710
1054260;13735
1054268;13678
1054276;13788
1054285;13796
1054293;13981
1054301;13947
1054309;13982
1054317;13875
1054326;13898
1054334;13824
1054343;13891
1054351;13765
1054359;13739
1054367;14257
1054376;13583
1054386;8829
1054394;5635
1054402;7647
1054412;14885
1054420;15934
1054428;15336
1054436;14652
1054444;14483
1054452;14167
1054461;14054
1054469;13895
1054477;13893
1054485;13721
1054493;13681
1054502;13392
1054510;13381
1054518;13256
1054526;13563
1054534;13449
1054543;13210
1054551;12986
1054559;12896
1054567;12580
1054575;12430
1054584;12155
1054592;12110
1054600;11942
1054608;12040
1054616;11975
1054625;12206
1054633;12273
1054641;12652
1054649;12918
1054657;13457
1054669;13856
1054677;14269
1054685;14434
1054693;14630
1054701;14585
1054710;14538
1054719;14323
1054727;14615
1054735;14504
1054743;14400
1054751;14235
1054760;14418
1054768;14174
1054776;14182
1054784;14041
1054792;14168
1054801;14031
1054809;14177
1054817;13986
1054825;14061
1054833;13955
1054842;14116
1054850;14082
1054858;14162
1054866;13919
1054874;14031
1054883;13643
1054891;13592
1054899;13260
1054907;13305
1054915;13114
1054924;13448
1054932;13459
1054940;13676
1054948;13569
1054959;13729
1054968;13681
1054976;13767
1054984;13653
1054992;13718
1055000;13786
1055009;14040
1055017;14006
1055025;11971
1055034;8203
1055042;6765
1055050;11615
1055059;16923
1055067;16480
1055075;15836
1055083;15130
1055091;14912
1055100;14605
1055108;14418
1055116;14169
1055124;14155
1055132;13940
1055141;13849
1055149;13573
1055157;13427
1055165;13138
1055173;13059
1055182;12883
1055190;12852
1055198;12644
1055206;12562
1055214;12382
1055223;12269
1055231;12045
1055242;12000
1055250;12032
1055258;12093
1055267;12095
1055275;12230
1055283;12332
1055291;12720
1055299;13059
1055308;13532
1055316;13745
1055324;14081
1055332;14214
1055340;14508
1055348;14547
1055358;14677
1055366;14520
1055374;14562
1055382;14421
1055390;14549
1055399;14412
1055407;14471
1055415;14317
1055423;14337
1055431;14209
1055440;14207
1055448;14083
1055456;14102
1055464;14008
1055472;14055
1055481;13904
1055489;13858
1055497;13605
1055505;13578
1055513;13412
1055525;13426
1055533;13336
1055541;13420
1055549;13344
1055557;13506
1055566;13478
1055574;13520
1055582;13305
1055590;13352
1055598;13222
1055607;13423
1055615;13326
1055623;13320
1055631;13218
1055639;13294
1055647;11262
1055656;7944
1055664;6503
1055672;10285
1055680;16384
1055689;16499
1055698;15799
1055706;15161
1055714;14723
1055722;14592
1055730;14324
1055739;14136
1055747;13961
1055755;14087
1055763;14030
1055771;14110
1055780;14025
1055788;14134
1055796;14068
1055807;14062
1055815;13853
1055824;13763
1055832;13453
1055840;13301
1055848;12884
1055856;12747
1055865;12514
1055873;12583
1055881;12623
1055889;12836
1055897;12867
1055906;13250
1055914;13529
1055922;14145
1055930;14475
1055938;14949
1055946;15052
1055955;15278
1055963;15203
1055971;15341
1055979;15150
1055987;15264
1055996;15162
1056004;15187
1056013;15054
1056021;15075
1056029;14801
1056038;14731
1056046;14565
1056054;14558
1056062;14364
1056070;14439
1056079;14337
1056090;14493
1056098;14371
1056106;14405
1056114;14191
1056123;14252
1056131;14120
1056139;14360
1056147;14308
1056155;14421
1056164;14299
1056172;14395
1056180;14325
1056188;14509
1056196;14410
1056205;14478
1056213;14410
1056221;14491
1056229;14252
1056237;14347
1056246;14094
1056254;14368
1056262;12976
1056270;9947
1056278;7557
1056286;8744
1056295;15587
1056303;16994
1056311;16252
1056319;15410
1056327;14731
1056337;14510
1056345;14183
1056353;14181
1056361;14131
1056369;14190
1056380;14206
1056389;14434
1056397;14319
1056405;14453
1056413;14312
1056422;14307
1056430;13947
1056438;13743
1056446;13260
1056454;12977
1056463;12567
1056471;12366
1056479;12127
1056487;12377
1056495;12541
1056504;12766
1056512;12697
1056520;13067
1056528;13362
1056536;13862
1056545;14121
1056553;14453
1056561;14633
1056569;14906
1056577;15052
1056585;15151
1056594;15090
1056602;15145
1056610;14927
1056618;14855
1056626;14724
1056635;14573
1056643;14482
1056652;14430
1056662;14401
1056670;14457
1056679;14315
1056687;14414
1056695;14224
1056704;14352
1056712;14205
1056721;14224
1056729;13969
1056737;14000
1056745;13800
1056753;13792
1056762;13612
1056770;13678
1056778;13638
1056786;13744
1056794;13738
1056803;13825
1056811;13717
1056819;13787
1056827;13750
1056835;13684
1056844;13534
1056852;13390
1056860;13299
1056868;13492
1056876;12169
1056884;8842
1056893;6227
1056901;7675
1056909;14952
1056917;16003
1056925;15267
1056934;14399
1056953;14018
1056961;13731
1056969;13546
1056978;13265
1056986;13198
1056994;12896
1057002;12846
1057011;12646
1057020;12599
1057028;12389
1057036;12495
1057044;12386
1057052;12235
1057061;12014
1057069;11860
1057077;11536
1057085;11259
1057093;11010
1057102;10930
1057110;11013
1057118;11083
1057126;11237
1057134;11534
1057143;11915
1057151;12374
1057159;12794
1057167;13131
1057175;13461
1057183;13609
1057192;13750
1057200;13745
1057208;13805
1057216;13759
1057224;13738
1057236;13795
1057244;13753
1057252;13737
1057260;13677
1057268;13663
1057277;13594
1057285;13696
1057293;13602
1057301;13627
1057309;13661
1057318;13773
1057327;13739
1057335;13708
1057343;13575
1057351;13576
1057360;13514
1057368;13459
1057376;13458
1057384;13466
1057392;13457
1057401;13447
1057409;13562
1057417;13571
1057425;13681
1057433;13590
1057442;13602
1057450;13517
1057458;13495
1057466;13405
1057474;13391
1057482;13576
1057491;13230
1057499;10770
1057507;7016
1057518;6243
1057527;13577
1057535;16042
1057543;15560
1057551;14788
1057559;14334
1057567;13980
1057576;13589
1057584;13438
1057592;13361
1057600;13250
1057608;13181
1057617;13086
1057625;13051
1057633;12934
1057641;12887
1057650;12782
1057659;12685
1057667;12517
1057675;12402
1057683;12156
1057691;12035
1057700;11666
1057708;11532
1057716;11406
1057724;11484
1057732;11478
1057741;11709
1057749;11790
1057757;12214
1057765;12548
1057773;13079
1057782;13396
1057790;13824
1057798;13979
1057809;14208
1057817;14319
1057826;14332
1057834;14304
1057842;14277
1057850;14161
1057858;14191
1057866;14175
1057875;14163
1057883;14052
1057891;14125
1057899;13952
1057907;13906
1057916;13878
1057924;13936
1057932;13873
1057940;13859
1057948;13817
1057957;13866
1057965;13725
1057974;13757
1057982;13543
1057990;13551
1057999;13437
1058007;13515
1058015;13428
1058023;13599
1058031;13553
1058040;13749
1058048;13720
1058056;13812
1058064;13704
1058072;13839
1058081;13675
1058092;13888
1058100;13845
1058108;13686
1058116;13563
1058125;13973
1058133;12536
1058141;8994
1058149;5660
1058157;6824
1058166;14268
1058174;15899
1058182;15249
1058190;14546
1058198;14177
1058206;13943
1058215;13630
1058223;13650
1058231;13485
1058239;13496
1058247;13279
1058256;13350
1058264;13154
1058272;13238
1058280;12996
1058288;13031
1058297;12800
1058306;12762
1058314;12443
1058322;12376
1058330;11963
1058339;11871
1058347;11518
1058355;11523
1058363;11361
1058374;11700
1058383;11752
1058391;12067
1058399;12390
1058407;12892
1058415;13201
1058424;13636
1058432;13792
1058440;14106
1058448;14179
1058456;14369
1058465;14332
1058473;14393
1058481;14229
1058489;14332
1058497;14100
1058505;14174
1058514;13991
1058522;14094
1058530;13927
1058538;14077
1058546;13984
1058555;14100
1058563;13887
1058571;13979
1058579;13809
1058587;13965
1058596;13812
1058604;13996
1058612;13782
1058621;13945
1058629;13841
1058638;13945
1058646;13646
1058656;13679
1058665;13632
1058673;13746
1058682;13655
1058690;13794
1058698;13751
1058706;14015
1058714;13984
1058723;14136
1058731;13976
1058739;14017
1058747;13835
1058755;13941
1058764;13825
1058772;13915
1058780;13736
1058788;14226
1058796;12502
1058804;8878
1058813;5632
1058821;7421
1058829;14816
1058837;16384
1058845;15536
1058854;14687
1058862;14208
1058870;13899
1058878;13503
1058886;13435
1058895;13460
1058903;13560
1058911;13345
1058919;13363
1058927;13146
1058936;13071
1058947;12783
1058955;12772
1058963;12541
1058971;12517
1058980;12347
1058988;12265
1058996;11933
1059005;11767
1059013;11407
1059022;11287
1059030;11214
1059038;11379
1059046;11448
1059054;11733
1059063;11972
1059071;12535
1059079;12850
1059087;13357
1059095;13644
1059103;13978
1059112;14012
1059120;14175
1059128;14162
1059136;14243
1059144;14163
1059153;14199
1059161;14130
1059169;14189
1059177;14118
1059185;14190
1059194;14150
1059202;14244
1059210;14185
1059218;14244
1059229;14222
1059238;14284
1059246;14273
1059254;14345
1059262;14304
1059270;14402
1059279;14265
1059287;14199
1059295;13963
1059304;13891
1059312;13605
1059321;13609
1059329;13651
1059337;13828
1059345;13833
1059353;13945
1059362;13944
1059370;14097
1059378;14220
1059386;14347
1059394;14293
1059402;14315
1059411;14214
1059419;14254
1059427;14157
1059435;14144
1059443;13908
1059452;14279
1059460;12953
1059468;9592
1059476;6407
1059484;7663
1059493;14897
1059501;16572
1059512;15563
1059520;15127
1059528;14837
1059537;14622
1059545;14346
1059553;14263
1059561;14084
1059569;14090
1059578;13924
1059586;13904
1059594;13743
1059602;13681
1059610;13488
1059620;13436
1059628;13215
1059636;13120
1059644;12823
1059652;12596
1059661;12258
1059669;12078
1059677;11819
1059685;11767
1059693;11721
1059702;11850
1059710;11942
1059718;12247
1059726;12519
1059734;12970
1059742;13386
1059751;13780
1059759;13987
1059767;14215
1059775;14291
1059783;14366
1059795;14390
1059803;14516
1059811;14392
1059819;14362
1059827;14249
1059836;14313
1059844;14248
1059852;14296
1059860;14226
1059868;14277
1059877;14217
1059885;14254
1059893;14211
1059901;14262
1059909;14158
1059918;14217
1059926;14130
1059934;14115
1059943;13971
1059951;13926
1059960;13777
1059968;13757
1059976;13519
1059984;13345
1059992;13265
1060001;13358
1060009;13332
1060017;13331
1060025;13329
1060033;13447
1060041;13514
1060050;13547
1060058;13427
1060066;13346
1060077;13249
1060086;13345
1060094;13244
1060102;13281
1060110;13343
1060118;13376
1060126;11531
1060135;8160
1060143;6163
1060151;10063
1060159;16286
1060167;16331
1060176;15269
1060184;14515
1060192;14121
1060200;13773
1060208;13491
1060217;13375
1060225;13219
1060233;13165
1060241;13036
1060249;12988
1060258;12929
1060266;12869
1060275;12802
1060283;12759
1060291;12635
1060300;12535
1060308;12346
1060316;12191
1060324;11969
1060332;11739
1060340;11548
1060349;11422
1060357;11487
1060368;11730
1060376;11911
1060385;12229
1060393;12603
1060401;13097
1060409;13511
1060417;13949
1060425;14187
1060434;14432
1060442;14523
1060450;14618
1060458;14584
1060466;14593
1060475;14527
1060483;14497
1060491;14407
1060499;14391
1060507;14303
1060516;14301
1060524;14243
1060532;14228
1060540;14200
1060548;14191
1060557;14140
1060565;14128
1060573;14088
1060581;14058
1060590;14054
1060599;14066
1060607;14023
1060615;13993
1060623;13769
1060631;13573
1060639;13596
1060651;13687
1060659;13672
1060667;13755
1060675;13792
1060684;13893
1060692;13714
1060700;13714
1060708;13792
1060716;13906
1060724;13843
1060733;13751
1060741;13632
1060749;13521
1060757;13756
1060765;13092
1060774;10552
1060782;7314
1060790;6344
1060798;12794
1060806;17082
1060815;16433
1060823;15484
1060831;14717
1060839;14497
1060847;14149
1060856;13957
1060864;13790
1060872;13714
1060880;13587
1060888;13579
1060897;13444
1060906;13469
1060914;13344
1060922;13223
1060932;13111
1060941;12646
1060949;12226
1060958;12398
1060966;12516
1060974;12178
1060983;11794
1060991;11524
1060999;11475
1061007;11453
1061015;11481
1061023;11720
1061032;12064
1061040;12333
1061048;12721
1061056;13174
1061064;13440
1061073;13627
1061081;13785
1061089;14026
1061097;14186
1061105;14330
1061114;14294
1061122;14330
1061130;14284
1061138;14280
1061146;14214
1061155;14269
1061163;14237
1061171;14263
1061179;14240
1061187;14246
1061196;14157
1061204;14245
1061215;14331
1061223;14371
1061231;14315
1061240;14155
1061248;14001
1061256;13931
1061264;13892
1061273;13887
1061282;13894
1061290;14025
1061298;14070
1061306;14191
1061314;14225
1061322;14247
1061331;14199
1061339;14208
1061347;14166
1061355;14105
1061363;14025
1061372;13977
1061380;14133
1061388;13739
1061396;11390
1061404;8062
1061413;6584
1061421;11858
1061429;16806
1061437;16381
1061445;15411
1061454;14636
1061462;14271
1061470;13975
1061478;13711
1061486;13714
1061498;13581
1061506;13544
1061514;13440
1061522;13328
1061530;13199
1061539;13131
1061547;12974
1061555;12873
1061563;12717
1061571;12568
1061580;12306
1061588;12111
1061597;11756
1061605;11587
1061613;11407
1061622;11422
1061630;11421
1061638;11621
1061646;11767
1061654;12163
1061662;12510
1061671;13001
1061679;13347
1061687;13750
1061695;13928
1061703;14106
1061712;14093
1061720;14139
1061728;14116
1061736;14226
1061744;14110
1061753;14098
1061761;13973
1061769;13921
1061777;13784
1061788;13805
1061797;13767
1061805;13768
1061813;13656
1061821;13610
1061829;13597
1061838;13712
1061846;13726
1061854;13750
1061862;13682
1061870;13621
1061879;13512
1061887;13554
1061896;13488
1061904;13576
1061912;13530
1061921;13608
1061929;13566
1061937;13681
1061945;13642
1061953;13660
1061961;13563
1061970;13630
1061978;13550
1061986;13579
1061994;13498
1062002;13522
1062011;13951
1062019;12752
1062027;9194
1062035;5991
1062043;6768
1062052;14459
1062060;16111
1062071;15328
1062079;14727
1062087;14447
1062096;14043
1062104;13868
1062112;13718
1062120;13659
1062128;13538
1062137;13529
1062145;13420
1062153;13460
1062161;13355
1062169;13351
1062178;13190
1062186;13129
1062194;12861
1062202;12716
1062210;12412
1062218;12231
1062227;11943
1062236;11853
1062244;11739
1062252;11825
1062260;11874
1062269;12093
1062277;12288
1062285;12717
1062293;13094
1062301;13593
1062310;13878
1062318;14195
1062326;14347
1062334;14472
1062342;14436
1062354;14544
1062362;14489
1062370;14465
1062378;14316
1062386;14322
1062395;14217
1062403;14236
1062411;14125
1062419;14149
1062427;14045
1062436;14050
1062444;13945
1062452;13995
1062460;13901
1062468;13757
1062477;13790
1062485;13956
1062493;13911
1062501;13888
1062509;13685
1062518;13606
1062526;13528
1062534;13581
1062542;13569
1062550;13674
1062559;13670
1062568;13872
1062576;13930
1062584;14014
1062592;13958
1062600;13955
1062609;13865
1062617;13853
1062625;13737
1062636;13677
1062644;14134
1062653;13256
1062661;9951
1062669;6235
1062677;5902
1062685;13310
1062694;16270
1062702;15783
1062710;14839
1062718;14532
1062726;14132
1062735;13897
1062743;13718
1062751;13693
1062759;13580
1062767;13556
1062776;13490
1062784;13484
1062792;13350
1062800;13343
1062808;13208
1062817;13130
1062825;12904
1062833;12763
1062841;12484
1062849;12259
1062857;11893
1062866;11735
1062874;11601
1062883;11621
1062891;11671
1062899;11835
1062908;11960
1062918;12455
1062927;12831
1062935;13305
1062943;13638
1062952;14006
1062960;14147
1062968;14338
1062976;14344
1062984;14399
1062993;14309
1063001;14329
1063009;14250
1063017;14292
1063025;14177
1063034;14220
1063042;14144
1063050;14128
1063058;14058
1063066;14083
1063075;14053
1063083;14067
1063091;13985
1063099;14041
1063107;14009
1063116;14098
1063124;13999
1063132;14019
1063140;13822
1063148;13712
1063156;13644
1063165;13682
1063173;13689
1063181;13751
1063190;13783
1063198;13853
1063209;14019
1063217;14153
1063225;14046
1063234;14054
1063242;13944
1063251;13963
1063259;13817
1063267;13803
1063275;13752
1063283;13964
1063292;12264
1063300;8726
1063308;5927
1063316;8617
1063324;15907
1063333;16380
1063341;15420
1063349;14696
1063357;14371
1063365;14083
1063374;13824
1063382;13750
1063390;13602
1063398;13549
1063406;13459
1063415;13431
1063423;13370
1063431;13315
1063439;13209
1063447;13128
1063455;12985
1063464;12834
1063472;12641
1063480;12406
1063491;12097
1063500;11957
1063508;11727
1063516;11787
1063524;11801
1063532;11952
1063540;12014
1063549;12325
1063558;12631
1063566;13132
1063574;13488
1063582;13847
1063591;14073
1063599;14267
1063607;14280
1063615;14354
1063623;14331
1063632;14330
1063640;14301
1063648;14277
1063656;14200
1063664;14180
1063673;14113
1063681;14072
1063689;14023
1063697;13997
1063705;13963
1063714;13987
1063722;13951
1063730;13960
1063738;13974
1063746;13927
1063754;13905
1063763;13713
1063774;13579
1063782;13626
1063790;13570
1063799;13617
1063807;13651
1063815;13778
1063823;13810
1063831;13940
1063839;13978
1063848;14037
1063856;13935
1063865;13946
1063873;13879
1063881;13866
1063890;13785
1063898;13711
1063906;14092
1063914;13022
1063922;9790
1063931;6446
1063939;6686
1063947;14365
1063955;16483
1063963;15733
1063972;14853
1063980;14472
1063988;14127
1063996;13847
1064004;13720
1064013;13609
1064021;13556
1064029;13477
1064037;13427
1064045;13309
1064057;13267
1064065;13273
1064073;13117
1064081;13009
1064089;12824
1064098;12656
1064106;12455
1064114;12272
1064122;11997
1064130;11848
1064138;11772
1064147;11827
1064155;11894
1064163;12046
1064171;12275
1064179;12616
1064188;12971
1064196;13370
1064204;13739
1064213;14012
1064221;14194
1064230;14285
1064238;14378
1064246;14395
1064254;14374
1064262;14302
1064271;14251
1064279;14202
1064287;14254
1064295;14194
1064303;14208
1064312;14151
1064320;14168
1064328;14074
1064336;14125
1064347;14196
1064356;14237
1064364;14212
1064372;14137
1064380;14108
1064388;13936
1064397;13799
1064405;13767
1064413;13760
1064421;13807
1064429;13863
1064438;13966
1064446;14062
1064454;14182
1064462;14162
1064470;14163
1064478;14120
1064487;14079
1064495;14023
1064503;13979
1064511;13874
1064520;13847
1064529;14125
1064537;12630
1064545;9073
1064553;6334
1064561;8112
1064570;15840
1064578;16489
1064586;15584
1064594;14660
1064602;14409
1064611;14054
1064619;13823
1064630;13678
1064638;13634
1064646;13540
1064655;13405
1064663;13262
1064671;13162
1064679;13064
1064687;12977
1064696;12863
1064704;12789
1064712;12637
1064720;12487
1064728;12272
1064737;12111
1064745;11877
1064753;11790
1064761;11749
1064769;11844
1064777;11933
1064786;12165
1064794;12377
1064802;12742
1064810;13068
1064818;13532
1064827;13798
1064835;14082
1064844;14169
1064852;14326
1064860;14326
1064869;14395
1064877;14321
1064885;14308
1064893;14191
1064901;14180
1064913;14134
1064921;14140
1064929;14059
1064937;14062
1064945;14004
1064954;14010
1064962;13966
1064970;13982
1064978;13974
1064986;14010
1064995;13929
1065003;13917
1065011;13723
1065019;13599
1065027;13410
1065036;13449
1065044;13408
1065052;13550
1065060;13600
1065068;13750
1065076;13848
1065085;13923
1065093;13897
1065101;14008
1065109;13931
1065117;13967
1065126;13842
1065134;13783
1065142;13615
1065150;13792
1065159;13597
1065168;11560
1065176;7731
1065184;5582
1065194;13223
1065202;16587
1065212;15864
1065220;14971
1065228;14493
1065236;14198
1065244;13836
1065253;13707
1065261;13576
1065269;13517
1065277;13409
1065285;13378
1065294;13269
1065302;13218
1065310;13021
1065318;12960
1065326;12794
1065335;12721
1065343;12514
1065351;12401
1065359;12132
1065367;12019
1065375;11817
1065384;11821
1065392;11806
1065400;11994
1065408;12033
1065416;12257
1065425;12418
1065433;12844
1065441;13210
1065449;13607
1065457;13852
1065467;14111
1065477;14236
1065485;14413
1065493;14405
1065501;14397
1065510;14293
1065518;14246
1065527;14132
1065535;14121
1065543;13956
1065552;14038
1065560;13991
1065568;13986
1065576;13946
1065584;14016
1065593;13955
1065601;13979
1065609;13884
1065617;13943
1065625;13846
1065634;13924
1065642;13811
1065650;13820
1065658;13570
1065666;13552
1065674;13519
1065683;13675
1065691;13663
1065699;13759
1065707;13746
1065715;13880
1065724;13965
1065732;14054
1065740;13976
1065748;14009
1065756;13910
1065768;13931
1065776;13870
1065784;13800
1065792;14051
1065800;13437
1065809;10631
1065817;7116
1065825;6118
1065833;12829
1065841;16542
1065851;15943
1065859;14906
1065867;14545
1065875;14235
1065883;14037
1065892;13874
1065900;13847
1065908;13707
1065916;13687
1065924;13537
1065933;13546
1065941;13363
1065949;13296
1065957;13104
1065965;13028
1065974;12814
1065982;12746
1065990;12488
1065998;12315
1066006;11997
1066014;11898
1066023;11802
1066031;11880
1066039;11923
1066050;12249
1066058;12444
1066067;12755
1066075;13031
1066083;13477
1066091;13775
1066099;14115
1066108;14263
1066116;14437
1066124;14489
1066132;14603
1066140;14513
1066149;14525
1066157;14390
1066165;14400
1066174;14276
1066182;14271
1066191;14155
1066199;14170
1066207;14068
1066215;14058
1066223;13945
1066232;13955
1066240;13851
1066248;13889
1066256;13849
1066264;13920
1066273;13883
1066281;13886
1066289;13751
1066297;13559
1066305;13403
1066313;13445
1066322;13503
1066333;13663
1066341;13663
1066349;13751
1066358;13831
1066366;13997
1066374;13909
1066382;13954
1066390;13880
1066398;13897
1066407;13771
1066415;13753
1066423;13594
1066431;13979
1066439;13171
1066448;10392
1066456;6842
1066464;6247
1066472;13188
1066480;16658
1066489;15890
1066498;15002
1066506;14483
1066514;14227
1066522;13900
1066531;13803
1066539;13661
1066547;13627
1066555;13483
1066563;13490
1066572;13386
1066580;13318
1066588;13191
1066596;13116
1066604;12969
1066616;12878
1066624;12658
1066632;12538
1066640;12239
1066648;12094
1066657;11833
1066665;11826
1066673;11796
1066681;11934
1066689;12051
1066697;12327
1066706;12567
1066714;13019
1066722;13369
1066730;13748
1066738;13957
1066747;14193
1066755;14261
1066763;14340
1066771;14317
1066779;14344
1066788;14258
1066796;14234
1066804;14155
1066812;14169
1066821;14105
1066830;14090
1066838;14010
1066846;13989
1066854;13949
1066862;13945
1066871;13960
1066879;14022
1066887;14057
1066898;14149
1066906;14114
1066915;14031
1066923;13808
1066931;13759
1066939;13694
1066947;13778
1066956;13744
1066964;13838
1066972;13842
1066980;13954
1066988;13975
1066996;14044
1067005;13986
1067013;14000
1067021;13902
1067029;13921
1067037;13807
1067046;13766
1067054;13831
1067062;13734
1067070;11588
1067078;7928
1067087;5775
1067095;10277
1067103;16408
1067111;16236
1067119;15279
1067129;14693
1067137;14396
1067145;14116
1067153;13931
1067161;13858
1067170;13765
1067178;13647
1067189;13552
1067197;13583
1067205;13409
1067214;13362
1067222;13121
1067230;13002
1067238;12779
1067246;12657
1067255;12429
1067263;12262
1067271;12007
1067279;11911
1067287;11821
1067295;11875
1067304;11934
1067312;12115
1067320;12265
1067328;12553
1067336;12881
1067345;13298
1067353;13618
1067361;13946
1067369;14114
1067377;14264
1067386;14299
1067394;14357
1067402;14316
1067410;14277
1067418;14183
1067427;14087
1067436;14026
1067444;13960
1067452;13908
1067460;13854
1067471;13829
1067480;13904
1067488;13818
1067496;13882
1067504;13877
1067513;13963
1067521;13920
1067529;13918
1067537;13786
1067545;13629
1067554;13483
1067562;13473
1067570;13450
1067578;13585
1067586;13651
1067594;13768
1067603;13872
1067611;14023
1067619;14056
1067627;14041
1067635;14007
1067644;14015
1067652;14010
1067660;13922
1067668;13847
1067676;13762
1067685;14055
1067693;12522
1067701;8942
1067709;6067
1067717;8046
1067726;15658
1067734;16449
1067742;15489
1067753;14570
1067761;14357
1067770;14009
1067778;13872
1067786;13739
1067794;13680
1067802;13571
1067812;13556
1067820;13489
1067828;13447
1067836;13344
1067844;13218
1067853;13062
1067861;12921
1067869;12730
1067877;12514
1067885;12317
1067894;12113
1067902;11893
1067910;11763
1067918;11773
1067926;11809
1067934;11969
1067943;12102
1067951;12347
1067959;12702
1067967;13117
1067975;13493
1067984;13830
1067992;14048
1068000;14232
1068008;14278
1068016;14368
1068025;14318
1068036;14356
1068044;14346
1068052;14272
1068060;14244
1068069;14132
1068077;14101
1068085;14030
1068093;14011
1068101;13985
1068110;13944
1068118;13889
1068127;13886
1068135;13874
1068143;13887
1068152;13893
1068160;13888
1068168;13934
1068176;13886
1068184;13805
1068193;13557
1068201;13499
1068209;13484
1068217;13583
1068225;13602
1068233;13703
1068242;13724
1068250;13850
1068258;13935
1068266;14003
1068274;13960
1068283;13957
1068291;13893
1068299;13882
1068307;13776
1068318;13724
1068327;14130
1068335;12823
1068343;9411
1068351;6413
1068359;7582
1068368;15315
1068376;16534
1068384;15623
1068392;14709
1068400;14320
1068409;13970
1068417;13716
1068425;13558
1068433;13479
1068441;13397
1068451;13380
1068459;13323
1068467;13324
1068475;13250
1068483;13194
1068492;13056
1068500;12971
1068508;12781
1068516;12647
1068524;12391
1068532;12224
1068541;12001
1068549;11914
1068557;11832
1068565;11924
1068573;11983
1068582;12194
1068590;12296
1068598;12639
1068609;13184
1068617;13588
1068626;13920
1068634;14101
1068642;14222
1068650;14371
1068658;14383
1068667;14435
1068675;14402
1068683;14390
1068691;14322
1068699;14348
1068708;14302
1068716;14299
1068724;14204
1068732;14216
1068740;14120
1068749;14089
1068757;13987
1068765;14038
1068774;13966
1068782;13996
1068791;13895
1068799;13919
1068807;13876
1068815;13900
1068823;13778
1068831;13646
1068840;13455
1068848;13545
1068856;13536
1068864;13575
1068872;13512
1068881;13605
1068892;13800
1068900;14030
1068908;14041
1068916;14035
1068925;13957
1068933;13978
1068941;13920
1068949;13903
1068957;13762
1068966;14018
1068974;13619
1068982;11181
1068990;7523
1068998;6155
1069007;12055
1069015;16828
1069023;16212
1069031;15259
1069039;14635
1069048;14398
1069056;13996
1069064;13878
1069072;13727
1069080;13712
1069089;13551
1069097;13528
1069106;13397
1069114;13370
1069122;13195
1069130;13123
1069139;12954
1069147;12834
1069155;12619
1069163;12499
1069175;12173
1069183;12044
1069191;11825
1069199;11723
1069207;11687
1069215;11852
1069224;11957
1069232;12204
1069240;12422
1069248;12795
1069256;13148
1069265;13570
1069273;13803
1069281;14039
1069289;14133
1069297;14253
1069306;14241
1069314;14295
1069322;14195
1069330;14161
1069338;14046
1069347;14071
1069355;13957
1069363;13950
1069371;13828
1069379;13870
1069388;13821
1069396;13881
1069404;13793
1069412;13872
1069421;13869
1069430;13958
1069438;13888
1069446;13879
1069456;13684
1069465;13676
1069474;13558
1069482;13585
1069490;13591
1069498;13722
1069506;13736
1069514;13880
1069523;13955
1069531;14021
1069539;13986
1069547;14026
1069555;13963
1069564;14002
1069572;13928
1069580;13942
1069588;13802
1069596;14213
1069605;12828
1069613;9416
1069621;6250
1069629;7494
1069637;15271
1069646;16568
1069654;15598
1069662;14816
1069670;14418
1069678;14120
1069687;13819
1069695;13760
1069703;13610
1069711;13622
1069719;13502
1069727;13483
1069737;13355
1069747;13372
1069755;13259
1069763;13173
1069772;12947
1069780;12808
1069788;12550
1069797;12385
1069805;12097
1069814;11967
1069822;11801
1069830;11881
1069838;11943
1069846;12135
1069854;12265
1069863;12569
1069871;12884
1069879;13341
1069887;13654
1069895;14029
1069904;14212
1069912;14429
1069920;14425
1069928;14517
1069936;14465
1069945;14522
1069953;14399
1069961;14401
1069969;14256
1069977;14298
1069986;14216
1069994;14212
1070002;14117
1070010;14114
1070018;14049
1070030;14139
1070038;14146
1070046;14171
1070054;14136
1070062;14178
1070071;14077
1070079;14070
1070087;13870
1070095;13834
1070104;13759
1070113;13811
1070121;13771
1070129;13900
1070137;13905
1070145;14102
1070153;14154
1070162;14206
1070170;14134
1070178;14173
1070186;14099
1070194;14088
1070203;13982
1070211;13926
1070219;14051
1070227;13784
1070235;11398
1070244;7735
1070252;5947
1070260;11476
1070268;16683
1070276;16273
1070285;15247
1070293;14687
1070301;14355
1070312;14061
1070320;13920
1070329;13868
1070337;13731
1070345;13704
1070353;13538
1070361;13506
1070370;13345
1070378;13290
1070386;13123
1070394;13007
1070402;12809
1070410;12676
1070419;12394
1070427;12215
1070436;11962
1070444;11791
1070452;11637
1070461;11735
1070469;11776
1070477;11960
1070485;12151
1070493;12467
1070502;12793
1070510;13225
1070518;13563
1070526;13902
1070534;14067
1070543;14231
1070551;14253
1070559;14282
1070567;14255
1070575;14234
1070584;14152
1070595;14208
1070603;14163
1070611;14102
1070619;13964
1070628;13947
1070636;13825
1070644;13828
1070652;13761
1070660;13797
1070669;13719
1070677;13756
1070685;13724
1070693;13759
1070701;13703
1070710;13708
1070718;13579
1070726;13429
1070734;13375
1070742;13451
1070751;13466
1070760;13500
1070768;13480
1070776;13557
1070784;13661
1070792;13741
1070801;13729
1070809;13701
1070817;13637
1070825;13610
1070833;13533
1070842;13460
1070850;13312
1070858;13654
1070866;12788
1070877;8564
1070886;5784
1070894;7967
1070902;15557
1070910;16303
1070918;15331
1070927;14587
1070935;14286
1070943;14020
1070951;13781
1070959;13702
1070968;13565
1070976;13556
1070984;13469
1070992;13440
1071000;13326
1071009;13258
1071017;13123
1071025;12993
1071033;12820
1071041;12671
1071049;12486
1071058;12316
1071066;12060
1071074;11840
1071082;11673
1071091;11664
1071100;11735
1071108;11833
1071116;12008
1071124;12255
1071132;12582
1071141;12961
1071149;13318
1071157;13629
1071168;14016
1071176;14283
1071185;14352
1071193;14428
1071201;14409
1071209;14419
1071217;14309
1071226;14272
1071234;14207
1071242;14211
1071250;14130
1071258;14176
1071267;14167
1071275;14166
1071283;14153
1071291;14141
1071299;14106
1071308;14083
1071316;14068
1071324;14086
1071332;14108
1071340;14141
1071348;14118
1071357;13950
1071365;13771
1071373;13747
1071381;13776
1071389;13782
1071398;13851
1071406;13849
1071415;13937
1071423;14062
1071431;14170
1071440;14132
1071450;14123
1071459;14173
1071467;14065
1071475;14014
1071484;13870
1071492;13797
1071500;14016
1071508;12455
1071516;8813
1071525;6038
1071533;8354
1071541;15868
1071549;16367
1071557;15398
1071566;14590
1071574;14277
1071582;13905
1071590;13701
1071598;13599
1071607;13527
1071615;13453
1071623;13354
1071631;13304
1071639;13197
1071647;13138
1071656;12981
1071664;12932
1071672;12785
1071680;12689
1071688;12480
1071697;12302
1071705;12064
1071713;11937
1071721;11760
1071732;11817
1071741;11944
1071749;12011
1071757;12180
1071765;12422
1071773;12744
1071782;13133
1071791;13468
1071799;13768
1071807;14022
1071815;14214
1071824;14327
1071832;14411
1071840;14439
1071848;14418
1071856;14375
1071865;14328
1071873;14219
1071881;14180
1071889;14109
1071897;14073
1071906;13983
1071914;13946
1071922;13861
1071930;13915
1071938;13860
1071946;13895
1071955;13880
1071963;13950
1071971;13925
1071979;13947
1071987;13855
1071996;13779
1072004;13598
1072015;13697
1072023;13773
1072031;13765
1072040;13771
1072048;13848
1072056;13914
1072064;14058
1072072;14070
1072081;14041
1072090;13967
1072098;13949
1072106;13877
1072114;13829
1072123;13714
1072131;13722
1072139;13801
1072147;12037
1072155;8358
1072164;5811
1072172;8908
1072180;16154
1072188;16335
1072196;15426
1072205;14652
1072213;14401
1072221;14019
1072229;13841
1072237;13690
1072246;13667
1072254;13515
1072262;13495
1072270;13384
1072278;13369
1072286;13266
1072298;13189
1072306;13090
1072314;12966
1072322;12756
1072330;12548
1072339;12309
1072347;12110
1072355;11887
1072363;11805
1072371;11792
1072380;11895
1072388;12009
1072396;12253
1072404;12451
1072412;12829
1072422;13174
1072430;13572
1072438;13797
1072446;14084
1072454;14176
1072463;14277
1072471;14304
1072479;14368
1072487;14261
1072495;14245
1072504;14094
1072512;14120
1072520;14050
1072528;14050
1072536;14006
1072545;14048
1072553;13981
1072561;14028
1072569;13953
1072577;14009
1072589;13992
1072597;14089
1072605;14066
1072613;14076
1072621;14057
1072630;14023
1072638;13869
1072646;13680
1072654;13545
1072662;13586
1072670;13598
1072679;13672
1072687;13666
1072695;13796
1072703;13875
1072711;14029
1072720;13950
1072728;13987
1072736;13899
1072745;13953
1072753;13851
1072762;13827
1072770;13655
1072778;13765
1072786;13596
1072794;11602
1072803;7891
1072811;5839
1072819;10236
1072827;16509
1072835;16169
1072844;15219
1072852;14453
1072860;14253
1072871;13940
1072879;13896
1072888;13727
1072896;13641
1072904;13536
1072912;13527
1072920;13393
1072929;13332
1072937;13223
1072945;13181
1072953;12979
1072961;12841
1072969;12602
1072978;12486
1072986;12220
1072994;12045
1073002;11801
1073010;11748
1073019;11693
1073027;11842
1073035;11923
1073043;12118
1073051;12330
1073060;12777
1073068;13100
1073077;13509
1073085;13754
1073093;14027
1073102;14108
1073110;14242
1073118;14226
1073126;14329
1073134;14250
1073143;14294
1073154;14279
1073162;14322
1073170;14189
1073178;14140
1073187;14053
1073195;14067
1073203;13991
1073211;14022
1073219;13962
1073228;14006
1073236;13980
1073244;14074
1073252;14020
1073260;14076
1073268;14022
1073277;14071
1073285;13922
1073293;13752
1073301;13601
1073309;13680
1073318;13685
1073326;13752
1073334;13699
1073342;13816
1073350;13832
1073359;14008
1073367;13983
1073375;13994
1073383;13922
1073392;13975
1073401;13889
1073409;13895
1073417;13762
1073425;13992
1073435;13178
1073445;10140
1073453;6663
1073461;6783
1073469;14352
1073477;16754
1073486;15774
1073494;14833
1073502;14359
1073510;14106
1073518;13795
1073527;13719
1073535;13572
1073543;13548
1073551;13431
1073559;13462
1073567;13361
1073576;13303
1073584;13138
1073592;13074
1073600;12873
1073608;12782
1073617;12548
1073625;12394
1073633;12126
1073641;11987
1073649;11804
1073658;11782
1073666;11745
1073674;11905
1073682;11985
1073690;12196
1073699;12450
1073708;12841
1073718;13398
1073726;13861
1073734;14069
1073743;14328
1073751;14372
1073759;14492
1073768;14452
1073776;14490
1073785;14369
1073793;14376
1073801;14234
1073809;14280
1073817;14164
1073826;14144
1073834;14110
1073842;14142
1073850;14075
1073858;14126
1073866;14062
1073875;14095
1073883;14024
1073891;14080
1073899;13987
1073907;13972
1073916;13766
1073924;13694
1073932;13602
1073940;13639
1073948;13651
1073957;13733
1073965;13761
1073973;13877
1073981;13945
1073989;13964
1073998;13955
1074009;14026
1074017;14027
1074025;14042
1074033;13865
1074042;13825
1074050;13890
1074058;13793
1074066;11604
1074074;7947
1074084;5838
1074092;10628
1074100;16496
1074108;16225
1074116;15178
1074125;14586
1074133;14276
1074141;14013
1074149;13798
1074157;13751
1074166;13617
1074174;13608
1074182;13539
1074190;13497
1074198;13412
1074206;13325
1074215;13208
1074223;13102
1074231;12914
1074239;12740
1074247;12544
1074256;12340
1074264;12058
1074272;11829
1074280;11701
1074291;11812
1074300;11917
1074308;12093
1074316;12189
1074324;12521
1074332;12847
1074341;13302
1074349;13619
1074357;13947
1074365;14120
1074373;14292
1074382;14291
1074390;14358
1074398;14341
1074407;14347
1074415;14225
1074424;14209
1074432;14138
1074440;14085
1074448;13966
1074456;13927
1074465;13875
1074473;13829
1074481;13783
1074489;13767
1074497;13738
1074505;13713
1074514;13682
1074522;13712
1074530;13726
1074538;13734
1074546;13798
1074555;13754
1074563;13678
1074574;13546
1074582;13516
1074590;13586
1074599;13563
1074607;13637
1074615;13623
1074623;13732
1074631;13795
1074640;13903
1074648;13856
1074656;13892
1074664;13855
1074672;13837
1074681;13790
1074689;13765
1074697;13668
1074705;14062
1074713;12853
1074723;9646
1074731;6683
1074739;7458
1074747;15224
1074755;16785
1074764;15830
1074772;14846
1074780;14473
1074788;14209
1074796;13981
1074804;13806
1074813;13763
1074821;13658
1074829;13613
1074837;13535
1074845;13523
1074857;13493
1074865;13426
1074873;13301
1074881;13165
1074889;13021
1074898;12754
1074906;12569
1074914;12339
1074922;12178
1074930;11970
1074939;11921
1074947;11935
1074955;12041
1074963;12150
1074971;12381
1074980;12702
1074988;13037
1074996;13430
1075004;13808
1075012;14110
1075021;14351
1075029;14504
1075037;14593
1075045;14672
1075054;14641
1075063;14592
1075071;14522
1075079;14490
1075087;14412
1075095;14398
1075103;14325
1075112;14328
1075120;14228
1075128;14251
1075148;14599
1075156;14574
1075164;14415
1075172;14230
1075180;14020
1075188;13890
1075197;13900
1075205;13879
1075213;13905
1075221;13969
1075229;14067
1075238;14123
1075246;14206
1075254;14193
1075262;14164
1075270;14098
1075279;14086
1075287;14042
1075295;14031
1075303;13919
1075311;13840
1075320;14089
1075328;12699
1075336;9092
1075344;6455
1075352;7667
1075361;15562
1075369;16708
1075377;15780
1075386;14749
1075394;14316
1075402;14007
1075411;13785
1075419;13586
1075427;13539
1075438;13462
1075447;13438
1075455;13308
1075463;13214
1075471;13089
1075479;12984
1075487;12749
1075496;12591
1075504;12350
1075512;12142
1075520;11872
1075528;11658
1075537;11432
1075545;11343
1075553;11303
1075561;11446
1075569;11616
1075578;11850
1075586;12088
1075594;12515
1075602;12911
1075610;13352
1075619;13598
1075627;13844
1075635;13946
1075643;14092
1075651;14092
1075660;14144
1075668;14049
1075676;14063
1075684;13984
1075693;13977
1075702;13873
1075710;13879
1075720;13863
1075728;13901
1075736;13795
1075746;13747
1075754;13672
1075762;13711
1075770;13687
1075778;13699
1075786;13672
1075795;13703
1075803;13709
1075811;13764
1075819;13651
1075827;13554
1075836;13347
1075844;13317
1075852;13294
1075860;13411
1075868;13371
1075877;13440
1075885;13436
1075893;13632
1075901;13709
1075909;13781
1075918;13744
1075926;13761
1075934;13686
1075942;13709
1075950;13567
1075959;13524
1075967;13913
1075975;12901
1075983;9487
1075991;6006
1076003;8354
1076011;15804
1076019;16276
1076027;15452
1076035;14667
1076044;14448
1076052;14071
1076060;13907
1076069;13736
1076077;13675
1076086;13574
1076094;13577
1076102;13495
1076110;13465
1076118;13279
1076126;13221
1076135;13063
1076143;13012
1076151;12817
1076159;12673
1076167;12408
1076176;12242
1076184;11959
1076192;11861
1076200;11766
1076208;11872
1076217;11931
1076225;12145
1076233;12331
1076241;12695
1076249;13033
1076258;13493
1076266;13780
1076274;14052
1076285;14327
1076293;14519
1076302;14483
1076310;14521
1076318;14447
1076326;14424
1076334;14314
1076343;14310
1076351;14214
1076359;14235
1076368;14150
1076376;14177
1076385;14095
1076393;14142
1076401;14029
1076409;14031
1076417;13941
1076425;13992
1076434;13950
1076442;13973
1076450;13909
1076458;13883
1076466;13745
1076475;13583
1076483;13420
1076491;13483
1076499;13483
1076507;13547
1076516;13501
1076524;13608
1076532;13641
1076540;13790
1076548;13754
1076557;13819
1076568;13860
1076576;13942
1076584;13826
1076592;13801
1076601;13633
1076609;14124
1076617;13044
1076625;9784
1076633;6153
1076642;6498
1076650;14136
1076658;16488
1076666;15672
1076674;14847
1076684;14462
1076692;14232
1076700;13911
1076708;13842
1076716;13703
1076724;13694
1076733;13614
1076741;13650
1076749;13521
1076757;13501
1076765;13380
1076774;13311
1076782;13159
1076790;13093
1076798;12886
1076806;12699
1076815;12429
1076823;12229
1076831;12006
1076839;11923
1076847;11890
1076859;12139
1076867;12290
1076875;12570
1076883;12845
1076891;13329
1076900;13706
1076908;14105
1076916;14329
1076924;14568
1076932;14602
1076941;14708
1076949;14656
1076957;14686
1076965;14615
1076973;14603
1076982;14510
1076990;14523
1076999;14386
1077007;14368
1077015;14265
1077023;14258
1077032;14165
1077040;14161
1077048;14038
1077056;14071
1077064;14029
1077073;14075
1077081;14056
1077089;14126
1077097;14070
1077105;14040
1077114;13881
1077122;13678
1077130;13527
1077141;13600
1077149;13598
1077158;13617
1077166;13556
1077174;13644
1077182;13661
1077190;13829
1077199;13793
1077207;13794
1077215;13727
1077223;13769
1077231;13666
1077240;13618
1077248;13438
1077256;13687
1077264;13399
1077272;11202
1077281;7387
1077289;5555
1077297;10704
1077305;16387
1077313;16024
1077321;15113
1077331;14476
1077339;14215
1077347;13880
1077355;13692
1077363;13553
1077372;13496
1077380;13420
1077388;13372
1077396;13301
1077404;13231
1077413;13160
1077424;13136
1077432;13017
1077440;12895
1077448;12603
1077457;12423
1077465;12143
1077473;11938
1077481;11701
1077489;11674
1077498;11636
1077506;11746
1077514;11855
1077522;12113
1077530;12404
1077539;12863
1077547;13234
1077555;13685
1077563;13986
1077571;14230
1077580;14354
1077588;14471
1077596;14461
1077604;14472
1077612;14443
1077620;14398
1077629;14334
1077637;14288
1077646;14215
1077654;14186
1077662;14152
1077671;14128
1077679;14106
1077687;14062
1077695;14049
1077706;14076
1077715;14072
1077723;14059
1077731;13995
1077739;14037
1077747;13974
1077756;14000
1077764;13967
1077772;13999
1077780;13878
1077788;13813
1077797;13575
1077805;13517
1077813;13478
1077821;13556
1077829;13537
1077838;13566
1077846;13600
1077854;13705
1077862;13808
1077870;13807
1077879;13785
1077887;13765
1077895;13706
1077903;13668
1077911;13658
1077919;13552
1077928;13746
1077936;13462
1077944;11115
1077952;7369
1077961;5732
1077970;10707
1077978;16339
1077986;16025
1077996;14862
1078004;14581
1078014;14217
1078022;13967
1078030;13793
1078038;13765
1078046;13699
1078055;13649
1078063;13550
1078071;13519
1078079;13427
1078087;13309
1078096;13140
1078104;13098
1078112;12994
1078120;12803
1078128;12568
1078137;12357
1078145;12122
1078153;11881
1078161;11739
1078169;11698
1078178;11732
1078186;11851
1078194;12056
1078202;12341
1078210;12759
1078218;13217
1078227;13613
1078235;13875
1078243;14099
1078251;14242
1078259;14364
1078268;14366
1078279;14469
1078287;14536
1078295;14473
1078303;14444
1078312;14373
1078320;14332
1078329;14304
1078337;14294
1078345;14198
1078354;14201
1078362;14172
1078370;14153
1078378;14109
1078386;14077
1078395;14044
1078403;14026
1078411;14041
1078419;14011
1078427;14026
1078436;14015
1078444;14029
1078452;13985
1078460;13923
1078468;13783
1078477;13581
1078485;13496
1078493;13527
1078501;13559
1078509;13579
1078518;13575
1078526;13727
1078534;13801
1078542;13931
1078550;13903
1078562;13924
1078570;13978
1078578;13971
1078586;13923
1078594;13855
1078602;13804
1078611;14105
1078619;12626
1078627;9232
1078635;6871
1078643;8761
1078653;16339
1078661;17019
1078669;15980
1078677;15039
1078685;14617
1078694;14387
1078702;14031
1078710;13882
1078718;13713
1078726;13699
1078735;13584
1078743;13545
1078751;13412
1078759;13367
1078767;13219
1078776;13126
1078784;12999
1078792;12900
1078800;12659
1078808;12428
1078817;12111
1078825;11911
1078833;11644
1078844;11603
1078852;11692
1078861;11778
1078869;11906
1078877;12175
1078885;12521
1078893;12928
1078902;13316
1078910;13705
1078918;13972
1078926;14193
1078934;14273
1078942;14338
1078951;14318
1078960;14367
1078968;14301
1078976;14261
1078984;14137
1078993;14118
1079001;14008
1079009;13960
1079017;13800
1079025;13782
1079034;13668
1079042;13672
1079050;13595
1079058;13598
1079066;13552
1079075;13597
1079083;13575
1079091;13608
1079099;13577
1079107;13677
1079116;13621
1079127;13675
1079135;13649
1079143;13493
1079151;13293
1079160;13292
1079168;13329
1079176;13422
1079184;13407
1079192;13503
1079201;13581
1079209;13743
1079217;13774
1079225;13748
1079233;13659
1079241;13685
1079250;13589
1079258;13599
1079266;13493
1079274;13486
1079283;13872
1079292;12616
1079300;9046
1079308;5952
1079316;6915
1079324;14693
1079333;16298
1079341;15538
1079349;14543
1079357;14250
1079365;13912
1079374;13690
1079382;13510
1079390;13425
1079398;13271
1079406;13307
1079418;13235
1079426;13226
1079434;13058
1079442;12976
1079450;12798
1079459;12711
1079467;12492
1079475;12347
1079483;12067
1079491;11828
1079500;11561
1079508;11427
1079516;11342
1079524;11423
1079532;11453
1079540;11654
1079549;11878
1079557;12350
1079565;12770
1079573;13324
1079581;13627
1079590;13995
1079598;14181
1079607;14375
1079615;14394
1079623;14461
1079632;14442
1079640;14511
1079648;14429
1079656;14471
1079664;14388
1079673;14441
1079681;14383
1079689;14387
1079700;14335
1079708;14387
1079717;14269
1079725;14237
1079733;14126
1079741;14137
1079749;14054
1079758;14069
1079766;13970
1079774;14046
1079782;14029
1079790;14102
1079799;14005
1079807;13960
1079815;13746
1079823;13580
1079831;13489
1079839;13599
1079848;13593
1079856;13641
1079864;13632
1079872;13758
1079880;13827
1079889;13952
1079897;13912
1079905;13948
1079913;13916
1079922;13940
1079931;13826
1079939;13796
1079947;13694
1079955;14146
1079963;12845
1079972;9473
1079983;5870
1079991;9675
1079999;16370
1080007;16502
1080016;15477
1080024;14812
1080032;14482
1080040;14205
1080048;13988
1080057;13908
1080065;13739
1080073;13702
1080081;13570
1080089;13542
1080098;13457
1080106;13451
1080114;13325
1080122;13271
1080130;13075
1080138;12921
1080147;12670
1080155;12507
1080163;12195
1080171;11998
1080179;11761
1080188;11742
1080196;11711
1080204;11879
1080212;12002
1080220;12255
1080229;12511
1080237;13004
1080246;13398
1080254;13825
1080264;14238
1080273;14518
1080281;14518
1080289;14617
1080298;14598
1080306;14633
1080315;14499
1080323;14541
1080331;14425
1080339;14390
1080347;14274
1080356;14254
1080364;14102
1080372;14066
1080380;13968
1080388;13977
1080397;13867
1080405;13900
1080413;13854
1080421;13890
1080429;13838
1080438;13880
1080446;13847
1080454;13875
1080462;13843
1080470;13846
1080478;13738
1080487;13582
1080495;13387
1080503;13412
1080511;13443
1080519;13517
1080528;13506
1080536;13608
1080547;13802
1080555;14022
1080563;13924
1080572;13951
