Tempo (ms);Valor
1080610;14598
1080618;14376
1080626;14651
1080634;13327
1080642;9873
1080650;6474
1080659;7092
1080667;14662
1080675;16621
1080683;15738
1080691;14822
1080700;14407
1080708;14128
1080716;13819
1080724;13683
1080732;13493
1080741;13458
1080749;13376
1080757;13340
1080766;13214
1080774;13155
1080783;12988
1080791;12937
1080799;12813
1080807;12706
1080815;12485
1080824;12345
1080832;12073
1080840;11864
1080848;11579
1080856;11442
1080865;11365
1080873;11471
1080881;11535
1080892;11878
1080900;12259
1080909;12708
1080917;13111
1080925;13528
1080933;13794
1080941;14029
1080950;14100
1080958;14195
1080966;14217
1080974;14265
1080982;14193
1080990;14169
1080999;14067
1081007;14085
1081015;13983
1081023;14006
1081031;13935
1081040;13981
1081048;13945
1081056;14002
1081064;13938
1081072;13971
1081081;13923
1081089;13951
1081098;13909
1081106;13934
1081114;13870
1081123;13917
1081131;13854
1081139;13894
1081147;13857
1081155;13848
1081164;13738
1081175;13665
1081183;13708
1081191;13814
1081199;13833
1081208;13884
1081216;13885
1081224;13997
1081232;14044
1081240;14113
1081249;14031
1081257;14101
1081265;14040
1081273;14024
1081281;13967
1081289;13934
1081298;13860
1081306;14294
1081314;12776
1081322;9353
1081330;6441
1081339;7949
1081347;15568
1081355;16818
1081363;15933
1081371;15070
1081380;14687
1081388;14419
1081396;14097
1081404;13993
1081413;13860
1081422;13798
1081430;13666
1081438;13681
1081446;13586
1081456;13639
1081466;13511
1081474;13414
1081482;13180
1081490;13007
1081498;12763
1081507;12585
1081515;12241
1081523;11980
1081531;11686
1081539;11660
1081548;11627
1081556;11751
1081564;11802
1081572;12079
1081580;12407
1081588;12908
1081597;13304
1081605;13756
1081613;13977
1081621;14230
1081629;14318
1081638;14394
1081646;14367
1081654;14430
1081662;14363
1081670;14341
1081679;14274
1081687;14288
1081695;14207
1081703;14202
1081711;14092
1081720;14061
1081729;13949
1081739;14027
1081747;13993
1081755;13981
1081764;13901
1081772;13932
1081781;13831
1081789;13900
1081797;13861
1081806;13872
1081814;13790
1081822;13760
1081830;13721
1081838;13717
1081847;13543
1081855;13390
1081863;13277
1081871;13375
1081879;13351
1081887;13416
1081896;13387
1081904;13485
1081912;13534
1081920;13653
1081928;13616
1081937;13682
1081945;13639
1081953;13637
1081961;13556
1081969;13548
1081978;13403
1081986;13692
1081994;13289
1082002;10799
1082010;7165
1082022;6887
1082030;14509
1082038;16641
1082046;15771
1082054;14816
1082063;14278
1082071;14063
1082079;13737
1082087;13626
1082095;13471
1082105;13462
1082113;13336
1082121;13276
1082129;13180
1082137;13135
1082146;13002
1082154;12925
1082162;12799
1082170;12692
1082178;12435
1082186;12255
1082195;12017
1082203;11812
1082211;11535
1082219;11426
1082227;11351
1082236;11430
1082244;11534
1082252;11789
1082260;12082
1082268;12528
1082277;12980
1082285;13437
1082293;13749
1082301;14010
1082312;14212
1082321;14375
1082329;14378
1082337;14417
1082345;14334
1082353;14315
1082362;14247
1082370;14218
1082378;14090
1082386;14080
1082394;13970
1082403;13941
1082412;13866
1082420;13862
1082428;13813
1082436;13859
1082445;13803
1082453;13857
1082461;13815
1082469;13874
1082477;13807
1082486;13815
1082494;13832
1082502;13871
1082510;13868
1082518;13891
1082526;13832
1082535;13720
1082543;13454
1082551;13391
1082559;13424
1082567;13494
1082576;13509
1082584;13550
1082595;13742
1082603;13962
1082611;13956
1082620;13970
1082628;13881
1082636;13872
1082644;13839
1082652;13837
1082661;13733
1082669;13810
1082677;13977
1082685;12220
1082693;8427
1082702;5741
1082710;8339
1082718;15938
1082726;16454
1082735;15575
1082744;14743
1082752;14437
1082760;14120
1082768;13927
1082776;13823
1082785;13765
1082793;13702
1082801;13651
1082809;13556
1082817;13486
1082825;13408
1082834;13342
1082842;13268
1082850;13097
1082858;12924
1082866;12727
1082878;12445
1082886;12248
1082894;11945
1082902;11775
1082910;11639
1082919;11667
1082927;11745
1082935;11905
1082943;12172
1082951;12545
1082960;12965
1082968;13421
1082976;13749
1082984;14067
1082992;14242
1083001;14407
1083009;14403
1083017;14434
1083025;14385
1083033;14357
1083043;14326
1083051;14284
1083059;14215
1083067;14146
1083075;14118
1083084;14041
1083092;14003
1083100;13984
1083108;13985
1083116;13954
1083124;13965
1083133;13946
1083141;14002
1083149;14017
1083160;14059
1083169;14146
1083177;14012
1083185;13839
1083193;13632
1083201;13642
1083209;13619
1083218;13635
1083226;13674
1083234;13743
1083242;13826
1083250;13960
1083259;14003
1083267;14004
1083275;13975
1083283;13948
1083291;13898
1083300;13793
1083308;13657
1083316;13743
1083324;13732
1083332;11632
1083341;7832
1083349;5391
1083357;9629
1083365;16350
1083373;16150
1083383;15124
1083391;14423
1083399;14142
1083407;13869
1083415;13638
1083423;13545
1083432;13455
1083440;13433
1083451;13448
1083459;13461
1083468;13411
1083476;13305
1083484;13248
1083492;13167
1083500;13047
1083508;12877
1083517;12680
1083525;12432
1083533;12146
1083541;11919
1083549;11787
1083558;11752
1083566;11759
1083574;11866
1083582;12016
1083590;12321
1083599;12736
1083607;13281
1083615;13711
1083623;14113
1083631;14330
1083640;14552
1083648;14643
1083656;14764
1083664;14779
1083672;14825
1083681;14779
1083690;14765
1083698;14685
1083706;14641
1083714;14509
1083722;14477
1083733;14521
1083742;14555
1083750;14484
1083758;14431
1083767;14404
1083775;14421
1083783;14362
1083791;14331
1083799;14209
1083807;13982
1083816;13822
1083824;13840
1083832;13786
1083840;13824
1083848;13879
1083857;14009
1083865;14072
1083873;14210
1083881;14231
1083889;14267
1083898;14194
1083906;14252
1083914;14230
1083922;14233
1083930;14106
1083939;14185
1083947;14104
1083955;12198
1083963;8604
1083971;6987
1083980;10713
1083988;17525
1083996;17259
1084004;16239
1084015;15126
1084024;14865
1084032;14548
1084040;14279
1084048;14108
1084057;14077
1084066;14024
1084074;13958
1084082;13825
1084090;13755
1084098;13642
1084106;13630
1084115;13434
1084123;13292
1084131;13086
1084139;12901
1084147;12609
1084156;12356
1084164;12035
1084172;11895
1084180;11733
1084188;11798
1084197;11821
1084205;12063
1084213;12328
1084221;12799
1084229;13188
1084238;13618
1084246;13894
1084254;14222
1084262;14338
1084270;14493
1084279;14509
1084287;14579
1084298;14596
1084306;14583
1084314;14485
1084323;14440
1084331;14295
1084339;14193
1084347;14058
1084355;14055
1084365;14036
1084373;14065
1084381;13980
1084389;13903
1084397;13818
1084406;13785
1084414;13586
1084422;13575
1084430;13520
1084438;13534
1084446;13509
1084455;13592
1084463;13645
1084471;13786
1084479;13771
1084487;13845
1084496;13839
1084504;13902
1084512;13870
1084520;13915
1084528;13810
1084537;13804
1084545;13699
1084553;13899
1084561;12244
1084569;8883
1084581;6979
1084589;11463
1084597;17336
1084605;16997
1084613;16038
1084622;15105
1084630;14476
1084638;14202
1084646;13817
1084654;13654
1084663;13504
1084671;13445
1084680;13287
1084688;13232
1084696;13070
1084705;13025
1084713;12837
1084721;12767
1084729;12584
1084737;12463
1084745;12188
1084754;11968
1084762;11629
1084770;11452
1084778;11192
1084786;11183
1084795;11153
1084803;11312
1084811;11462
1084819;11803
1084827;12168
1084836;12706
1084844;13103
1084852;13492
1084860;13693
1084871;13948
1084880;13993
1084888;14047
1084896;13957
1084904;13976
1084912;13869
1084921;13852
1084929;13750
1084937;13705
1084945;13576
1084953;13539
1084962;13459
1084970;13465
1084978;13348
1084986;13385
1084995;13336
1085004;13373
1085012;13326
1085020;13335
1085028;13199
1085036;13180
1085044;13050
1085053;13099
1085061;13036
1085069;13144
1085077;13195
1085085;13307
1085094;13382
1085102;13533
1085110;13563
1085118;13648
1085126;13564
1085135;13542
1085143;13476
1085154;13506
1085162;13365
1085170;13752
1085179;13005
1085187;9982
1085195;5853
1085203;5048
1085211;11458
1085220;15927
1085228;15641
1085236;14863
1085244;14367
1085252;14121
1085261;13778
1085269;13687
1085277;13529
1085285;13493
1085293;13366
1085302;13319
1085310;13209
1085318;13189
1085327;13059
1085335;13053
1085343;12937
1085352;12867
1085360;12637
1085368;12521
1085376;12293
1085384;12099
1085393;11872
1085401;11790
1085409;11723
1085417;11793
1085425;11901
1085437;12259
1085445;12661
1085453;13195
1085461;13532
1085469;13954
1085478;14164
1085486;14399
1085494;14484
1085502;14593
1085510;14515
1085519;14519
1085527;14427
1085535;14450
1085543;14366
1085551;14367
1085560;14318
1085568;14380
1085576;14276
1085584;14237
1085592;14156
1085601;14190
1085609;14097
1085617;14128
1085625;14067
1085634;14070
1085642;14049
1085651;14047
1085659;13990
1085667;13975
1085675;13895
1085683;13683
1085692;13536
1085700;13588
1085708;13627
1085719;13790
1085727;13851
1085736;13917
1085744;13978
1085752;14141
1085760;14075
1085768;14085
1085777;14048
1085785;14082
1085793;13988
1085801;13968
1085809;13827
1085818;14063
1085826;13872
1085834;11510
1085842;7261
1085850;5132
1085859;9547
1085867;16091
1085875;16194
1085883;15389
1085891;14794
1085900;14570
1085908;14226
1085916;14055
1085924;13940
1085932;13858
1085940;13774
1085949;13718
1085957;13636
1085966;13557
1085974;13441
1085982;13352
1085991;13271
1086001;13098
1086009;12936
1086018;12751
1086026;12443
1086035;12236
1086043;11922
1086051;11784
1086059;11682
1086067;11761
1086076;11797
1086084;12002
1086092;12314
1086100;12833
1086108;13306
1086117;13823
1086125;14126
1086133;14376
1086141;14474
1086149;14527
1086158;14534
1086166;14543
1086174;14482
1086182;14435
1086190;14381
1086199;14359
1086207;14277
1086215;14239
1086223;14195
1086231;14158
1086239;14115
1086248;14046
1086256;14077
1086264;14048
1086272;14014
1086281;13976
1086292;13921
1086300;13960
1086308;13930
1086316;13934
1086324;13845
1086334;13877
1086342;13846
1086350;13876
1086358;13782
1086366;13698
1086375;13464
1086383;13364
1086391;13326
1086399;13390
1086407;13389
1086416;13419
1086424;13455
1086432;13532
1086440;13617
1086448;13669
1086457;13650
1086465;13592
1086473;13545
1086481;13560
1086489;13561
1086498;13508
1086506;13476
1086514;13972
1086522;12809
1086530;9272
1086538;5863
1086547;6393
1086555;14027
1086563;16361
1086574;15416
1086583;14817
1086591;14533
1086599;14262
1086607;14039
1086615;13994
1086623;13925
1086632;13884
1086640;13799
1086649;13743
1086657;13672
1086665;13618
1086674;13515
1086682;13378
1086690;13233
1086698;13093
1086706;12893
1086715;12622
1086723;12348
1086731;12068
1086739;11872
1086747;11784
1086756;11775
1086764;11812
1086772;11923
1086780;12154
1086788;12560
1086797;12973
1086805;13445
1086813;13819
1086821;14212
1086829;14439
1086838;14604
1086846;14674
1086857;14743
1086865;14790
1086873;14730
1086882;14727
1086890;14704
1086898;14706
1086906;14660
1086914;14639
1086922;14590
1086931;14602
1086939;14611
1086947;14532
1086956;14512
1086964;14503
1086973;14474
1086981;14437
1086989;14432
1086997;14391
1087005;14389
1087014;14350
1087022;14372
1087030;14339
1087038;14353
1087046;14341
1087055;14330
1087063;14295
1087071;14256
1087079;14182
1087087;14056
1087096;13998
1087104;14025
1087112;14013
1087120;14068
1087128;14025
1087140;14196
1087148;14304
1087156;14383
1087164;14407
1087172;14401
1087181;14376
1087189;14378
1087197;14321
1087205;14265
1087213;14236
1087222;14224
1087230;14362
1087238;12694
1087246;9179
1087254;7518
1087262;9716
1087271;16874
1087280;17213
1087288;16281
1087296;15262
1087304;14686
1087313;14348
1087321;14088
1087329;13821
1087337;13706
1087345;13548
1087354;13538
1087362;13390
1087370;13384
1087378;13257
1087386;13212
1087395;13069
1087403;12982
1087411;12775
1087419;12644
1087430;12371
1087439;12158
1087447;11843
1087455;11632
1087463;11493
1087471;11483
1087480;11515
1087488;11641
1087496;11808
1087504;12232
1087512;12677
1087521;13127
1087529;13440
1087537;13768
1087545;13940
1087553;14136
1087561;14161
1087570;14217
1087578;14220
1087586;14263
1087594;14159
1087603;14184
1087612;14090
1087620;14072
1087628;13899
1087636;13882
1087644;13769
1087653;13768
1087661;13692
1087669;13684
1087677;13595
1087685;13657
1087694;13630
1087702;13717
1087713;13764
1087721;13877
1087729;13837
1087738;13820
1087746;13749
1087754;13751
1087762;13610
1087770;13506
1087779;13359
1087787;13366
1087795;13318
1087803;13331
1087811;13327
1087820;13492
1087828;13547
1087836;13628
1087844;13543
1087852;13529
1087860;13463
1087869;13518
1087877;13448
1087885;13471
1087893;13356
1087901;13361
1087910;13641
1087919;12205
1087927;8677
1087935;6794
1087943;8184
1087952;15536
1087960;16621
1087968;15833
1087976;14820
1087984;14205
1087996;13824
1088004;13582
1088012;13383
1088020;13326
1088028;13243
1088037;13245
1088045;13125
1088053;13060
1088061;13001
1088069;12969
1088078;12788
1088086;12657
1088094;12486
1088102;12306
1088110;11998
1088119;11710
1088127;11373
1088135;11191
1088143;11004
1088151;11012
1088159;11050
1088168;11240
1088176;11478
1088184;11993
1088192;12461
1088200;12978
1088209;13356
1088217;13725
1088225;13890
1088234;14062
1088242;14070
1088251;14134
1088259;14096
1088267;14127
1088278;14139
1088286;14214
1088295;14110
1088303;14060
1088311;13952
1088319;13937
1088327;13786
1088336;13776
1088344;13686
1088352;13698
1088360;13651
1088368;13659
1088377;13608
1088385;13686
1088393;13639
1088401;13727
1088409;13732
1088418;13810
1088426;13712
1088434;13711
1088442;13696
1088450;13734
1088458;13711
1088467;13715
1088475;13566
1088483;13450
1088491;13305
1088499;13325
1088508;13288
1088516;13389
1088524;13376
1088532;13463
1088541;13493
1088550;13647
1088560;13733
1088568;13839
1088576;13756
1088584;13765
1088594;13608
1088602;13609
1088610;13457
1088618;13881
1088626;12787
1088635;9560
1088643;5889
1088651;5968
1088659;12460
1088667;16116
1088676;15701
1088684;14888
1088692;14425
1088700;14164
1088708;13847
1088717;13714
1088725;13556
1088733;13532
1088741;13434
1088749;13413
1088758;13323
1088766;13256
1088774;13151
1088782;13123
1088790;12968
1088798;12916
1088807;12709
1088815;12547
1088823;12307
1088831;12061
1088839;11746
1088851;11574
1088859;11496
1088867;11513
1088875;11539
1088883;11763
1088892;12067
1088900;12645
1088908;13063
1088917;13565
1088925;13852
1088934;14110
1088942;14229
1088950;14373
1088958;14357
1088966;14384
1088975;14343
1088983;14356
1088991;14302
1088999;14364
1089007;14277
1089016;14295
1089024;14238
1089032;14231
1089040;14144
1089048;14150
1089057;14068
1089065;14107
1089073;14036
1089081;14043
1089089;14000
1089097;13981
1089106;13962
1089114;13986
1089122;13908
1089133;13948
1089142;13949
1089150;13957
1089158;13859
1089166;13842
1089174;13772
1089182;13834
1089191;13802
1089199;13855
1089207;13761
1089215;13687
1089224;13489
1089233;13450
1089241;13407
1089249;13465
1089257;13467
1089265;13505
1089274;13490
1089282;13588
1089290;13635
1089298;13769
1089306;13738
1089315;13762
1089323;13729
1089331;13719
1089339;13629
1089347;13587
1089356;13458
1089364;13667
1089372;12188
1089380;8682
1089388;5813
1089396;7166
1089405;14284
1089416;15921
1089424;15109
1089432;14563
1089441;14253
1089449;14025
1089457;13832
1089465;13786
1089473;13625
1089481;13571
1089490;13489
1089498;13504
1089506;13386
1089514;13322
1089522;13186
1089531;13144
1089539;13002
1089548;12871
1089556;12649
1089564;12470
1089573;12214
1089581;11975
1089589;11710
1089597;11547
1089605;11512
1089614;11551
1089622;11616
1089630;11847
1089638;12280
1089646;12801
1089655;13318
1089663;13765
1089671;14117
1089679;14342
1089687;14475
1089699;14624
1089707;14647
1089715;14624
1089723;14497
1089731;14455
1089740;14394
1089748;14374
1089756;14314
1089764;14331
1089772;14298
1089780;14304
1089789;14257
1089797;14257
1089805;14220
1089813;14151
1089821;14085
1089830;14080
1089838;14048
1089846;14076
1089854;14062
1089862;14080
1089871;14058
1089879;14061
1089888;14091
1089896;14056
1089904;14079
1089913;14094
1089921;14088
1089929;14089
1089937;14129
1089945;14060
1089954;14073
1089962;14042
1089970;14019
1089981;14097
1089989;14050
1089998;14021
1090006;13847
1090014;13740
1090022;13592
1090030;13629
1090039;13610
1090047;13660
1090055;13653
1090063;13676
1090071;13749
1090079;13871
1090088;13994
1090096;14004
1090104;13964
1090112;13918
1090120;13907
1090129;13878
1090137;13800
1090145;13705
1090153;13951
1090161;12717
1090170;9529
1090178;6510
1090186;7210
1090194;14245
1090203;16160
1090212;15436
1090220;14649
1090228;14358
1090236;14070
1090244;13815
1090253;13711
1090261;13594
1090272;13547
1090280;13542
1090288;13460
1090297;13412
1090305;13312
1090313;13197
1090321;13100
1090329;13021
1090338;12857
1090346;12659
1090354;12424
1090362;12141
1090370;11814
1090378;11520
1090387;11408
1090395;11373
1090403;11400
1090411;11487
1090419;11695
1090428;11999
1090436;12541
1090444;13057
1090452;13541
1090460;13904
1090469;14209
1090477;14345
1090485;14440
1090493;14460
1090501;14475
1090510;14422
1090519;14394
1090527;14321
1090535;14270
1090543;14174
1090554;14168
1090563;14186
1090571;14154
1090579;14140
1090587;14085
1090596;14013
1090604;13951
1090612;13929
1090620;13905
1090628;13873
1090637;13874
1090645;13826
1090653;13784
1090661;13794
1090669;13813
1090678;13802
1090686;13827
1090694;13790
1090702;13791
1090710;13755
1090718;13784
1090727;13793
1090735;13797
1090743;13765
1090751;13789
1090759;13759
1090768;13776
1090776;13683
1090784;13618
1090792;13474
1090800;13484
1090809;13514
1090818;13571
1090826;13589
1090836;13682
1090844;13782
1090853;13898
1090861;13983
1090870;14040
1090878;14009
1090886;14007
1090895;13995
1090903;13984
1090911;13955
1090919;13855
1090927;14161
1090936;13084
1090944;10077
1090952;7093
1090960;7332
1090968;14263
1090977;16690
1090985;15958
1090993;14991
1091001;14619
1091009;14335
1091017;14107
1091026;13957
1091034;13881
1091042;13762
1091050;13725
1091058;13646
1091067;13623
1091075;13515
1091083;13441
1091091;13316
1091099;13220
1091108;13069
1091119;12920
1091127;12727
1091135;12454
1091143;12111
1091152;11810
1091160;11565
1091168;11490
1091176;11497
1091184;11566
1091193;11734
1091202;12079
1091210;12542
1091218;13044
1091226;13522
1091235;13930
1091243;14204
1091251;14479
1091259;14579
1091267;14675
1091276;14682
1091284;14720
1091292;14677
1091300;14641
1091308;14569
1091316;14570
1091325;14498
1091333;14509
1091341;14436
1091349;14411
1091357;14307
1091366;14258
1091374;14165
1091382;14210
1091390;14195
1091401;14252
1091410;14226
1091418;14163
1091426;14127
1091434;14132
1091442;14113
1091451;14109
1091459;14044
1091467;14027
1091475;13964
1091483;13987
1091492;13968
1091500;13961
1091508;13953
1091517;13976
1091525;13936
1091534;13924
1091542;13786
1091550;13670
1091558;13576
1091566;13664
1091575;13677
1091583;13725
1091591;13671
1091599;13763
1091607;13825
1091615;13947
1091624;13896
1091632;13946
1091640;13894
1091648;13935
1091656;13848
1091665;13854
1091673;13745
1091684;13996
1091692;12492
1091700;9265
1091709;7613
1091717;9373
1091725;16335
1091733;16951
1091741;15880
1091750;14871
1091758;14257
1091766;13995
1091774;13597
1091782;13417
1091791;13235
1091799;13167
1091807;13086
1091815;13034
1091823;12846
1091832;12776
1091840;12624
1091848;12615
1091857;12426
1091865;12283
1091874;12107
1091882;11932
1091890;11627
1091898;11384
1091906;11040
1091914;10858
1091923;10720
1091931;10802
1091939;10946
1091947;11161
1091955;11416
1091964;11885
1091975;12619
1091983;13134
1091991;13411
1091999;13679
1092008;13764
1092016;13860
1092024;13835
1092032;13885
1092040;13837
1092049;13851
1092057;13757
1092065;13757
1092073;13695
1092081;13716
1092090;13643
1092098;13640
1092106;13570
1092114;13589
1092122;13516
1092131;13560
1092139;13495
1092147;13524
1092155;13456
1092163;13478
1092172;13460
1092181;13529
1092189;13496
1092197;13553
1092205;13531
1092214;13580
1092222;13542
1092230;13602
1092238;13580
1092246;13567
1092258;13451
1092266;13472
1092274;13308
1092282;13307
1092290;13269
1092298;13386
1092307;13439
1092315;13562
1092323;13603
1092331;13715
1092339;13717
1092348;13749
1092356;13698
1092364;13739
1092372;13672
1092380;13669
1092389;13520
1092397;13931
1092405;12734
1092413;9525
1092421;6352
1092430;6851
1092438;13993
1092446;16441
1092454;15668
1092462;14783
1092471;14360
1092479;14108
1092487;13827
1092495;13755
1092504;13659
1092513;13622
1092521;13575
1092529;13557
1092539;13502
1092547;13552
1092557;13391
1092565;13288
1092573;13129
1092581;13024
1092589;12763
1092598;12601
1092606;12349
1092614;12120
1092622;11837
1092630;11687
1092638;11598
1092647;11680
1092655;11764
1092663;12018
1092671;12334
1092679;12848
1092688;13300
1092696;13798
1092704;14097
1092712;14409
1092720;14535
1092729;14638
1092737;14619
1092745;14616
1092753;14560
1092761;14570
1092770;14498
1092778;14457
1092786;14347
1092794;14335
1092802;14352
1092810;14309
1092822;14288
1092830;14368
1092838;14285
1092846;14319
1092855;14276
1092863;14264
1092872;14195
1092880;14189
1092888;14101
1092897;14108
1092905;14018
1092913;14052
1092921;14007
1092929;14018
1092937;13962
1092946;13955
1092954;13898
1092962;13910
1092970;13783
1092978;13675
1092987;13507
1092995;13542
1093003;13550
1093011;13621
1093019;13597
1093028;13641
1093036;13685
1093044;13759
1093052;13770
1093060;13752
1093069;13674
1093077;13683
1093085;13652
1093093;13622
1093101;13591
1093113;13654
1093121;13780
1093129;12067
1093137;8415
1093145;6152
1093154;8810
1093162;15931
1093170;16364
1093178;15467
1093186;14618
1093196;14376
1093204;14020
1093212;13817
1093220;13659
1093228;13612
1093236;13530
1093245;13518
1093253;13479
1093261;13454
1093269;13381
1093277;13320
1093286;13198
1093294;13034
1093302;12824
1093310;12631
1093318;12321
1093327;12043
1093335;11852
1093343;11667
1093351;11494
1093359;11408
1093368;11417
1093376;11516
1093384;11698
1093395;12208
1093403;12691
1093412;13167
1093420;13522
1093428;13913
1093436;14112
1093444;14332
1093453;14376
1093461;14431
1093469;14430
1093477;14449
1093485;14381
1093494;14338
1093502;14294
1093511;14279
1093519;14187
1093527;14103
1093535;14051
1093544;14046
1093552;14011
1093560;13976
1093568;13964
1093576;13972
1093585;13989
1093593;14018
1093601;13980
1093609;13951
1093617;13998
1093626;14005
1093634;14009
1093642;13994
1093650;14015
1093658;14044
1093667;14101
1093678;14098
1093686;14019
1093694;13821
1093702;13737
1093711;13737
1093719;13737
1093727;13727
1093735;13670
1093743;13699
1093752;13820
1093760;13915
1093768;13921
1093776;13879
1093784;13848
1093793;13824
1093801;13810
1093809;13746
1093817;13661
1093825;13794
1093833;13621
1093843;11487
1093851;7845
1093859;6072
1093867;10209
1093875;16324
1093884;16262
1093892;15264
1093900;14556
1093908;14267
1093916;13950
1093925;13673
1093933;13620
1093941;13544
1093949;13514
1093960;13451
1093969;13441
1093977;13381
1093985;13277
1093993;13174
1094001;13024
1094010;12858
1094018;12701
1094026;12455
1094034;12231
1094042;11939
1094051;11688
1094059;11493
1094067;11420
1094075;11436
1094083;11523
1094092;11677
1094100;11962
1094108;12318
1094116;12822
1094124;13288
1094132;13699
1094141;13991
1094149;14268
1094158;14398
1094166;14497
1094174;14496
1094183;14559
1094191;14451
1094199;14438
1094207;14391
1094215;14370
1094224;14254
1094232;14254
1094243;14222
1094251;14252
1094259;14159
1094268;14104
1094276;14096
1094284;14074
1094292;14029
1094300;14032
1094309;14004
1094317;14018
1094325;13978
1094333;13983
1094341;13923
1094350;13969
1094358;13964
1094366;14009
1094374;13995
1094382;13931
1094391;13777
1094399;13598
1094407;13515
1094415;13568
1094423;13602
1094431;13631
1094440;13655
1094448;13739
1094456;13795
1094464;13853
1094472;13820
1094482;13856
1094490;13768
1094498;13780
1094506;13685
1094514;13649
1094523;13504
1094533;13968
1094542;12790
1094550;9526
1094558;6496
1094567;7164
1094575;14581
1094583;16534
1094591;15656
1094599;14717
1094608;14275
1094616;14012
1094624;13688
1094632;13603
1094640;13497
1094649;13444
1094657;13308
1094665;13276
1094673;13184
1094681;13165
1094690;13016
1094698;12943
1094706;12787
1094714;12678
1094722;12419
1094730;12260
1094739;12027
1094747;11814
1094755;11561
1094763;11471
1094771;11358
1094780;11454
1094788;11522
1094796;11760
1094804;12021
1094815;12666
1094824;13136
1094832;13564
1094840;13861
1094848;14123
1094856;14236
1094866;14343
1094874;14325
1094882;14392
1094890;14356
1094898;14361
1094907;14298
1094915;14301
1094923;14214
1094931;14211
1094939;14133
1094948;14125
1094956;14038
1094964;14076
1094972;14040
1094980;14092
1094989;14049
1094997;14130
1095005;14103
1095013;14120
1095021;14102
1095030;14195
1095038;14167
1095046;14258
1095054;14207
1095062;14189
1095070;13973
1095079;13868
1095087;13722
1095098;13847
1095106;13852
1095114;13945
1095123;13991
1095131;14099
1095139;14123
1095147;14179
1095155;14097
1095164;14143
1095173;14082
1095181;14087
1095189;13962
1095197;13956
1095206;13796
1095214;14270
1095222;13232
1095230;10133
1095238;6922
1095247;7010
1095255;14297
1095263;16907
1095271;16040
1095279;15086
1095288;14510
1095296;14243
1095304;13907
1095312;13832
1095320;13720
1095329;13672
1095337;13560
1095345;13533
1095353;13397
1095361;13353
1095369;13232
1095381;13218
1095389;13045
1095397;12907
1095405;12676
1095414;12480
1095422;12177
1095430;11985
1095438;11738
1095446;11647
1095454;11552
1095463;11644
1095471;11757
1095479;12010
1095487;12225
1095496;12726
1095505;13127
1095513;13649
1095521;13982
1095529;14246
1095537;14336
1095546;14471
1095554;14504
1095562;14580
1095570;14544
1095578;14541
1095587;14462
1095595;14463
1095603;14343
1095611;14335
1095619;14217
1095628;14240
1095636;14192
1095644;14188
1095652;14126
1095663;14186
1095672;14151
1095680;14167
1095688;14083
1095696;14122
1095704;14074
1095713;14122
1095721;14062
1095729;14079
1095737;13982
1095745;13895
1095753;13753
1095762;13760
1095770;13737
1095778;13799
1095786;13819
1095794;13998
1095803;14040
1095812;14176
1095820;14142
1095828;14233
1095836;14151
1095845;14140
1095853;14065
1095861;14078
1095869;13950
1095877;13855
1095886;14034
1095894;13563
1095902;10922
1095910;7439
1095918;6270
1095927;12176
1095935;16916
1095943;16244
1095954;14917
1095962;14401
1095971;14028
1095979;13730
1095987;13513
1095995;13422
1096003;13268
1096012;13226
1096020;13120
1096028;13106
1096036;13003
1096044;12950
1096052;12784
1096061;12732
1096069;12543
1096077;12402
1096085;12137
1096093;11906
1096102;11586
1096110;11386
1096118;11218
1096126;11189
1096134;11211
1096144;11353
1096152;11538
1096160;11895
1096168;12276
1096176;12758
1096185;13206
1096193;13593
1096201;13810
1096209;13943
1096217;14006
1096226;14082
1096237;14167
1096245;14269
1096253;14188
1096261;14183
1096270;14064
1096278;14060
1096286;13998
1096294;13984
1096302;13867
1096311;13860
1096319;13793
1096327;13835
1096335;13826
1096343;13847
1096351;13838
1096360;13863
1096368;13800
1096376;13822
1096384;13789
1096392;13791
1096401;13741
1096409;13705
1096417;13600
1096425;13515
1096433;13514
1096442;13558
1096450;13605
1096458;13673
1096467;13686
1096475;13798
1096484;13822
1096492;13867
1096500;13810
1096508;13787
1096519;13835
1096528;13910
1096536;13781
1096544;13729
1096552;13970
1096560;13608
1096569;10908
1096577;7144
1096585;5682
1096593;11319
1096601;16418
1096610;16098
1096618;15106
1096626;14512
1096634;14205
1096642;13895
1096650;13689
1096659;13594
1096667;13455
1096675;13421
1096683;13310
1096691;13287
1096700;13205
1096708;13125
1096716;12995
1096724;12876
1096732;12731
1096741;12583
1096749;12399
1096757;12159
1096765;11909
1096773;11720
1096782;11535
1096791;11474
1096801;11580
1096809;11775
1096817;11892
1096826;12201
1096834;12536
1096843;13022
1096851;13427
1096859;13799
1096868;14047
1096876;14238
1096884;14302
1096892;14340
1096900;14312
1096909;14326
1096917;14274
1096925;14254
1096933;14261
1096941;14246
1096950;14149
1096958;14166
1096966;14104
1096974;14110
1096982;14108
1096990;14108
1096999;14054
1097007;14040
1097015;14034
1097023;14009
1097031;14032
1097040;14050
1097048;14041
1097056;14014
1097064;13960
1097072;13823
1097084;13678
1097092;13709
1097100;13646
1097108;13664
1097116;13665
1097125;13780
1097133;13834
1097141;13971
1097150;13997
1097158;14017
1097167;13992
1097175;13993
1097183;13991
1097191;14003
1097199;13938
1097208;13872
1097216;13997
1097224;13925
1097232;11767
1097240;7977
1097249;5946
1097257;10216
1097265;16529
1097273;16468
1097281;15521
1097289;14767
1097298;14539
1097306;14175
1097314;13976
1097322;13858
1097330;13764
1097339;13703
1097347;13634
1097355;13568
1097363;13487
1097374;13422
1097383;13304
1097391;13116
1097399;12921
1097407;12711
1097415;12423
1097424;12174
1097432;11868
1097440;11665
1097448;11520
1097456;11490
1097466;11541
1097474;11629
1097482;11776
1097490;12094
1097498;12472
1097507;12904
1097515;13357
1097523;13743
1097531;14003
1097539;14199
1097548;14364
1097556;14432
1097564;14453
1097572;14443
1097580;14397
1097588;14355
1097597;14362
1097605;14286
1097613;14281
1097621;14242
1097629;14220
1097638;14155
1097646;14094
1097657;14090
1097665;14085
1097673;14029
1097682;13961
1097690;13960
1097698;13921
1097706;13908
1097714;13918
1097723;13896
1097731;13905
1097739;13878
1097747;13786
1097755;13618
1097764;13480
1097772;13500
1097781;13528
1097789;13567
1097797;13641
1097806;13687
1097814;13793
1097822;13899
1097830;13940
1097838;13940
1097847;13987
1097855;13934
1097863;13940
1097871;13908
1097879;13842
1097887;13709
1097896;13964
1097904;13578
1097912;11131
1097920;7374
1097928;5837
1097940;14077
1097948;16736
1097956;15908
1097964;14919
1097972;14429
1097981;14117
1097989;13837
1097997;13669
1098005;13522
1098013;13447
1098022;13377
1098030;13307
1098038;13282
1098046;13260
1098054;13160
1098063;13104
1098071;13011
1098079;12888
1098087;12661
1098095;12472
1098105;12213
1098113;11963
1098121;11721
1098129;11607
1098137;11518
1098146;11590
1098154;11687
1098162;11881
1098170;12145
1098178;12598
1098186;13043
1098195;13489
1098203;13790
1098211;14084
1098222;14355
1098231;14507
1098239;14548
1098247;14557
1098255;14513
1098263;14486
1098271;14448
1098280;14401
1098288;14317
1098296;14290
1098304;14214
1098312;14197
1098321;14112
1098329;14096
1098337;14042
1098345;14054
1098353;14040
1098362;14103
1098370;14094
1098378;14150
1098386;14098
1098394;14087
1098403;14043
1098411;13964
1098420;13747
1098428;13636
1098436;13585
1098445;13613
1098453;13611
1098461;13718
1098469;13774
1098477;13938
1098486;13966
1098494;14005
1098505;13986
1098513;14065
1098521;14053
1098530;14044
1098538;13974
1098546;13906
1098554;13866
1098562;14134
1098570;12470
1098579;8967
1098587;6408
1098595;8677
1098603;16198
1098611;16773
1098620;15860
1098628;14927
1098636;14550
1098644;14301
1098652;13992
1098661;13911
1098669;13792
1098677;13756
1098685;13629
1098693;13587
1098702;13507
1098710;13494
1098718;13348
1098726;13282
1098734;13122
1098744;13058
1098752;12833
1098760;12657
1098768;12377
1098776;12181
1098785;11981
1098804;12200
1098812;12326
1098820;12354
1098829;12559
1098837;12805
1098845;13236
1098853;13594
1098861;13961
1098870;14193
1098878;14443
1098886;14533
1098894;14622
1098902;14606
1098910;14633
1098919;14602
1098927;14639
1098935;14577
1098943;14563
1098951;14416
1098960;14422
1098968;14389
1098976;14424
1098984;14355
1098992;14337
1099001;14260
1099009;14318
1099017;14311
1099025;14341
1099033;14268
1099042;14290
1099051;14099
1099059;13975
1099067;13846
1099075;13862
1099086;13901
1099095;14030
1099103;14064
1099111;14170
1099119;14193
1099128;14244
1099136;14154
1099144;14181
1099152;14139
1099160;14124
1099169;14049
1099177;13995
1099185;13899
1099193;13846
1099201;14140
1099209;13008
1099218;9760
1099226;7110
1099234;7542
1099242;15209
1099250;17239
1099259;16339
1099267;15283
1099275;14612
1099283;14251
1099291;13951
1099300;13672
1099308;13581
1099316;13462
1099324;13392
1099332;13240
1099341;13199
1099349;13087
1099357;13023
1099368;12835
1099376;12711
1099385;12467
1099393;12280
1099401;11942
1099409;11683
1099418;11357
1099427;11142
1099435;10986
1099443;11001
1099451;11083
1099459;11297
1099468;11521
1099476;11966
1099484;12423
1099492;12940
1099500;13318
1099508;13670
1099517;13785
1099525;13900
1099533;13889
1099541;13953
1099549;13947
1099558;13942
1099566;13814
1099574;13780
1099582;13699
1099590;13699
1099599;13624
1099607;13586
1099615;13542
1099623;13540
1099631;13440
1099640;13413
1099651;13445
1099659;13540
1099667;13484
1099675;13489
1099684;13391
1099692;13411
1099700;13364
1099708;13433
1099717;13356
1099726;13420
1099734;13339
1099742;13265
1099750;13067
1099758;13083
1099767;13045
1099775;13152
1099783;13106
1099791;13203
1099799;13233
1099807;13367
1099816;13440
1099824;13540
1099832;13523
1099840;13531
1099848;13476
1099857;13473
1099865;13403
1099873;13368
1099881;13654
1099889;13309
1099898;10665
1099906;6766
1099914;5253
1099922;10325
1099933;16225
1099942;15725
1099950;14778
1099958;14430
1099966;14061
1099974;13889
1099983;13789
1099991;13710
1099999;13597
1100007;13565
1100016;13466
1100025;13452
1100033;13320
1100041;13263
1100049;13150
1100057;13051
1100066;12877
1100074;12735
1100082;12445
1100090;12277
1100098;12030
1100106;11845
1100115;11688
1100123;11681
1100131;11679
1100139;11807
1100147;11975
1100156;12290
1100164;12687
1100172;13169
1100180;13615
1100188;13984
1100197;14260
1100205;14461
1100213;14572
1100224;14711
1100232;14719
1100241;14692
1100249;14584
1100257;14553
1100265;14467
1100273;14462
1100282;14419
1100290;14433
1100298;14389
1100307;14372
1100315;14290
1100324;14288
1100332;14226
1100340;14191
1100348;14164
1100356;14204
1100365;14184
1100373;14261
1100381;14231
1100389;14222
1100397;14180
1100406;14132
1100414;13879
1100422;13747
1100430;13743
1100438;13805
1100446;13804
1100455;13817
1100463;13876
1100471;13961
1100479;14092
1100487;14147
1100496;14127
1100507;14126
1100515;14109
1100523;14132
1100531;14038
1100540;14032
1100548;13919
1100556;14350
1100564;12959
1100572;9327
1100581;5890
1100589;7102
1100597;15085
1100605;16528
1100613;15697
1100622;14895
1100631;14544
1100639;14241
1100647;13996
1100655;13876
1100664;13765
1100672;13649
1100680;13536
1100688;13453
1100696;13357
1100705;13243
1100713;13119
1100721;12990
1100729;12865
1100737;12700
1100745;12494
1100754;12236
1100762;12004
1100770;11785
1100778;11607
1100790;11598
1100798;11640
1100806;11729
1100814;11834
1100822;12086
1100830;12439
1100839;12932
1100847;13398
1100855;13820
1100863;14046
1100871;14273
1100880;14412
1100888;14483
1100896;14444
1100904;14407
1100912;14335
1100921;14303
1100929;14251
1100938;14234
1100946;14192
1100954;14140
1100963;14038
1100971;13961
1100979;13968
1100987;13934
1100995;13896
1101004;13863
1101012;13858
1101020;13827
1101028;13818
1101036;13802
1101044;13830
1101053;13844
1101061;13880
1101072;13924
1101080;13888
1101089;13732
1101097;13555
1101105;13560
1101113;13583
1101121;13615
1101129;13599
1101138;13659
1101146;13725
1101154;13864
1101162;13930
1101170;13954
1101179;13964
1101187;13955
1101195;13928
1101203;13924
1101211;13903
1101220;13821
1101228;14045
1101236;13853
1101244;11603
1101252;7817
1101261;6055
1101270;10694
1101278;16734
1101286;16554
1101294;15612
1101303;14934
1101311;14715
1101319;14344
1101327;14199
1101335;14073
1101343;14006
1101355;13964
1101363;13903
1101371;13808
1101379;13727
1101388;13642
1101396;13537
1101404;13425
1101412;13248
1101420;13024
1101428;12770
1101437;12484
1101445;12241
1101453;11970
1101461;11812
1101469;11704
1101478;11726
1101486;11810
1101494;12000
1101502;12276
1101510;12710
1101519;13120
1101527;13606
1101535;13965
1101543;14267
1101551;14461
1101560;14639
1101568;14646
1101576;14659
1101584;14595
1101593;14602
1101602;14559
1101610;14522
1101618;14423
1101626;14423
1101634;14352
1101646;14393
1101654;14407
1101662;14387
1101670;14348
1101678;14344
1101687;14301
1101695;14305
1101703;14316
1101711;14329
1101719;14310
1101727;14309
1101736;14332
1101744;14340
1101752;14261
1101760;14215
1101768;14094
1101777;13925
1101785;13844
1101793;13910
1101801;13924
1101809;13983
1101818;13971
1101826;14062
1101834;14125
1101842;14222
1101850;14136
1101859;14134
1101867;14060
1101875;14085
1101883;14051
1101891;14061
1101901;13945
1101909;13898
1101917;14154
1101927;11666
1101935;8246
1101944;6825
1101952;11407
1101961;17180
1101969;16722
1101977;15706
1101986;14750
1101994;14430
1102002;14125
1102010;13856
1102018;13671
1102026;13570
1102035;13454
1102043;13429
1102051;13336
1102059;13273
1102067;13137
1102076;13072
1102084;12923
1102092;12789
1102100;12628
1102108;12484
1102117;12233
1102125;12035
1102133;11773
1102141;11609
1102149;11466
1102158;11527
1102166;11575
1102174;11748
1102182;11905
1102190;12292
1102199;12701
1102210;13366
1102218;13779
1102226;14037
1102234;14189
1102243;14292
1102251;14272
1102259;14352
1102268;14370
1102276;14364
1102285;14300
1102293;14272
1102301;14163
1102309;14079
1102317;13993
1102326;13968
1102334;13880
1102342;13859
1102350;13816
1102358;13866
1102366;13867
1102375;13960
1102383;13903
1102391;13869
1102399;13798
1102407;13683
1102416;13498
1102424;13489
1102432;13423
1102440;13468
1102448;13498
1102457;13608
1102465;13645
1102473;13813
1102481;13808
1102492;13860
1102501;13865
1102509;13893
1102517;13820
1102525;13815
1102533;13722
1102542;13626
1102550;13720
1102558;13596
1102566;11419
1102575;7790
1102584;6026
1102592;10347
1102600;16611
1102608;16409
1102616;15437
1102625;14587
1102633;14103
1102641;13774
1102649;13456
1102657;13362
1102665;13208
1102674;13203
1102682;13128
1102690;13114
1102698;12981
1102706;12917
1102715;12755
1102723;12675
1102731;12477
1102739;12391
1102747;12196
1102756;12008
1102764;11736
1102775;11501
1102783;11330
1102791;11246
1102800;11229
1102808;11345
1102816;11467
1102824;11822
1102832;12239
1102841;12760
1102849;13134
1102857;13514
1102865;13746
1102873;13966
1102882;13993
1102891;14058
1102899;14044
1102907;14102
1102915;14033
1102924;14033
1102932;13958
1102940;13957
1102948;13899
1102956;13898
1102964;13796
1102973;13758
1102981;13692
1102989;13677
1102997;13589
1103005;13612
1103014;13537
1103022;13589
1103030;13600
1103038;13683
1103046;13666
1103055;13678
1103066;13702
1103074;13687
1103082;13559
1103090;13517
1103099;13513
1103107;13571
1103115;13593
1103123;13694
1103131;13757
1103140;13899
1103148;13923
1103156;13997
1103164;13988
1103172;14012
1103181;13955
1103189;13958
1103197;13854
1103205;13786
1103214;13884
1103223;13621
1103231;11004
1103239;7033
1103247;5335
1103255;9976
1103263;15969
1103272;16080
1103280;15192
1103288;14605
1103296;14276
1103304;13966
1103313;13755
1103321;13676
1103329;13654
1103337;13611
1103348;13593
1103357;13621
1103365;13494
1103373;13448
1103381;13276
1103389;13176
1103398;12999
1103406;12850
1103414;12570
1103422;12355
1103430;11989
1103439;11775
1103447;11558
1103455;11495
1103463;11444
1103471;11570
1103480;11674
1103488;12010
1103496;12443
1103504;12991
1103512;13415
1103521;13838
1103529;14050
1103537;14245
1103546;14314
1103554;14307
1103562;14327
1103571;14329
1103579;14251
1103587;14199
1103595;14132
1103603;14106
1103612;14071
1103620;14050
1103631;14102
1103639;14209
1103647;14172
1103656;14199
1103664;14113
1103672;14145
1103680;14099
1103688;14097
1103697;14081
1103705;14133
1103713;14117
1103721;14132
1103729;14085
1103738;14111
1103746;13991
1103754;13802
1103762;13608
1103770;13610
1103779;13613
1103787;13649
1103795;13640
1103803;13705
1103811;13786
1103820;13863
1103828;13887
1103836;13915
1103844;13886
1103852;13870
1103860;13812
1103870;13752
1103878;13659
1103886;13555
1103894;13716
1103902;13585
1103913;9952
1103921;6430
1103930;6018
1103938;12733
1103946;16378
1103955;15930
1103963;15017
1103971;14637
1103979;14341
1103987;14110
1103996;13903
1104004;13799
1104012;13670
1104020;13595
1104028;13521
1104037;13499
1104045;13410
1104053;13320
1104061;13190
1104069;13089
1104078;12897
1104086;12666
1104094;12490
1104102;12267
1104110;11992
1104119;11766
1104127;11625
1104135;11582
1104143;11683
1104151;11826
1104159;12015
1104168;12271
1104176;12650
1104184;13134
1104195;13796
1104204;14261
1104212;14442
1104220;14592
1104228;14650
1104236;14702
1104246;14677
1104254;14669
1104262;14593
1104270;14560
1104278;14488
1104286;14445
1104295;14405
1104303;14338
1104311;14283
1104319;14287
1104327;14234
1104336;14232
1104344;14183
1104352;14134
1104360;14157
1104368;14139
1104377;14117
1104385;14111
1104393;14115
1104401;14074
1104409;14059
1104418;14053
1104426;14004
1104434;13930
1104442;13841
1104450;13610
1104458;13666
1104467;13740
1104475;13809
1104486;13928
1104494;14030
1104503;14108
1104511;14124
1104519;14133
1104527;14104
1104535;14060
1104543;13998
1104553;13948
1104561;13839
1104569;13737
1104577;13582
1104585;13660
1104594;13590
1104602;11576
1104610;7826
1104618;5682
1104626;9014
1104635;15813
1104643;16061
1104651;15162
1104659;14431
1104667;14092
1104676;13731
1104684;13553
1104692;13471
1104700;13416
1104708;13347
1104717;13220
1104725;13185
1104733;13089
1104741;13015
1104749;12906
1104758;12823
1104769;12714
1104777;12597
1104785;12379
1104793;12153
1104802;11934
1104810;11648
1104818;11460
1104826;11355
1104834;11326
1104842;11427
1104851;11571
1104859;11862
1104867;12259
1104875;12780
1104884;13259
1104893;13653
1104901;14011
1104909;14223
1104917;14342
1104925;14425
1104934;14379
1104942;14392
1104950;14361
1104958;14324
1104966;14283
1104975;14303
1104983;14250
1104991;14228
1104999;14181
1105007;14220
1105016;14181
1105024;14201
1105032;14137
1105040;14137
1105051;14146
1105060;14178
1105068;14130
1105076;14122
1105084;14105
1105092;14099
1105101;14111
1105109;14087
1105117;14047
1105125;14020
1105133;13929
1105142;13849
1105150;13694
1105158;13547
1105166;13483
1105174;13454
1105182;13457
1105191;13501
1105199;13500
1105208;13573
1105216;13641
1105224;13754
1105233;13754
1105241;13758
1105249;13677
1105257;13702
1105265;13681
1105274;13636
1105282;13564
1105290;13453
1105298;13806
1105306;12716
1105315;9412
1105323;6239
1105334;8919
1105342;16087
1105350;16372
1105359;15440
1105367;14633
1105375;14371
1105383;14033
1105391;13808
1105400;13658
1105408;13596
1105416;13526
1105424;13494
1105432;13386
1105441;13327
1105449;13223
1105457;13151
1105465;13025
1105473;12917
1105481;12694
1105490;12548
1105498;12358
1105506;12167
1105514;11916
1105523;11749
1105532;11614
1105540;11639
1105548;11715
1105556;11850
1105564;12034
1105573;12399
1105581;12810
1105589;13321
1105597;13728
1105605;14089
1105614;14315
1105625;14656
1105633;14776
1105641;14816
1105649;14743
1105658;14716
1105666;14594
1105674;14575
1105682;14474
1105690;14438
1105699;14388
1105707;14403
1105715;14342
1105723;14306
1105731;14284
1105740;14259
1105748;14207
1105756;14241
1105764;14249
1105772;14258
1105780;14242
1105789;14241
1105797;14206
1105805;14296
1105813;14258
1105821;14204
1105830;14084
1105838;13980
1105847;13790
1105855;13765
1105863;13696
1105872;13740
1105880;13781
1105888;13896
1105896;13952
1105907;14095
1105916;14057
1105924;14105
1105932;14142
1105940;14107
1105948;14030
1105957;14014
1105965;13922
1105973;13834
1105981;14167
1105989;12991
1105998;9786
1106006;7159
1106014;7810
1106022;15432
1106030;17259
1106039;16313
1106047;15226
1106055;14623
1106063;14389
1106071;14143
1106079;13872
1106088;13815
1106096;13741
1106104;13743
1106112;13634
1106120;13625
1106129;13518
1106137;13455
1106145;13391
1106153;13348
1106161;13138
1106171;12986
1106179;12709
1106189;12500
1106197;12251
1106205;11993
1106214;11810
1106223;11798
1106231;11806
1106239;11913
1106247;12068
1106256;12457
1106264;12845
1106272;13389
1106280;13776
1106288;14119
1106297;14314
1106305;14566
1106313;14608
1106321;14669
1106329;14666
1106338;14745
1106346;14655
1106354;14628
1106362;14560
1106370;14531
1106378;14459
1106387;14419
1106395;14347
1106403;14342
1106411;14271
1106419;14291
1106428;14232
1106436;14237
1106444;14158
1106452;14173
1106460;14098
1106472;13972
1106480;13867
1106488;13814
1106496;13720
1106504;13742
1106513;13731
1106521;13820
1106530;13912
1106538;14041
1106546;14025
1106555;14024
1106563;13953
1106571;13948
1106579;13896
1106587;13908
1106596;13774
1106604;13712
1106612;13601
1106620;13972
1106628;12669
1106637;9418
1106645;7108
1106653;8080
1106661;15398
1106669;17286
1106678;16276
1106686;15301
1106694;14429
1106702;14085
1106710;13716
1106718;13468
1106727;13290
1106735;13231
1106743;13101
1106754;13049
1106762;12988
1106771;12922
1106779;12769
1106787;12704
1106795;12539
1106803;12421
1106812;12165
1106820;11987
1106828;11679
1106836;11464
1106844;11209
1106854;11129
1106862;11056
1106870;11201
1106878;11309
1106886;11573
1106895;11882
1106903;12382
1106911;12853
1106919;13293
1106927;13581
1106936;13858
1106944;13935
1106952;14033
1106960;14036
1106968;14032
1106977;13971
1106985;13933
1106993;13867
1107001;13845
1107009;13729
1107017;13676
1107026;13613
1107034;13573
1107045;13595
1107053;13654
1107062;13552
1107070;13598
1107078;13529
1107086;13550
1107094;13509
1107102;13525
1107111;13497
1107119;13478
1107127;13399
1107135;13315
1107143;13168
1107152;13120
1107161;13117
1107169;13190
1107177;13214
1107185;13347
1107194;13428
1107202;13582
1107210;13602
1107218;13673
1107226;13647
1107235;13614
1107243;13506
1107251;13477
1107259;13401
1107267;13330
1107276;13606
1107284;13240
1107292;10417
1107300;6354
1107308;5143
1107316;10378
1107328;16240
1107336;15852
1107344;14925
1107352;14528
1107361;14157
1107369;13920
1107377;13747
1107385;13646
1107393;13526
1107401;13500
1107410;13425
1107418;13433
1107426;13360
1107434;13322
1107442;13188
1107451;13094
1107459;12947
1107467;12775
1107475;12542
1107483;12349
1107493;12092
1107501;11926
1107509;11729
1107517;11641
1107525;11667
1107534;11707
1107542;11887
1107550;12203
1107558;12647
1107566;13085
1107575;13517
1107583;13875
1107591;14156
1107599;14272
1107610;14407
1107619;14518
1107627;14429
1107635;14402
1107643;14299
1107651;14252
1107660;14183
1107668;14169
1107676;14081
1107684;14078
1107692;14077
1107700;14098
1107709;14072
1107717;14052
1107725;14049
1107733;14030
1107741;13953
1107750;13957
1107758;13927
1107766;13925
1107774;13900
1107782;13896
1107791;13882
1107799;13826
1107808;13731
1107816;13555
1107824;13462
1107833;13443
1107841;13536
1107849;13585
1107857;13607
1107865;13650
1107874;13759
1107882;13883
1107893;13985
1107901;14079
1107909;14013
1107918;13960
1107926;13931
1107934;13914
1107942;13839
1107950;13837
1107959;14108
1107967;12434
1107975;8616
1107983;5749
1107991;7725
1107999;15246
1108008;16538
1108016;15812
1108024;15058
1108032;14751
1108040;14412
1108049;14199
1108057;14112
1108065;14027
1108073;13962
1108081;13917
1108090;13882
1108098;13791
1108106;13655
1108114;13476
1108122;13384
1108131;13229
1108139;13106
1108147;12914
1108156;12701
1108164;12429
1108175;12200
1108183;12037
1108191;11894
1108200;11863
1108208;11885
1108217;11977
1108225;12190
1108233;12557
1108241;13017
1108249;13505
1108258;13912
1108266;14214
1108274;14412
1108282;14533
1108290;14579
1108298;14594
1108307;14577
1108315;14553
1108323;14508
1108331;14461
1108339;14397
1108348;14334
1108356;14308
1108364;14252
1108372;14205
1108380;14181
1108389;14185
1108397;14103
1108405;14085
1108413;14004
1108421;13985
1108430;13934
1108438;13939
1108446;13919
1108454;13949
1108465;13972
1108474;13992
1108482;13942
1108490;13925
1108498;13813
1108507;13670
1108516;13465
1108524;13412
1108532;13440
1108540;13516
1108548;13539
1108557;13604
1108565;13639
1108573;13717
1108581;13781
1108589;13795
1108598;13768
1108606;13775
1108614;13773
1108622;13839
1108630;13797
1108638;13739
1108647;13588
1108655;13994
1108663;13001
1108671;9864
1108679;6279
1108688;6147
1108696;12995
1108704;16367
1108712;15807
1108720;14923
1108729;14480
1108737;14212
1108748;13896
1108756;13802
1108764;13716
1108773;13619
1108781;13534
1108789;13414
1108797;13306
1108805;13218
1108814;13107
1108822;13015
1108831;12841
1108839;12721
1108847;12584
1108856;12393
1108864;12132
1108872;11909
1108880;11700
1108888;11556
1108897;11487
1108905;11537
1108913;11623
1108921;11825
1108929;12143
1108937;12631
1108946;13064
1108954;13501
1108962;13816
1108970;14116
1108978;14255
1108987;14415
1108995;14394
1109003;14431
1109011;14375
1109019;14334
1109031;14291
1109039;14298
1109047;14194
1109055;14153
1109063;14108
1109072;14099
1109080;14039
1109088;13974
1109096;13966
1109104;13999
1109113;13978
1109121;13975
1109129;13905
1109137;13881
1109146;13829
1109155;13860
1109163;13793
1109171;13826
1109179;13784
1109187;13829
1109196;13727
1109204;13565
1109212;13376
1109220;13413
1109228;13459
1109236;13527
1109245;13519
1109253;13589
1109261;13676
1109269;13863
1109277;13921
1109286;13971
1109294;13899
1109302;13930
1109313;13927
1109321;13921
1109330;13853
1109338;13753
1109346;14110
1109354;12917
1109362;9523
1109371;6354
1109379;6995
1109387;14577
1109395;16604
1109403;15854
1109412;14918
1109420;14604
1109428;14279
1109436;14019
1109444;13832
1109453;13751
1109461;13654
1109469;13588
1109478;13523
1109486;13498
1109495;13369
1109503;13328
1109511;13188
1109519;13070
1109527;12926
1109535;12811
1109544;12576
1109552;12395
1109560;12122
1109568;11943
1109576;11768
1109585;11799
1109593;11774
1109604;11956
1109612;12127
1109620;12487
1109629;12863
1109637;13314
1109645;13673
1109653;14028
1109661;14224
1109670;14412
1109678;14465
1109686;14533
1109694;14464
1109702;14470
1109711;14368
1109719;14384
1109727;14287
1109735;14283
1109743;14186
1109752;14253
1109760;14180
1109768;14208
1109776;14162
1109784;14199
1109793;14108
1109801;14099
1109810;14038
1109818;14057
1109826;14035
1109834;14044
1109843;14037
1109851;14080
1109859;14011
1109867;13997
1109875;13884
1109887;13736
1109895;13693
1109903;13723
1109911;13728
1109919;13756
1109928;13738
1109936;13849
1109944;13936
1109952;14066
1109960;14049
1109969;14074
1109977;13986
1109985;13985
1109993;13939
1110001;13902
1110010;13809
1110018;13731
1110026;14052
1110034;12909
1110042;9619
1110051;6989
1110059;7612
1110067;15241
1110075;17010
1110083;16103
1110092;15045
1110100;14469
1110108;14162
1110116;13885
1110124;13664
1110134;13602
1110142;13524
1110150;13488
1110158;13461
1110168;13496
1110178;13394
1110186;13325
1110194;13174
1110202;13076
1110210;12912
1110218;12762
1110227;12494
1110235;12303
1110243;11983
1110251;11778
1110259;11612
1110268;11624
1110276;11632
1110284;11791
1110292;11981
1110300;12423
1110309;12862
1110317;13363
1110325;13751
1110333;14144
1110341;14341
1110350;14507
1110358;14562
1110366;14641
1110374;14610
1110382;14626
1110391;14555
1110399;14547
1110407;14420
1110415;14379
1110423;14264
1110431;14195
1110441;14129
1110451;14142
1110459;14077
1110467;14038
1110477;13930
1110485;13924
1110493;13906
1110501;13931
1110509;13876
1110518;13862
1110526;13778
1110534;13731
1110542;13524
1110550;13410
1110558;13366
1110567;13408
1110575;13391
1110583;13481
1110591;13534
1110599;13666
1110608;13690
1110616;13702
1110624;13634
1110632;13594
1110640;13498
1110649;13510
1110657;13457
1110665;13420
1110673;13352
1110681;13550
1110690;13454
1110698;11172
1110706;7350
1110714;5512
1110722;10011
1110734;16609
1110742;15921
1110750;14996
1110758;14390
1110766;14120
1110775;13705
1110783;13546
1110791;13395
1110800;13320
1110808;13230
1110817;13176
1110825;13101
1110833;13084
1110841;12964
1110849;12903
1110857;12747
1110866;12644
1110874;12434
1110882;12244
1110890;11980
1110898;11734
1110907;11482
1110915;11365
1110923;11301
1110931;11424
1110939;11558
1110948;11744
1110956;12025
1110964;12470
1110972;12943
1110980;13460
1110989;13858
1110997;14109
1111005;14251
1111013;14292
1111024;14390
1111033;14479
1111041;14461
1111049;14460
1111057;14424
1111065;14400
1111074;14280
1111082;14219
1111090;14090
1111098;14035
1111106;13994
1111114;13940
1111124;13836
1111132;13831
1111140;13803
1111148;13767
1111156;13742
1111165;13775
1111173;13757
1111181;13742
1111189;13690
1111197;13756
1111206;13777
1111214;13825
1111222;13806
1111230;13752
1111238;13579
1111247;13410
1111255;13407
1111263;13453
1111271;13540
1111279;13570
1111288;13643
1111296;13700
1111307;13819
1111315;13883
1111323;13844
1111332;13803
1111340;13740
1111348;13726
1111356;13679
1111364;13620
1111373;13559
1111381;13815
1111389;12150
1111397;8467
1111405;5700
1111414;7676
1111422;15180
1111430;16316
1111438;15517
1111447;14674
1111455;14387
1111464;14031
1111472;13775
1111480;13605
1111488;13585
1111496;13524
1111505;13478
1111513;13424
1111521;13387
1111529;13301
1111537;13262
1111546;13158
1111554;13099
1111562;12897
1111570;12763
1111578;12510
1111590;12235
1111598;12138
1111606;11920
1111614;11861
1111622;11862
1111631;11941
1111639;12034
1111647;12242
1111655;12626
1111663;13070
1111672;13549
1111680;13924
1111688;14220
1111696;14436
1111704;14578
1111713;14638
1111721;14684
1111729;14694
1111737;14699
1111745;14632
1111753;14563
1111763;14493
1111771;14495
1111779;14480
1111787;14470
1111795;14418
1111804;14335
1111812;14232
1111820;14225
1111828;14125
1111836;14144
1111845;14089
1111853;14072
1111861;14053
1111872;14141
1111880;14197
1111889;14204
1111897;14196
1111905;14121
1111913;14000
1111921;13778
1111930;13686
1111938;13698
1111946;13677
1111954;13651
1111962;13639
1111971;13674
1111979;13749
1111987;13848
1111995;13851
1112003;13806
1112012;13758
1112020;13740
1112028;13719
1112036;13701
1112044;13627
1112052;13528
1112061;13877
1112069;13164
1112077;10200
1112086;6562
1112094;5851
1112103;12317
1112111;16336
1112119;15892
1112127;14934
1112135;14457
1112144;14158
1112155;13824
1112163;13768
1112171;13658
1112179;13548
1112188;13461
1112196;13406
1112204;13349
1112212;13265
1112220;13182
1112229;13072
1112237;12971
1112245;12811
1112253;12629
1112261;12391
1112270;12181
1112278;11948
1112286;11762
1112294;11627
1112302;11564
1112311;11699
1112319;11860
1112327;11964
1112335;12304
1112343;12719
1112351;13247
1112360;13661
1112368;14008
1112376;14251
1112384;14461
1112392;14510
1112401;14589
1112410;14570
1112418;14655
1112426;14594
1112434;14577
1112445;14541
1112453;14578
1112462;14526
1112470;14511
1112478;14424
1112487;14417
1112495;14365
1112503;14378
1112511;14311
1112519;14353
1112528;14341
1112536;14314
1112544;14262
1112552;14348
1112560;14384
1112569;14447
1112577;14434
1112585;14499
1112593;14368
1112601;14202
1112610;13909
1112618;13896
1112626;13868
1112634;13873
1112642;13824
1112650;13905
1112659;13908
1112667;14035
1112675;14024
1112683;14040
1112691;13994
1112700;13996
1112708;13966
1112716;13983
1112727;13969
1112735;13963
1112744;13893
1112752;14090
1112760;12265
1112768;8597
1112776;6116
1112786;8824
1112794;16102
1112802;16677
1112810;15763
1112818;15017
1112827;14674
1112835;14406
1112843;14068
1112851;14000
1112859;13939
1112868;13882
1112876;13790
1112884;13775
1112892;13615
1112900;13552
1112909;13409
1112917;13342
1112925;13192
1112933;13087
1112941;12833
1112950;12663
1112958;12382
1112966;12134
1112974;11830
1112982;11741
1112990;11706
1112999;11817
1113010;12027
1113018;12346
1113026;12678
1113034;13147
1113043;13517
1113051;13942
1113059;14238
1113067;14481
1113076;14577
1113085;14660
1113093;14663
1113101;14668
1113109;14590
1113117;14618
1113126;14485
1113134;14416
1113142;14301
1113150;14262
1113158;14232
1113167;14263
1113175;14189
1113183;14186
1113191;14135
1113199;14142
1113208;14086
1113216;14115
1113224;14053
1113232;14088
1113240;13953
1113249;13972
1113257;13791
1113265;13708
1113273;13554
1113281;13533
1113293;13513
1113301;13635
1113309;13646
1113317;13756
1113325;13764
1113334;13792
1113342;13794
1113350;13816
1113358;13778
1113366;13817
1113374;13741
1113384;13749
1113392;13648
1113400;13578
1113408;13725
1113416;13318
1113425;10906
1113433;7539
1113441;6300
1113449;12042
1113457;16927
1113466;16350
1113474;15298
1113482;14456
1113490;14040
1113498;13758
1113507;13471
1113515;13329
1113523;13213
1113531;13182
1113539;13081
1113548;13014
1113556;12898
1113564;12847
1113575;12742
1113583;12700
1113592;12453
1113600;12300
1113608;12045
1113616;11780
1113624;11497
1113633;11300
1113641;11045
1113649;11006
1113657;10971
1113665;11121
1113673;11261
1113682;11597
1113690;11983
1113698;12523
1113706;12883
1113714;13275
1113724;13520
1113732;13727
1113740;13802
1113748;13870
1113756;13872
1113765;13933
1113773;13905
1113781;13908
1113789;13829
1113797;13784
1113806;13688
1113814;13694
1113822;13658
1113830;13649
1113838;13595
1113847;13557
1113855;13496
1113866;13607
1113874;13631
1113882;13622
1113891;13568
1113899;13613
1113907;13573
1113915;13643
1113923;13628
1113932;13612
1113940;13519
1113948;13387
1113956;13211
1113964;13225
1113972;13302
1113981;13427
1113989;13435
1113997;13546
1114005;13582
1114013;13724
1114022;13716
1114030;13782
1114038;13716
1114046;13730
1114055;13688
1114064;13696
1114072;13631
1114080;13573
1114088;13787
1114096;13411
1114105;10796
1114113;6981
1114121;5477
1114129;10747
1114137;16195
1114149;15806
1114157;14941
1114165;14577
1114173;14240
1114181;13948
1114190;13763
1114198;13709
1114206;13587
1114214;13503
1114222;13369
1114231;13353
1114239;13243
1114247;13184
1114255;13018
1114263;12922
1114271;12725
1114280;12623
1114288;12383
1114296;12230
1114304;11938
1114312;11747
1114321;11578
1114329;11604
1114337;11658
1114345;11809
1114353;11969
1114363;12285
1114371;12731
1114379;13246
1114387;13658
1114395;14029
1114404;14290
1114412;14463
1114420;14557
1114431;14662
1114439;14668
1114448;14674
1114456;14537
1114464;14503
1114472;14417
1114480;14415
1114489;14293
1114497;14280
1114505;14198
1114513;14197
1114521;14120
1114530;14074
1114538;14033
1114546;14027
1114554;14014
1114562;14051
1114570;14036
1114579;14039
1114587;14018
1114595;14031
1114603;14050
1114611;14036
1114620;14060
1114628;13990
1114636;13905
1114644;13720
1114652;13597
1114661;13578
1114670;13647
1114678;13675
1114686;13668
1114694;13719
1114703;13814
1114713;13992
1114722;14006
1114730;14025
1114738;13981
1114747;13999
1114755;13923
1114763;13914
1114771;13849
1114779;13777
1114788;14208
1114796;12942
1114804;9461
1114812;6160
1114820;6720
1114829;14424
1114837;16660
1114845;15872
1114853;14970
1114861;14616
1114870;14308
1114878;14032
1114886;13895
1114894;13764
1114902;13684
1114910;13632
1114919;13547
1114927;13494
1114935;13432
1114943;13324
1114951;13228
1114960;13079
1114968;12985
1114976;12789
1114984;12563
1114995;12292
1115004;12057
1115012;11801
1115020;11636
1115028;11624
1115036;11652
1115045;11785
1115054;11961
1115062;12302
1115070;12716
1115078;13163
1115087;13575
1115095;13918
1115103;14125
1115111;14288
1115119;14378
1115128;14389
1115136;14380
1115144;14357
1115152;14342
1115160;14278
1115169;14185
1115177;14164
1115185;14125
1115193;14051
1115201;14020
1115209;13974
1115218;13951
1115226;13925
1115234;13894
1115242;13834
1115250;13846
1115259;13882
1115267;13945
1115275;13976
1115286;14013
1115294;13978
1115303;13854
1115311;13736
1115319;13689
1115327;13684
1115335;13755
1115344;13813
1115352;13876
1115360;13983
1115369;14093
1115377;14118
1115386;14177
1115394;14203
1115402;14191
1115410;14107
1115418;14043
1115427;13965
1115435;13859
1115443;14026
1115451;13669
1115459;11405
1115468;7783
1115476;6037
1115484;11261
1115492;16799
1115500;16408
1115508;15371
1115517;14643
1115525;14356
1115533;14059
1115541;13770
1115549;13677
1115558;13589
1115569;13573
1115577;13571
1115585;13505
1115593;13442
1115602;13385
1115610;13283
1115618;13148
1115626;12986
1115634;12806
1115643;12589
1115651;12383
1115659;12140
1115667;11862
1115676;11667
1115685;11614
1115693;11615
1115701;11711
1115709;11905
1115717;12256
1115726;12649
1115734;13153
1115742;13576
1115750;13969
1115758;14217
1115767;14406
1115775;14474
1115783;14593
1115791;14635
1115799;14685
1115807;14647
1115816;14622
1115824;14543
1115832;14511
1115840;14407
1115852;14374
1115860;14337
1115868;14336
1115876;14271
1115884;14246
1115892;14196
1115901;14177
1115909;14192
1115917;14175
1115925;14114
1115933;14041
1115942;13910
1115950;13804
1115958;13765
1115966;13803
1115974;13809
1115983;13919
1115991;13998
1116000;14111
1116008;14157
1116016;14185
1116025;14175
1116033;14228
1116041;14202
1116049;14249
1116057;14214
1116066;14217
1116074;14098
1116082;14126
1116090;13923
1116098;11914
1116106;8370
1116115;6753
1116123;10715
1116134;17604
1116142;16809
1116151;15819
1116159;14979
1116167;14636
1116175;14296
1116183;14019
1116191;13801
1116200;13684
1116208;13588
1116216;13516
1116224;13422
1116232;13389
1116241;13243
1116249;13165
1116257;13026
1116265;12883
1116273;12705
1116282;12525
1116290;12237
1116298;12009
1116306;11731
1116314;11598
1116324;11493
1116332;11557
1116340;11592
1116348;11811
1116356;12047
1116365;12477
1116373;12930
1116381;13394
1116389;13705
1116397;13980
1116406;14093
1116417;14248
1116425;14327
1116433;14356
1116441;14296
1116450;14232
1116458;14115
1116466;14081
1116474;13989
1116482;13978
1116490;13867
1116499;13847
1116507;13764
1116515;13757
1116523;13704
1116531;13721
1116540;13674
1116548;13681
1116556;13614
1116564;13657
1116572;13627
1116581;13634
1116589;13532
1116597;13468
1116605;13269
1116613;13188
1116622;13087
1116630;13127
1116639;13091
1116647;13234
1116655;13298
1116664;13414
1116672;13472
1116680;13552
1116688;13501
1116699;13561
1116708;13571
1116716;13555
1116724;13473
1116732;13466
1116740;13328
1116749;13833
1116757;12622
1116765;9179
1116773;5646
1116781;5936
1116790;13267
1116798;16291
1116806;15658
1116814;14743
1116822;14289
1116830;14014
1116839;13676
1116847;13619
1116855;13489
1116863;13433
1116871;13376
1116880;13365
1116888;13265
1116896;13238
1116904;13124
1116912;13073
1116921;12936
1116929;12821
1116937;12630
1116945;12500
1116953;12287
1116963;12104
1116971;11861
1116979;11738
1116997;12128
1117007;12203
1117015;12353
1117023;12586
1117031;13066
1117039;13443
1117048;13876
1117056;14128
1117064;14353
1117072;14429
1117080;14498
1117089;14462
1117097;14482
1117105;14383
1117113;14368
1117121;14258
1117129;14202
1117138;14147
1117146;14170
1117154;14129
1117162;14112
1117170;14032
1117179;14030
1117187;13985
1117195;13959
1117203;13887
1117211;13883
1117220;13830
1117228;13846
1117236;13807
1117244;13844
1117252;13843
1117261;13859
1117270;13790
1117280;13666
1117288;13541
1117296;13577
1117305;13566
1117313;13623
1117322;13600
1117330;13747
1117338;13793
1117347;13952
1117355;13959
1117363;13983
1117371;13932
1117379;13984
1117388;13925
1117396;13902
1117404;13793
1117412;13671
1117420;14069
1117428;13162
1117437;9893
1117445;6145
1117453;5911
1117461;13211
1117469;16423
1117478;15810
1117486;14871
1117494;14500
1117502;14214
1117510;13971
1117519;13830
1117527;13756
1117535;13687
1117543;13601
1117551;13496
1117563;13507
1117571;13430
1117579;13362
1117587;13195
1117595;13062
1117604;12888
1117612;12757
1117620;12495
1117628;12258
1117637;11962
1117646;11741
1117654;11547
1117662;11614
1117670;11683
1117678;11791
1117687;11967
1117695;12321
1117703;12717
1117711;13217
1117719;13610
1117727;13965
1117736;14141
1117744;14301
1117752;14394
1117760;14442
1117768;14450
1117777;14482
1117785;14451
1117793;14423
1117801;14372
1117809;14313
1117818;14253
1117826;14209
1117834;14187
1117845;14213
1117853;14199
1117862;14186
1117870;14064
1117878;14070
1117886;14030
1117894;14052
1117903;13989
1117911;13933
1117919;13878
1117927;13815
1117935;13653
1117944;13542
1117953;13469
1117961;13483
1117969;13495
1117977;13572
1117986;13630
1117994;13746
1118002;13863
1118010;13891
1118018;13891
1118026;13909
1118035;13873
1118043;13831
1118051;13762
1118059;13698
1118067;13591
1118076;13828
1118084;13510
1118092;11089
1118100;7299
1118108;5650
1118117;10939
1118125;16438
1118136;15827
1118144;14999
1118152;14582
1118161;14314
1118169;14008
1118177;13908
1118185;13786
1118193;13711
1118202;13632
1118210;13552
1118218;13450
1118226;13405
1118234;13359
1118243;13277
1118251;13178
1118259;13048
1118267;12854
1118275;12646
1118285;12417
1118293;12166
1118301;11927
1118309;11783
1118317;11788
1118326;11801
1118334;11892
1118342;12074
1118350;12390
1118358;12812
1118366;13302
1118375;13684
1118383;14037
1118391;14292
1118399;14481
1118407;14553
1118419;14688
1118427;14789
1118435;14752
1118443;14723
1118451;14696
1118460;14646
1118468;14558
1118476;14553
1118484;14511
1118492;14458
1118501;14383
1118509;14336
1118517;14345
1118525;14359
1118533;14357
1118542;14366
1118550;14462
1118558;14465
1118566;14404
1118574;14321
1118583;14185
1118591;14021
1118600;14008
1118608;13954
1118616;13954
1118625;14020
1118633;14125
1118641;14222
1118649;14385
1118657;14435
1118665;14459
1118674;14460
1118682;14459
1118690;14381
1118701;14401
1118710;14375
1118718;14260
1118726;14293
1118734;14064
1118742;11968
1118750;8536
1118759;7056
1118767;11329
1118775;17435
1118783;17072
1118791;16043
1118800;15075
1118808;14626
1118816;14372
1118824;14071
1118832;13908
1118841;13785
1118849;13688
1118857;13597
1118865;13546
1118873;13450
1118882;13406
1118890;13249
1118898;13170
1118906;13028
1118914;12864
1118924;12625
1118932;12383
1118940;12127
1118948;11910
1118956;11687
1118964;11640
1118973;11606
1118984;11756
1118992;11963
1119000;12201
1119009;12540
1119017;13001
1119025;13399
1119033;13756
1119041;13965
1119049;14155
1119058;14279
1119066;14342
1119074;14386
1119082;14430
1119090;14410
1119099;14446
1119107;14399
1119115;14384
1119123;14279
1119131;14269
1119140;14233
1119148;14195
1119156;14121
1119164;14094
1119172;14018
1119181;14042
1119189;14008
1119197;14000
1119205;13891
1119213;13877
1119222;13653
1119230;13568
1119239;13493
1119247;13467
1119255;13445
1119266;13525
1119274;13607
1119282;13685
1119291;13726
1119299;13810
1119308;13750
1119316;13733
1119324;13678
1119332;13652
1119340;13623
1119348;13616
1119357;13518
1119365;13720
1119373;13333
1119381;11147
1119389;7842
1119398;6911
1119406;11924
1119414;17254
1119422;16743
1119430;15854
1119439;14906
1119447;14525
1119455;14192
1119463;13939
1119471;13804
1119480;13770
1119488;13691
1119496;13663
1119504;13569
1119512;13539
1119521;13387
1119529;13311
1119537;13135
1119545;13033
1119556;12789
1119565;12616
1119573;12307
1119581;12018
1119589;11689
1119597;11560
1119607;11442
1119615;11526
1119623;11577
1119631;11715
1119639;11928
1119647;12397
1119656;12862
1119664;13298
1119672;13595
1119680;13883
1119688;13979
1119697;14116
1119705;14116
1119713;14090
1119721;13995
1119729;14027
1119738;13903
1119746;13844
1119754;13748
1119762;13671
1119770;13560
1119779;13544
1119787;13408
1119795;13389
1119803;13296
1119811;13298
1119820;13237
1119828;13243
1119839;13280
1119847;13283
1119855;13164
1119864;13042
1119872;12915
1119880;12897
1119888;12864
1119896;12938
1119905;12962
1119914;13064
1119922;13115
1119930;13267
1119938;13282
1119946;13301
1119955;13266
1119963;13303
1119971;13251
1119979;13304
1119987;13199
1119996;13176
1120004;13150
1120012;13474
1120020;11733
1120028;7995
1120037;5093
1120045;7036
1120053;14535
1120061;15976
1120069;15267
1120078;14479
1120086;14172
1120094;13914
1120102;13622
1120110;13585
1120122;13530
1120130;13553
1120138;13434
1120146;13391
1120154;13273
1120163;13230
1120171;13117
1120179;13098
1120187;12928
1120195;12777
1120204;12596
1120212;12393
1120220;12111
1120229;11927
1120237;11736
1120246;11688
1120254;11669
1120262;11807
1120270;11870
1120278;12174
1120286;12566
1120295;13085
1120303;13496
1120311;13848
1120319;14084
1120327;14294
1120336;14355
1120344;14448
1120352;14420
1120360;14443
1120368;14386
1120377;14398
1120385;14352
1120393;14320
1120404;14297
1120412;14339
1120421;14224
1120429;14156
1120437;14075
1120445;14077
1120453;13988
1120462;14005
1120470;13955
1120478;13997
1120486;13972
1120494;13986
1120503;14022
1120511;14102
1120519;14056
1120527;14041
1120535;13940
1120543;13764
1120553;13572
1120561;13606
1120569;13591
1120577;13644
1120585;13615
1120594;13662
1120602;13676
1120610;13781
1120618;13813
1120626;13807
1120635;13766
1120643;13729
1120651;13671
1120659;13639
1120667;13595
1120676;13513
1120687;13955
1120695;12823
1120703;9400
1120711;5988
1120720;6601
1120728;13955
1120736;16363
1120744;15783
1120752;14898
1120761;14619
1120769;14282
1120777;14054
1120785;13925
1120793;13890
1120802;13787
1120810;13731
1120818;13678
1120826;13683
1120834;13591
1120842;13530
1120851;13433
1120859;13326
1120867;13141
1120875;12985
1120883;12739
1120893;12519
1120901;12228
1120909;12003
1120917;11831
1120925;11790
1120934;11808
1120942;11882
1120950;12064
1120958;12354
1120966;12790
1120978;13465
1120986;13894
1120994;14227
1121002;14402
1121010;14521
1121019;14545
1121027;14594
1121035;14554
1121043;14518
1121051;14451
1121060;14395
1121068;14341
1121076;14324
1121084;14257
1121092;14238
1121101;14211
1121109;14182
1121117;14160
1121125;14147
1121133;14090
1121142;14080
1121150;14050
1121158;14012
1121166;13977
1121174;13966
1121182;13989
1121191;13939
1121199;13914
1121208;13855
1121216;13725
1121224;13489
1121233;13411
1121241;13413
1121249;13480
1121260;13535
1121268;13604
1121277;13677
1121285;13757
1121293;13826
1121301;13768
1121309;13773
1121318;13740
1121326;13729
1121334;13682
1121342;13635
1121350;13563
1121359;13565
1121367;13807
1121375;12129
1121383;8391
1121391;5639
1121400;7847
1121408;15313
1121416;16166
1121424;15314
1121432;14544
1121441;14265
1121449;13929
1121457;13691
1121465;13604
1121473;13552
1121481;13504
1121490;13440
1121498;13414
1121506;13365
1121514;13330
1121522;13196
1121532;13121
1121542;13003
1121550;12912
1121558;12748
1121566;12510
1121575;12260
1121584;11985
1121592;11790
1121600;11692
1121608;11673
1121617;11760
1121625;11914
1121633;12200
1121641;12583
1121649;13040
1121658;13430
1121666;13804
1121674;14110
1121682;14313
1121690;14438
1121699;14498
1121707;14505
1121715;14514
1121723;14491
1121731;14440
1121740;14382
1121748;14355
1121756;14319
1121764;14321
1121772;14255
1121780;14268
1121789;14222
1121797;14232
1121805;14178
1121813;14185
1121825;14233
1121833;14280
1121841;14257
1121849;14183
1121857;14168
1121865;14132
1121874;14114
1121882;14097
1121890;14034
1121899;13990
1121907;13802
1121916;13682
1121924;13676
1121932;13744
1121940;13690
1121948;13712
1121957;13783
1121965;13908
1121973;14023
1121981;14110
1121989;14098
1121998;14097
1122006;14022
1122014;13994
1122022;13942
1122030;13942
1122039;13784
1122047;14080
1122055;13463
1122063;10837
1122071;7368
1122079;6540
1122088;12634
1122096;16985
1122104;16314
1122115;15088
1122124;14670
1122132;14403
1122140;14087
1122148;13906
1122156;13801
1122164;13707
1122173;13589
1122181;13544
1122189;13434
1122197;13401
1122205;13317
1122214;13223
1122223;13054
1122231;12944
1122239;12771
1122247;12576
1122256;12328
1122264;12090
1122272;11833
1122280;11712
1122288;11631
1122297;11726
1122305;11795
1122313;11947
1122321;12181
1122329;12603
1122338;13017
1122346;13485
1122354;13845
1122362;14157
1122370;14277
1122378;14406
1122387;14412
1122398;14580
1122406;14602
1122414;14527
1122423;14477
1122431;14490
1122439;14432
1122447;14362
1122455;14313
1122463;14353
1122472;14247
1122480;14223
1122488;14194
1122496;14229
1122504;14225
1122513;14176
1122521;14090
1122529;14118
1122537;14080
1122546;14137
1122555;14029
1122563;13978
1122571;13812
1122579;13695
1122587;13526
1122596;13570
1122604;13489
1122612;13524
1122620;13539
1122628;13634
1122637;13658
1122645;13714
1122653;13684
1122661;13729
1122669;13677
1122681;13742
1122689;13712
1122697;13664
1122705;13575
1122713;13470
1122722;13825
1122730;13004
1122738;9954
1122746;6806
1122754;6527
1122762;13426
1122771;16830
1122779;16052
1122787;15007
1122795;14303
1122803;14019
1122812;13710
1122820;13447
1122828;13387
1122836;13291
1122844;13310
1122853;13209
1122861;13174
1122870;13038
1122878;12967
1122886;12818
1122895;12787
1122903;12635
1122911;12526
1122919;12296
1122927;12156
1122936;11862
1122944;11678
1122952;11474
1122963;11531
1122971;11638
1122980;11750
1122988;11865
1122996;12201
1123004;12595
1123012;13142
1123021;13534
1123029;13902
1123037;14074
1123045;14218
1123053;14196
1123062;14276
1123070;14268
1123078;14286
1123086;14211
1123094;14175
1123102;14021
1123111;14023
1123119;13973
1123127;13923
1123135;13803
1123143;13795
1123152;13725
1123160;13721
1123168;13669
1123176;13695
1123185;13682
1123194;13711
1123202;13699
1123210;13726
1123218;13682
1123226;13725
1123235;13722
1123246;13881
1123254;13906
1123262;13909
1123270;13814
1123279;13714
1123287;13464
1123295;13431
1123303;13404
1123311;13532
1123320;13514
1123328;13572
1123336;13601
1123344;13711
1123352;13767
1123361;13863
1123369;13787
1123377;13810
1123385;13785
1123393;13782
1123401;13710
1123410;13668
1123418;13679
1123426;13731
1123434;11605
1123442;7875
1123451;5787
1123459;9132
1123467;15901
1123475;16368
1123483;15438
1123492;14750
1123500;14481
1123509;14179
1123517;13923
1123525;13848
1123536;13831
1123544;13855
1123553;13750
1123561;13734
1123569;13674
1123578;13628
1123586;13486
1123594;13398
1123602;13237
1123610;13107
1123619;12855
1123627;12687
1123635;12398
1123643;12164
1123651;11901
1123660;11836
1123668;11791
1123676;11891
1123684;12041
1123692;12277
1123700;12607
1123709;13101
1123717;13524
1123725;13936
1123733;14179
1123741;14360
1123750;14473
1123758;14548
1123766;14550
1123774;14564
1123782;14488
1123791;14463
1123799;14389
1123807;14342
1123818;14281
1123826;14311
1123835;14188
1123843;14167
1123851;14110
1123859;14099
1123868;14016
1123877;14000
1123885;13901
1123893;13924
1123901;13907
1123909;13868
1123918;13827
1123926;13817
1123934;13817
1123942;13857
1123950;13801
1123959;13773
1123967;13656
1123975;13450
1123983;13356
1123991;13384
1123999;13385
1124008;13493
1124016;13487
1124024;13550
1124032;13660
1124040;13788
1124049;13819
1124057;13795
1124065;13807
1124073;13808
1124081;13787
1124090;13723
1124101;13709
1124109;13696
1124117;13937
1124125;12541
1124134;8982
1124142;6055
1124150;7314
1124158;14841
1124166;16349
1124176;15590
1124184;14699
1124192;14373
1124200;13988
1124208;13696
1124217;13606
1124225;13538
1124233;13449
1124241;13384
1124249;13318
1124258;13259
1124266;13161
1124274;13101
1124282;13009
1124290;12893
1124298;12764
1124307;12643
1124315;12457
1124323;12255
1124331;12056
1124339;11880
1124348;11771
1124356;11732
1124364;11790
1124372;11911
1124383;12293
1124392;12714
1124400;13102
1124408;13535
1124416;13868
1124424;14226
1124433;14424
1124441;14523
1124449;14563
1124457;14649
1124465;14625
1124474;14569
1124482;14467
1124491;14407
1124499;14352
1124507;14304
1124516;14235
1124524;14203
1124532;14157
1124540;14151
1124548;14098
1124557;14072
1124565;14023
1124573;13978
1124581;13935
1124589;13938
1124598;13939
1124606;13893
1124614;13861
1124622;13855
1124630;13886
1124638;13874
1124647;13894
1124655;13921
1124666;13900
1124674;13785
1124682;13634
1124691;13707
1124699;13711
1124707;13728
1124715;13764
1124723;13807
1124732;13873
1124740;14014
1124748;14006
1124756;14016
1124764;14031
1124773;14039
1124781;14006
1124789;14007
1124798;13929
1124806;13867
1124815;14220
1124823;13101
1124831;10115
1124839;7355
1124847;7690
1124856;14941
1124864;17123
1124872;16293
1124880;15249
1124888;14625
1124897;14454
1124905;14212
1124913;14050
1124921;13973
1124929;13987
1124937;13951
1124946;13931
1124957;13926
1124965;13867
1124973;13746
1124982;13537
1124990;13343
1124998;13144
1125006;12940
1125014;12668
1125022;12364
1125031;12107
1125039;11871
1125047;11756
1125055;11704
1125063;11788
1125072;11932
1125080;12100
1125088;12349
1125096;12707
1125104;13103
1125113;13553
1125121;13903
1125130;14210
1125138;14388
1125146;14456
1125155;14471
1125163;14506
1125171;14533
1125179;14692
1125187;14764
1125196;14855
1125204;14798
1125212;14786
1125220;14717
1125228;14700
1125240;14702
1125248;14710
1125256;14604
1125264;14536
1125272;14459
1125281;14387
1125289;14335
1125297;14310
1125305;14153
1125313;13975
1125321;13769
1125330;13773
1125338;13745
1125346;13781
1125354;13778
1125362;13844
1125371;13932
1125379;14019
1125387;13973
1125395;13974
1125403;13944
1125412;13990
1125420;13916
1125428;13932
1125437;13878
1125445;13891
1125454;13958
1125462;13954
1125470;11878
1125478;8436
1125486;6997
1125495;11017
1125503;17151
1125511;16956
1125522;15760
1125530;14979
1125539;14565
1125547;14224
1125555;13899
1125563;13708
1125571;13527
1125580;13457
1125588;13341
1125596;13250
1125604;13124
1125612;13055
1125620;13014
1125629;12856
1125637;12688
1125645;12659
1125653;12426
1125661;12184
1125670;11859
1125678;11638
1125686;11446
1125694;11428
1125702;11452
1125711;11648
1125719;11803
1125727;12141
1125735;12530
1125743;13002
1125752;13394
1125761;13771
1125769;13973
1125777;14147
1125785;14198
1125794;14239
1125804;14195
1125813;14250
1125821;14164
1125829;14107
1125838;13997
1125846;13881
1125854;13762
1125862;13754
1125870;13656
1125879;13562
1125887;13437
1125895;13412
1125903;13329
1125911;13335
1125919;13284
1125928;13331
1125936;13285
1125944;13337
1125952;13298
1125960;13267
1125969;13194
1125977;13094
1125985;12889
1125993;12899
1126001;12848
1126010;12890
1126018;12904
1126026;12997
1126034;13050
1126042;13168
1126051;13150
1126059;13106
1126067;12966
1126075;12882
1126086;12785
1126095;12785
1126103;12663
1126111;12557
1126119;12913
1126127;11564
1126136;7909
1126144;4706
1126153;5860
1126161;13417
1126169;15584
1126178;15121
1126186;14297
1126194;14057
1126202;13701
1126210;13488
1126218;13358
1126227;13331
1126235;13263
1126243;13308
1126251;13248
1126259;13231
1126268;13108
1126276;13126
1126284;12975
1126292;12923
1126300;12773
1126309;12677
1126317;12459
1126325;12321
1126333;12094
1126341;11955
1126350;11809
1126358;11763
1126366;11784
1126377;12064
1126385;12290
1126394;12676
1126402;13083
1126410;13545
1126418;13903
1126426;14226
1126435;14398
1126443;14568
1126452;14641
1126460;14746
1126468;14732
1126477;14751
1126485;14621
1126493;14573
1126501;14462
1126509;14465
1126518;14333
1126526;14315
1126534;14244
1126542;14246
1126550;14158
1126558;14167
1126567;14068
1126575;14042
1126583;13950
1126591;14007
1126599;13977
1126608;13965
1126616;13916
1126624;13936
1126632;13923
1126640;13952
1126649;13897
1126660;13977
1126668;13952
1126676;13953
1126684;13773
1126693;13657
1126701;13465
1126709;13459
1126717;13397
1126725;13423
1126734;13334
1126742;13385
1126750;13403
1126759;13563
1126767;13575
1126776;13651
1126784;13637
1126792;13641
1126800;13609
1126808;13590
1126817;13490
1126825;13456
1126833;13457
1126841;13703
1126849;11939
1126857;8178
1126866;5542
1126874;8019
1126882;15334
1126890;16293
1126898;15383
1126907;14582
1126915;14271
1126923;13990
1126931;13754
1126942;13736
1126951;13716
1126959;13725
1126967;13612
1126975;13579
1126983;13456
1126992;13359
1127000;13161
1127008;13057
1127016;12890
1127024;12758
1127033;12545
1127041;12380
1127049;12117
1127057;11897
1127065;11655
1127074;11611
1127083;11587
1127091;11740
1127099;11858
1127107;12116
1127116;12483
1127124;12957
1127132;13405
1127140;13847
1127148;14150
1127156;14372
1127165;14484
1127173;14556
1127181;14546
1127189;14534
1127197;14478
1127206;14425
1127214;14377
1127225;14382
1127233;14350
1127241;14293
1127250;14155
1127258;14149
1127266;14077
1127274;14054
1127282;13949
1127291;13948
1127299;13872
1127307;13871
1127315;13798
1127323;13825
1127332;13783
1127340;13805
1127348;13820
1127356;13876
1127364;13870
1127373;13890
1127381;13869
1127389;13910
1127398;13881
1127406;13763
1127415;13591
1127423;13577
1127431;13619
1127439;13673
1127447;13733
1127455;13777
1127464;13898
1127472;13990
1127480;14095
1127488;14141
1127496;14164
1127508;14180
1127516;14181
1127524;14186
1127532;14122
1127540;14050
1127549;13956
1127557;14232
1127565;12757
1127573;9264
1127581;6485
1127590;8237
1127598;15816
1127606;16914
1127614;15947
1127622;14959
1127631;14561
1127639;14290
1127647;13978
1127655;13809
1127663;13695
1127672;13594
1127680;13525
1127688;13433
1127696;13386
1127704;13306
1127713;13249
1127721;13148
1127729;13071
1127738;12876
1127746;12767
1127754;12557
1127763;12369
1127771;12059
1127779;11851
1127787;11678
1127799;11742
1127807;11908
1127815;12019
1127823;12205
1127831;12485
1127839;12907
1127848;13301
1127856;13658
1127864;14002
1127872;14253
1127880;14381
1127889;14483
1127897;14530
1127905;14599
1127913;14599
1127921;14563
1127930;14528
1127938;14442
1127946;14379
1127954;14324
1127962;14311
1127971;14260
1127979;14247
1127987;14250
1127995;14303
1128003;14268
1128012;14299
1128020;14266
1128028;14311
1128036;14288
1128045;14291
1128054;14241
1128062;14296
1128070;14259
1128080;14330
1128089;14289
1128098;14069
1128106;13898
1128114;13904
1128122;13914
1128130;13937
1128138;13937
1128147;13985
1128155;14039
1128163;14144
1128171;14174
1128179;14201
1128188;14165
1128196;14155
1128204;14112
1128212;14116
1128220;14021
1128229;13996
1128237;14025
1128245;13874
1128253;11796
1128261;8427
1128270;7178
1128278;11531
1128286;17221
1128294;16806
1128302;15749
1128311;14833
1128319;14366
1128327;14103
1128335;13731
1128343;13616
1128353;13457
1128363;13429
1128371;13363
1128379;13260
1128387;13133
1128396;13035
1128405;12903
1128413;12765
1128421;12639
1128429;12559
1128438;12436
1128446;12291
1128454;12087
1128462;11881
1128470;11644
1128478;11626
1128487;11633
1128495;11771
1128503;11897
1128511;12201
1128519;12565
1128528;13076
1128536;13508
1128544;13950
1128552;14193
1128560;14414
1128569;14495
1128577;14583
1128585;14590
1128593;14661
1128601;14575
1128610;14567
1128618;14489
1128626;14449
1128634;14345
1128645;14342
1128654;14293
1128662;14218
1128670;14109
1128678;14057
1128686;13975
1128695;13982
1128703;13935
1128712;13957
1128720;13917
1128728;13943
1128737;13834
1128745;13808
1128753;13591
1128761;13493
1128769;13309
1128777;13334
1128786;13281
1128794;13365
1128802;13364
1128810;13478
1128818;13538
1128827;13638
1128835;13587
1128843;13624
1128851;13561
1128859;13591
1128868;13549
1128876;13552
1128884;13446
1128892;13379
1128900;13776
1128909;12619
1128917;9037
1128928;5243
1128936;8993
1128944;15835
1128953;16090
1128961;15160
1128969;14378
1128977;14087
1128985;13682
1128994;13519
1129002;13325
1129010;13258
1129018;13110
1129026;13110
1129036;12976
1129044;12978
1129052;12819
1129060;12743
1129068;12585
1129076;12531
1129085;12352
1129093;12288
1129101;11999
1129109;11817
1129117;11519
1129126;11374
1129134;11244
1129142;11289
1129150;11270
1129158;11484
1129167;11630
1129175;12053
1129183;12472
1129191;13022
1129199;13334
1129208;13683
1129219;13947
1129227;14154
1129235;14135
1129243;14194
1129252;14157
1129260;14178
1129268;14095
1129276;14086
1129284;14008
1129293;14038
1129301;13960
1129309;13986
1129317;13930
1129325;14005
1129334;13966
1129342;14054
1129351;14002
1129359;14066
1129367;14000
1129375;14057
1129384;13999
1129392;14033
1129400;13991
1129408;14097
1129416;14021
1129425;14056
1129433;13998
1129441;13958
1129449;13728
1129457;13651
1129466;13590
1129474;13659
1129482;13614
1129490;13711
1129501;13788
1129510;13983
1129518;13989
1129526;14003
1129534;13848
1129542;13856
1129551;13768
1129559;13773
1129567;13628
1129575;13583
1129583;13658
1129592;13747
1129600;11574
1129608;7550
1129616;5213
1129624;9193
1129633;15897
1129641;16222
1129649;15274
1129657;14617
1129665;14313
1129673;14008
1129683;13695
1129691;13641
1129699;13541
1129707;13521
1129715;13392
1129724;13334
1129732;13236
1129740;13198
1129748;13098
1129756;13046
1129765;12866
1129773;12757
1129784;12557
1129792;12428
1129800;12092
1129809;11866
1129817;11658
1129825;11632
1129833;11624
1129841;11782
1129850;11886
1129858;12235
1129866;12550
1129874;13060
1129882;13443
1129891;13839
1129899;14115
1129907;14394
1129915;14463
1129923;14615
1129932;14554
1129940;14617
1129948;14501
1129956;14467
1129964;14342
1129972;14322
1129981;14252
1129989;14270
1129998;14155
1130006;14175
1130014;14096
1130023;14036
1130031;14010
1130039;14057
1130047;14026
1130055;14010
1130067;14004
1130075;14077
1130083;14015
1130091;14050
1130099;13987
1130108;14012
1130116;13948
1130124;13877
1130132;13663
1130140;13545
1130149;13432
1130157;13484
1130165;13445
1130173;13501
1130181;13547
1130190;13601
1130198;13618
1130206;13708
1130214;13632
1130222;13610
1130231;13540
1130239;13595
1130247;13592
1130255;13597
1130263;13490
1130271;13568
1130280;13736
1130288;11938
1130296;8115
1130304;5724
1130312;9187
1130321;16169
1130330;16377
1130338;15426
1130346;14680
1130356;14402
1130366;14074
1130374;13949
1130382;13765
1130390;13729
1130398;13590
1130407;13530
1130415;13382
1130423;13375
1130431;13278
1130439;13244
1130448;13080
1130456;12945
1130464;12748
1130472;12579
1130480;12325
1130489;12071
1130497;11784
1130505;11608
1130513;11538
1130521;11600
1130530;11659
1130538;11903
1130546;12190
1130554;12655
1130562;13110
1130570;13565
1130579;13944
1130587;14273
1130595;14472
1130603;14556
1130611;14615
1130620;14608
1130629;14629
1130639;14686
1130647;14702
1130655;14684
1130664;14604
1130672;14604
1130681;14541
1130689;14522
1130697;14445
1130706;14466
1130714;14388
1130722;14359
1130730;14320
1130738;14289
1130747;14281
1130755;14290
1130763;14261
1130771;14251
1130779;14193
1130788;14146
1130796;14012
1130804;13790
1130812;13675
1130820;13629
1130829;13656
1130837;13645
1130845;13738
1130853;13801
1130861;14005
1130870;14070
1130878;14138
1130886;14084
1130894;14088
1130902;14025
1130910;14019
1130922;14008
1130930;13968
1130938;13997
1130946;14069
1130954;12265
1130963;8594
1130971;6536
1130979;10042
1130987;16995
1130996;16987
1131005;15986
1131013;15004
1131021;14576
1131029;14290
1131037;14005
1131046;13827
1131054;13749
1131062;13701
1131070;13605
1131078;13572
1131087;13488
1131095;13426
1131103;13305
1131111;13198
1131119;13044
1131128;12918
1131136;12710
1131144;12503
1131152;12226
1131160;12033
1131169;11779
1131177;11703
1131185;11701
1131193;11845
1131204;12108
1131213;12385
1131221;12708
1131229;13126
1131237;13564
1131245;13936
1131254;14191
1131262;14386
1131270;14472
1131278;14563
1131286;14571
1131294;14588
1131304;14558
1131312;14531
1131320;14473
1131328;14418
1131336;14308
1131345;14238
1131353;14177
1131361;14143
1131369;14039
1131377;14024
1131386;13997
1131394;14000
1131402;14017
1131410;14013
1131418;13981
1131427;13959
1131435;13899
1131443;13861
1131451;13711
1131459;13596
1131468;13500
1131476;13531
1131487;13608
1131495;13724
1131503;13783
1131512;13841
1131520;13871
1131528;13883
1131536;13869
1131544;13850
1131553;13817
1131561;13845
1131569;13793
1131577;13753
1131585;13585
1131593;13932
1131602;13096
1131610;10088
1131618;6809
1131627;6604
1131635;13805
1131644;16990
1131652;16196
1131660;15215
1131668;14482
1131676;14165
1131685;13797
1131693;13595
1131701;13408
1131709;13315
1131717;13206
1131726;13193
1131734;13084
1131742;13018
1131750;12888
1131758;12816
1131767;12669
1131778;12532
1131786;12383
1131794;12135
1131802;11883
1131811;11608
1131819;11361
1131827;11257
1131835;11267
1131843;11342
1131852;11474
1131860;11682
1131868;12033
1131876;12513
1131884;12985
1131892;13404
1131901;13679
1131909;13920
1131917;14008
1131925;14039
1131933;14031
1131942;14040
1131950;14023
1131959;13981
1131967;13945
1131975;13964
1131984;13924
1131992;13930
1132000;13881
1132008;13872
1132016;13754
1132025;13746
1132033;13689
1132041;13676
1132049;13598
1132060;13690
1132069;13715
1132077;13729
1132085;13684
1132093;13685
1132101;13655
1132110;13665
1132118;13658
1132126;13568
1132134;13398
1132142;13235
1132151;13146
1132159;13193
1132167;13208
1132175;13268
1132183;13308
1132191;13399
1132200;13532
1132208;13661
1132216;13639
1132224;13667
1132232;13638
1132241;13654
1132249;13623
1132257;13619
1132265;13538
1132274;13779
1132283;13459
1132291;11017
1132299;6999
1132307;5444
1132315;10311
1132324;16142
1132332;16119
1132343;14967
1132351;14564
1132359;14227
1132368;13908
1132376;13814
1132384;13728
1132392;13647
1132400;13539
1132409;13497
1132417;13405
1132425;13360
1132433;13264
1132441;13208
1132450;13077
1132458;12972
1132466;12803
1132474;12677
1132482;12444
1132490;12234
1132499;11986
1132507;11896
1132515;11870
1132523;11966
1132531;11992
1132540;12201
1132548;12420
1132556;12837
1132564;13268
1132572;13753
1132581;14082
1132590;14421
1132598;14610
1132606;14738
1132614;14726
1132625;14816
1132634;14862
1132642;14797
1132650;14636
1132658;14567
1132667;14458
1132675;14427
1132683;14347
1132691;14319
1132699;14251
1132708;14230
1132716;14161
1132724;14138
1132732;14067
1132740;14038
1132749;13961
1132757;13987
1132765;13987
1132773;14042
1132781;13957
1132790;13959
1132798;13825
1132806;13663
1132814;13426
1132822;13486
1132830;13554
1132839;13614
1132847;13609
1132855;13713
1132863;13725
1132871;13885
1132880;13897
1132888;13915
1132897;13881
1132907;13931
1132915;13907
1132924;13889
1132932;13753
1132941;13634
1132949;14005
1132957;13330
1132966;10258
1132974;6393
1132982;5669
1132990;12439
1132998;16347
1133007;15895
1133015;14919
1133023;14491
1133031;14155
1133039;13924
1133048;13776
1133056;13720
1133064;13564
1133072;13561
1133080;13486
1133089;13458
1133097;13363
1133105;13347
1133113;13195
1133121;13099
1133129;12910
1133138;12762
1133146;12486
1133154;12334
1133162;12024
1133170;11805
1133179;11634
1133190;11643
1133198;11728
1133206;11885
1133214;12047
1133223;12387
1133231;12781
1133239;13285
1133247;13656
1133256;13990
1133265;14178
1133273;14329
1133281;14302
1133289;14370
1133297;14354
1133306;14390
1133314;14348
1133322;14297
1133330;14182
1133338;14212
1133347;14133
1133355;14150
1133363;14070
1133371;14110
1133379;14031
1133388;14015
1133396;13940
1133404;13902
1133412;13795
1133420;13754
1133428;13682
1133437;13609
1133445;13504
1133453;13627
1133461;13599
1133469;13669
1133481;13614
1133489;13646
1133497;13429
1133505;13411
1133513;13353
1133522;13462
1133530;13353
1133538;13367
1133546;13310
1133555;13436
1133564;13586
1133572;13769
1133580;13711
1133588;13684
1133596;13588
1133605;13653
1133613;13569
1133621;13547
1133629;13465
1133637;13987
1133646;13349
1133654;10253
1133662;6244
1133670;5397
1133678;12219
1133687;16472
1133695;15956
1133703;15028
1133711;14443
1133719;14275
1133727;14106
1133736;13999
1133744;13920
1133752;13858
1133763;13828
1133772;13911
1133780;13759
1133788;13698
1133796;13501
1133804;13395
1133812;13203
1133821;13117
1133829;12918
1133837;12782
1133845;12508
1133853;12341
1133862;12133
1133871;12062
1133879;12037
1133887;12148
1133895;12247
1133904;12473
1133912;12742
1133920;13137
1133928;13634
1133936;14147
1133945;14529
1133953;14833
1133961;14949
1133969;15074
1133977;15094
1133986;15114
1133994;15117
1134002;15060
1134010;14974
1134018;14906
1134026;14863
1134035;14795
1134046;14737
1134054;14774
1134062;14679
1134071;14672
1134079;14579
1134087;14584
1134095;14512
1134103;14523
1134111;14432
1134120;14443
1134128;14369
1134136;14354
1134144;14195
1134152;14045
1134161;13897
1134169;13867
1134177;13795
1134186;13904
1134194;13917
1134203;13982
1134211;14046
1134219;14109
1134227;14129
1134235;14091
1134244;14059
1134252;13994
1134260;13924
1134268;13865
1134276;13783
1134285;13703
1134293;14037
1134301;13338
1134309;10531
1134317;7046
1134329;7660
1134337;15594
1134345;16768
1134353;15915
1134361;14933
1134370;14391
1134378;14071
1134386;13767
1134394;13541
1134402;13462
1134410;13351
1134419;13249
1134427;13143
1134435;13063
1134443;12961
1134451;12890
1134460;12828
1134468;12733
1134476;12578
1134484;12423
1134492;12229
1134501;11996
1134510;11745
1134518;11488
1134526;11342
1134534;11334
1134543;11436
1134551;11593
1134559;11832
1134567;12192
1134575;12683
1134584;13140
1134592;13569
1134600;13878
1134611;14221
1134619;14414
1134628;14427
1134636;14432
1134644;14405
1134652;14369
1134660;14308
1134669;14268
1134677;14211
1134685;14156
1134693;14061
1134701;14018
1134710;13991
1134718;13932
1134726;13881
1134734;13882
1134742;13914
1134750;13917
1134759;13937
1134767;13936
1134775;13904
1134783;13822
1134791;13713
1134800;13601
1134808;13545
1134816;13492
1134824;13561
1134833;13585
1134842;13615
1134850;13647
1134858;13797
1134866;13820
1134874;13881
1134883;13864
1134891;13903
1134902;13965
1134910;13972
1134918;13914
1134927;13801
1134935;14191
1134943;12985
1134951;9779
1134959;6837
1134968;7142
1134976;14642
1134984;16749
1134992;16042
1135000;15153
1135009;14583
1135017;14286
1135025;14022
1135033;13822
1135041;13738
1135049;13556
1135058;13476
1135066;13354
1135074;13263
1135082;13163
1135090;13076
1135099;12934
1135107;12861
1135115;12681
1135123;12568
1135131;12340
1135140;12140
1135148;11878
1135157;11680
1135165;11494
1135173;11537
1135192;12117
1135201;12379
1135209;12690
1135217;13087
1135226;13537
1135234;13926
1135242;14214
1135250;14400
1135258;14498
1135267;14522
1135275;14596
1135283;14548
1135291;14521
1135299;14423
1135308;14426
1135316;14337
1135324;14281
1135332;14171
1135340;14118
1135348;13982
1135357;13991
1135365;13902
1135373;13904
1135381;13874
1135389;13878
1135398;13845
1135406;13910
1135414;13905
1135422;13942
1135430;13884
1135439;13785
1135447;13586
1135455;13505
1135464;13439
1135474;13555
1135483;13643
1135491;13723
1135499;13788
1135507;13893
1135516;13827
1135525;13826
1135533;13780
1135541;13807
1135549;13808
1135557;13821
1135566;13724
1135574;13606
1135582;14014
1135590;13068
1135598;9790
1135607;6241
1135615;6069
1135623;13533
1135631;16186
1135639;15739
1135647;14841
1135656;14373
1135664;14045
1135672;13827
1135680;13617
1135688;13541
1135697;13412
1135705;13398
1135713;13292
1135721;13262
1135729;13137
1135738;13124
1135746;12943
1135757;12821
1135765;12650
1135773;12466
1135782;12193
1135790;11928
1135798;11607
1135806;11448
1135814;11354
1135823;11476
1135831;11573
1135840;11766
1135848;11942
1135856;12322
1135865;12734
1135873;13202
1135881;13484
1135889;13824
1135897;13934
1135906;14090
1135914;14107
1135922;14178
1135930;14131
1135938;14144
1135946;14071
1135955;14020
1135963;13902
1135971;13916
1135979;13830
1135987;13804
1135996;13715
1136004;13753
1136012;13679
1136020;13689
1136028;13614
1136040;13675
1136048;13704
1136056;13764
1136064;13722
1136072;13761
1136081;13684
1136089;13632
1136097;13415
1136105;13322
1136113;13307
1136122;13379
1136130;13368
1136138;13448
1136146;13471
1136155;13633
1136164;13706
1136172;13823
1136180;13757
1136188;13767
1136196;13707
1136205;13728
1136213;13645
1136221;13644
1136229;13505
1136237;13868
1136246;13652
1136254;11123
1136262;6768
1136270;4615
1136278;9565
1136286;15738
1136295;15831
1136303;15056
1136311;14513
1136319;14354
1136330;14006
1136339;13999
1136347;13870
1136355;13819
1136363;13704
1136371;13690
1136380;13586
1136388;13598
1136396;13500
1136404;13461
1136412;13320
1136421;13234
1136429;13002
1136437;12876
1136445;12586
1136453;12378
1136462;12070
1136470;12008
1136478;11960
1136487;12023
1136495;12073
1136504;12255
1136512;12469
1136520;12879
1136528;13257
1136536;13761
1136545;14085
1136553;14403
1136561;14551
1136569;14683
1136577;14695
1136585;14718
1136594;14671
1136602;14618
1136613;14557
1136621;14585
1136630;14453
1136638;14439
1136646;14314
1136654;14296
1136662;14199
1136670;14195
1136679;14066
1136687;14051
1136695;14018
1136703;14073
1136711;13998
1136720;14014
1136728;13949
1136736;13985
1136744;13905
1136752;13870
1136761;13666
1136769;13556
1136777;13503
1136785;13602
1136793;13574
1136803;13602
1136811;13646
1136819;13758
1136827;13845
1136835;13880
1136844;13793
1136852;13757
1136860;13705
1136868;13676
1136876;13616
1136884;13561
1136896;13476
1136904;14112
1136912;13048
1136920;9528
1136929;5646
1136937;5831
1136945;13653
1136953;16357
1136961;15659
1136969;14826
1136978;14421
1136986;14176
1136994;13837
1137002;13768
1137010;13633
1137019;13593
1137027;13511
1137035;13466
1137043;13391
1137051;13326
1137060;13229
1137068;13175
1137076;13024
1137084;12936
1137092;12769
1137101;12552
1137109;12303
1137117;12082
1137125;11894
1137134;11792
1137143;11750
1137151;11802
1137159;11966
1137167;12146
1137177;12660
1137186;13210
1137195;13614
1137203;14028
1137211;14283
1137219;14533
1137228;14656
1137236;14731
1137244;14749
1137252;14814
1137260;14742
1137268;14730
1137277;14647
1137285;14604
1137293;14525
1137301;14488
1137309;14437
1137318;14443
1137326;14385
1137334;14387
1137342;14371
1137350;14325
1137359;14293
1137367;14307
1137375;14279
1137383;14285
1137391;14257
1137400;14286
1137408;14255
1137416;14150
1137424;13955
1137432;13803
1137441;13829
1137449;13852
1137458;13824
1137468;13868
1137476;13921
1137485;14006
1137494;14042
1137502;14066
1137510;14057
1137518;14037
1137527;13964
1137535;13888
1137543;13824
1137551;13774
1137559;13667
1137567;14173
1137576;13113
1137584;9744
1137592;6344
1137600;6597
1137608;14464
1137617;16583
1137625;15725
1137633;14710
1137641;14250
1137649;14064
1137658;13779
1137666;13566
1137674;13434
1137682;13324
1137690;13265
1137699;13231
1137707;13219
1137715;13168
1137723;13123
1137731;12991
1137740;12914
1137751;12799
1137759;12636
1137767;12432
1137775;12138
1137784;11868
1137792;11653
1137800;11583
1137808;11620
1137817;11701
1137826;11872
1137834;12107
1137842;12418
1137850;12877
1137858;13314
1137866;13716
1137875;14050
1137883;14284
1137891;14450
1137899;14532
1137907;14528
1137916;14515
1137924;14556
1137932;14548
1137940;14498
1137948;14412
1137957;14373
1137965;14332
1137973;14287
1137981;14200
1137989;14169
1137998;14123
1138006;14161
1138014;14137
1138022;14161
1138033;14186
1138042;14112
1138050;13965
1138058;13894
1138066;13839
1138074;13811
1138083;13824
1138091;13890
1138099;13951
1138107;14071
1138115;14107
1138125;14127
1138133;14088
1138141;14076
1138149;14049
1138157;14083
1138166;14037
1138174;14031
1138182;13874
1138190;14071
1138198;13609
1138206;11196
1138215;7647
1138223;6466
1138231;12058
1138239;17225
1138247;16589
1138256;15610
1138264;14692
1138272;14346
1138280;14068
1138288;13860
1138297;13714
1138305;13641
1138316;13580
1138324;13564
1138332;13453
1138341;13351
1138349;13208
1138357;13040
1138365;12854
1138373;12694
1138382;12495
1138390;12331
1138398;12028
1138406;11797
1138414;11531
1138423;11460
1138431;11407
1138439;11507
1138447;11653
1138456;11856
1138465;12131
1138473;12638
1138481;13148
1138489;13601
1138497;13856
1138505;14134
1138514;14267
1138522;14435
1138530;14424
1138538;14512
1138546;14544
1138555;14593
1138563;14524
1138571;14509
1138579;14510
1138587;14557
1138599;14524
1138607;14537
1138615;14417
1138623;14370
1138631;14278
1138640;14255
1138648;14226
1138656;14210
1138664;14044
1138672;13892
1138681;13796
1138689;13765
1138697;13721
1138705;13806
1138713;13818
1138722;13984
1138730;14028
1138738;14052
1138746;14008
1138754;13931
1138762;13897
1138771;13990
1138780;13922
1138788;13864
1138796;13737
1138804;13652
1138813;13803
1138821;13236
1138829;10703
1138837;7428
1138845;6457
1138854;12519
1138862;16834
1138870;16278
1138878;15414
1138889;14521
1138898;14180
1138906;13834
1138914;13622
1138922;13511
1138930;13380
1138939;13276
1138947;13175
1138955;13144
1138963;13014
1138971;13016
1138980;12856
1138988;12727
1138996;12529
1139004;12394
1139012;12194
1139021;11969
1139029;11697
1139037;11556
1139045;11348
1139053;11366
1139062;11439
1139070;11626
1139078;11786
1139086;12187
1139094;12592
1139103;13079
1139112;13432
1139120;13762
1139128;13989
1139136;14168
1139144;14216
1139153;14331
1139161;14293
1139172;14373
1139180;14325
1139188;14274
1139197;14224
1139205;14224
1139213;14136
1139221;14136
1139229;14078
1139238;14075
1139246;13990
1139254;14016
1139262;13971
1139270;13953
1139279;13860
1139287;13866
1139295;13661
1139303;13582
1139311;13547
1139320;13566
1139328;13550
1139336;13614
1139344;13654
1139352;13750
1139361;13802
1139369;13883
1139377;13872
1139385;13914
1139393;13856
1139401;13869
1139410;13792
1139419;13789
1139427;13686
1139435;13931
1139443;13607
1139454;10081
1139463;6775
1139471;6642
1139479;13943
1139487;16680
1139496;16016
1139504;15204
1139512;14627
1139520;14341
1139528;13988
1139537;13828
1139545;13669
1139553;13645
1139561;13541
1139569;13498
1139578;13426
1139586;13378
1139594;13228
1139602;13201
1139610;13033
1139619;12895
1139627;12699
1139635;12560
1139643;12301
1139651;12022
1139660;11730
1139668;11629
1139676;11575
1139684;11655
1139692;11715
1139700;11930
1139709;12243
1139717;12713
1139726;13228
1139736;13887
1139745;14168
1139753;14349
1139761;14412
1139769;14481
1139778;14465
1139786;14489
1139795;14414
1139803;14396
1139811;14252
1139819;14234
1139827;14166
1139836;14121
1139844;14066
1139852;14080
1139860;14001
1139868;14021
1139877;14000
1139885;14036
1139893;14027
1139901;13980
1139909;13903
1139918;13826
1139926;13659
1139934;13524
1139942;13437
1139950;13441
1139959;13425
1139967;13479
1139975;13552
1139983;13653
1139991;13754
1139999;13824
1140008;13863
1140019;14006
1140027;14086
1140035;14134
1140044;14068
1140052;14057
1140060;13907
1140068;14371
1140077;13070
1140086;9495
1140094;5793
1140102;6353
1140110;14039
1140118;16371
1140126;15815
1140135;15056
1140143;14652
1140151;14337
1140159;14014
1140167;13874
1140176;13736
1140184;13661
1140192;13567
1140200;13519
1140208;13429
1140217;13358
1140225;13254
1140233;13178
1140241;13073
1140249;12918
1140258;12748
1140266;12565
1140274;12364
1140282;12147
1140290;11945
1140298;11755
1140310;11734
1140318;11836
1140326;11892
1140334;12153
1140343;12474
1140351;12933
1140359;13311
1140367;13684
1140375;13933
1140383;14137
1140393;14184
1140401;14240
1140409;14210
1140417;14201
1140425;14134
1140434;14093
1140442;14028
1140450;14037
1140458;14023
1140466;14014
1140475;13964
1140483;13918
1140491;13842
1140499;13775
1140507;13763
1140516;13753
1140524;13745
1140532;13724
1140540;13717
1140548;13717
1140557;13664
1140565;13473
1140573;13299
1140581;13288
1140592;13418
1140601;13556
