Tempo (ms);Valor
720395;14617
720403;14757
720411;14763
720420;14705
720428;14684
720436;14635
720444;14592
720452;14526
720461;14413
720469;14354
720477;14273
720485;14227
720493;14102
720502;14082
720510;14019
720518;13999
720526;13934
720534;13984
720542;13915
720551;13978
720559;13918
720567;13971
720575;13932
720583;14004
720592;13889
720600;13945
720608;13820
720616;13723
720624;13459
720633;13470
720641;13392
720649;13508
720657;13443
720665;13540
720674;13459
720682;13676
720692;13745
720700;13797
720708;13708
720717;13682
720725;13598
720733;13667
720741;13526
720749;13521
720758;13979
720766;12803
720774;8992
720782;5542
720790;6176
720798;14136
720807;16243
720815;15601
720823;14601
720832;14270
720840;13840
720849;13651
720857;13399
720865;13414
720873;13304
720881;13366
720890;13219
720898;13304
720906;13193
720914;13263
720922;13090
720931;13065
720939;12845
720947;12802
720955;12502
720963;12361
720972;12043
720980;11878
720988;11688
720998;11817
721006;11834
721015;12045
721023;12110
721031;12550
721039;12874
721047;13373
721055;13587
721064;13962
721072;14038
721080;14213
721088;14164
721096;14306
721105;14235
721113;14323
721121;14220
721129;14259
721137;14125
721146;14132
721154;14018
721162;14026
721170;13913
721178;13857
721187;13777
721195;13747
721203;13707
721211;13726
721219;13676
721228;13731
721236;13698
721244;13728
721252;13752
721260;13797
721268;13814
721277;13705
721285;13565
721296;13470
721304;13437
721313;13550
721321;13529
721329;13641
721337;13623
721345;13744
721353;13826
721362;13921
721370;13873
721378;13911
721386;13882
721394;13917
721403;13877
721411;13866
721419;13791
721427;14427
721435;13359
721444;9662
721452;5907
721460;6250
721468;14313
721476;16960
721485;16226
721493;15309
721501;14941
721509;14549
721517;14257
721526;14031
721534;13974
721542;13844
721550;13822
721558;13694
721566;13666
721575;13504
721583;13518
721591;13323
721602;13199
721610;13053
721619;12845
721627;12587
721635;12329
721643;12050
721651;11876
721660;11778
721668;11789
721676;11862
721684;12040
721692;12219
721701;12582
721709;12969
721717;13470
721725;13801
721733;14171
721742;14341
721750;14528
721758;14494
721766;14566
721774;14454
721783;14524
721791;14382
721799;14349
721807;14179
721815;14220
721823;14131
721832;14166
721840;14013
721848;14028
721856;13887
721864;13948
721873;13833
721881;13889
721889;13775
721897;13863
721908;13829
721917;13939
721925;13869
721933;13953
721941;13828
721949;13742
721958;13412
721966;13386
721974;13318
721982;13477
721990;13407
721999;13505
722007;13553
722015;13775
722023;13794
722031;13889
722040;13790
722048;13882
722056;13786
722064;13851
722072;13683
722081;13721
722089;13571
722097;14227
722105;13050
722113;9549
722121;5951
722130;6569
722138;14600
722146;16988
722154;16017
722162;15151
722171;14615
722179;14427
722187;14022
722195;13959
722206;13833
722215;13946
722223;13758
722231;13695
722239;13526
722247;13493
722256;13291
722264;13264
722272;13055
722280;12978
722288;12692
722297;12564
722305;12231
722313;12045
722321;11792
722329;11771
722338;11673
722346;11829
722354;11857
722362;12143
722370;12392
722378;12900
722387;13290
722395;13723
722403;14013
722411;14300
722419;14387
722428;14514
722436;14514
722444;14542
722452;14481
722460;14475
722469;14399
722477;14387
722485;14305
722493;14290
722501;14259
722513;14347
722521;14306
722529;14315
722537;14262
722545;14348
722554;14270
722562;14315
722570;14257
722578;14147
722586;13994
722595;13924
722603;13868
722611;13860
722619;13841
722627;13999
722636;14083
722644;14166
722652;14243
722660;14256
722668;14251
722676;14217
722685;14185
722693;14139
722701;14138
722709;14003
722717;13932
722726;14163
722734;13562
722742;10811
722750;7449
722758;6780
722767;13213
722775;17539
722783;16818
722791;15794
722799;14976
722808;14513
722819;14148
722827;14008
722835;13850
722843;13707
722852;13635
722860;13566
722868;13498
722876;13398
722884;13297
722893;13089
722901;12971
722909;12796
722917;12589
722925;12320
722934;12097
722942;11805
722950;11698
722958;11459
722966;11541
722974;11543
722983;11817
722991;11920
722999;12268
723007;12582
723015;13090
723024;13439
723032;13850
723040;14000
723048;14235
723056;14264
723065;14416
723073;14354
723081;14481
723089;14348
723097;14375
723106;14234
723117;14233
723125;14221
723133;14122
723141;14047
723150;14093
723158;14054
723166;14074
723174;13926
723182;13915
723191;13609
723199;13629
723207;13587
723215;13684
723223;13537
723231;13661
723240;13668
723248;13876
723256;13958
723264;14099
723272;14010
723281;14019
723289;13990
723297;14005
723305;13927
723313;13864
723322;13723
723330;13720
723338;13662
723346;11717
723354;8254
723363;7485
723371;10401
723379;16892
723387;16967
723395;16081
723404;15002
723412;14292
723423;13858
723431;13580
723439;13379
723448;13311
723456;13165
723464;13094
723472;13004
723480;12983
723489;12886
723497;12812
723505;12679
723513;12761
723521;12528
723529;12399
723538;12195
723546;12053
723554;11814
723562;11680
723570;11662
723579;11838
723587;11846
723595;12104
723603;12379
723611;12683
723620;13103
723628;13449
723636;13755
723644;13996
723652;14234
723661;14383
723669;14395
723677;14437
723685;14424
723693;14421
723702;14348
723710;14305
723720;14252
723728;14289
723736;14193
723745;14155
723753;14004
723761;13994
723769;13853
723777;13811
723785;13669
723794;13586
723802;13581
723810;13659
723818;13663
723826;13665
723835;13817
723843;13974
723851;14056
723859;14113
723867;14054
723876;14021
723884;14056
723893;13976
723901;14026
723909;13919
723918;13858
723926;13920
723934;13225
723942;10716
723949;8573
723959;9121
723967;13835
723975;17171
723983;16568
723991;15654
723999;14906
724008;14382
724016;14061
724026;13762
724034;13712
724042;13565
724051;13439
724059;13383
724067;13327
724075;13211
724083;13110
724092;13088
724100;12960
724108;12881
724116;12702
724124;12358
724133;12207
724141;11880
724149;11802
724157;11718
724165;11854
724174;11887
724182;12016
724190;12221
724198;12635
724206;12932
724215;13338
724223;13647
724231;13950
724239;14082
724247;14223
724255;14220
724264;14317
724272;14195
724280;14234
724288;14106
724296;14216
724305;14102
724313;14168
724321;14049
724332;14134
724340;14087
724349;14069
724357;13933
724365;14021
724373;13962
724381;13942
724390;13871
724398;13888
724406;13783
724414;13842
724422;13778
724431;13869
724439;13797
724447;13851
724455;13761
724463;13773
724472;13570
724480;13599
724488;13477
724496;13604
724504;13517
724513;13559
724521;13551
724529;13617
724537;13592
724545;13715
724553;13685
724562;13737
724570;13600
724578;13599
724586;13501
724594;13444
724603;13349
724611;13322
724619;11658
724630;8186
724638;7960
724647;12576
724655;16501
724663;16135
724671;15174
724679;14356
724688;13893
724696;13596
724704;13232
724712;13190
724720;13093
724729;13128
724737;13012
724745;13036
724753;12916
724761;12891
724770;12745
724778;12744
724786;12678
724794;12575
724802;12335
724810;12241
724819;12010
724827;11768
724835;11596
724843;11574
724851;11622
724860;11829
724868;11976
724876;12258
724884;12605
724892;13004
724901;13389
724909;13749
724917;14002
724925;14105
724936;14276
724945;14358
724953;14293
724961;14389
724969;14184
724977;14255
724986;14249
724994;14203
725002;14128
725010;14052
725018;13965
725027;13947
725035;13918
725043;13889
725051;13925
725059;13909
725068;13901
725076;13924
725084;13896
725092;13881
725100;13860
725108;13825
725117;13856
725125;13919
725133;13934
725141;13813
725149;13882
725158;13746
725166;13732
725174;13797
725182;13855
725190;13784
725199;13826
725207;13788
725215;13844
725223;13803
725231;13881
725243;13981
725251;14034
725259;13965
725267;13919
725275;13868
725284;13840
725292;13815
725300;13831
725308;13752
725316;13804
725325;13806
725333;13788
725341;13713
725349;13650
725357;13568
725366;13425
725374;13323
725382;13420
725390;13415
725398;13483
725406;13396
725415;13538
725423;13592
725431;13762
725439;13681
725447;13751
725456;13576
725464;13588
725472;13386
725480;13440
725488;13073
725497;11514
725505;8622
725513;7922
725521;10679
725529;16142
725541;15897
725549;15160
725557;14369
725565;14084
725573;13655
725582;13456
725590;13338
725598;13348
725606;13309
725614;13282
725623;13256
725631;13254
725639;13158
725647;13175
725655;13025
725663;13012
725672;12916
725680;12925
725688;12741
725696;12552
725704;12223
725713;12038
725721;11855
725729;11956
725737;11953
725745;12133
725754;12252
725762;12630
725770;12984
725778;13415
725786;13748
725795;14175
725803;14366
725811;14532
725819;14558
725827;14660
725836;14597
725846;14700
725854;14658
725862;14640
725870;14561
725879;14574
725887;14458
725895;14424
725903;14435
725911;14292
725919;14258
725928;14225
725936;14174
725944;14210
725952;14059
725960;14082
725969;14043
725977;14076
725985;14012
725993;14073
726001;13974
726010;14045
726018;13954
726026;13916
726034;13876
726042;13880
726051;13787
726059;13743
726067;13689
726075;13765
726083;13692
726092;13557
726100;13491
726108;13441
726117;13424
726125;13401
726134;13420
726144;13486
726152;13558
726160;13599
726168;13649
726177;13794
726185;13768
726193;13868
726201;13828
726209;13786
726217;13708
726226;13927
726234;13323
726242;11438
726250;8758
726258;8312
726267;12324
726275;16710
726283;16337
726291;15382
726299;14630
726308;14283
726316;13917
726324;13643
726332;13483
726340;13365
726349;13310
726357;13241
726365;13259
726373;13221
726381;13170
726390;12999
726398;12915
726406;12776
726414;12748
726422;12511
726430;12357
726439;12065
726450;11791
726458;11647
726466;11476
726474;11485
726483;11548
726491;11692
726499;11964
726507;12344
726515;12870
726524;13270
726532;13664
726540;13931
726548;14129
726556;14210
726565;14321
726573;14308
726581;14300
726589;14324
726597;14322
726606;14249
726614;14309
726622;14222
726630;14216
726638;14148
726647;14076
726655;13915
726663;13935
726671;13816
726679;13890
726687;13774
726696;13802
726704;13773
726712;13889
726720;13769
726728;13839
726737;13782
726745;13835
726756;13809
726764;13767
726772;13584
726781;13458
726789;13415
726797;13494
726805;13431
726813;13499
726822;13558
726830;13721
726838;13708
726846;13762
726854;13658
726863;13699
726871;13579
726879;13631
726887;13459
726895;13726
726904;12676
726912;10054
726920;7578
726928;8016
726936;13814
726945;16581
726953;15976
726961;15162
726969;14367
726977;14115
726985;13673
726994;13504
727002;13346
727010;13332
727018;13216
727026;13202
727035;13125
727043;13089
727054;13018
727062;13039
727070;12810
727079;12801
727087;12576
727095;12455
727103;12144
727111;11939
727120;11569
727128;11472
727136;11354
727144;11417
727152;11498
727161;11793
727169;12122
727177;12669
727185;13158
727193;13618
727202;13879
727210;14122
727218;14199
727226;14310
727234;14311
727242;14311
727251;14274
727259;14291
727267;14266
727275;14239
727283;14175
727292;14158
727300;14082
727308;14079
727316;14111
727324;14064
727333;14044
727341;14002
727349;13979
727360;13998
727368;13977
727377;13996
727385;14017
727393;14026
727401;14005
727409;14000
727418;13971
727426;13929
727434;13750
727442;13650
727450;13642
727459;13689
727467;13673
727475;13705
727483;13729
727491;13854
727500;13954
727508;13951
727516;13898
727524;13874
727532;13844
727540;13719
727549;13634
727557;13758
727565;13407
727573;11282
727581;7852
727590;6643
727598;10709
727606;16174
727614;16305
727622;15502
727631;14738
727639;14288
727647;13957
727655;13648
727666;13602
727675;13575
727683;13460
727691;13375
727699;13325
727707;13258
727716;13182
727724;13079
727732;12964
727740;12792
727748;12675
727757;12493
727765;12300
727773;12020
727781;11809
727789;11577
727798;11561
727806;11551
727814;11718
727822;11847
727830;12178
727838;12610
727847;13173
727855;13522
727863;13929
727871;14131
727879;14345
727888;14356
727896;14409
727904;14368
727912;14492
727920;14393
727929;14406
727937;14308
727945;14336
727953;14252
727964;14246
727973;14226
727981;14234
727989;14175
727997;14165
728005;13991
728014;13953
728022;13859
728030;13887
728038;13782
728046;13841
728055;13764
728063;13764
728071;13674
728079;13736
728087;13644
728095;13689
728104;13624
728112;13738
728120;13657
728128;13681
728136;13619
728145;13664
728153;13620
728161;13583
728169;13413
728177;13452
728186;13366
728194;13461
728202;13432
728210;13528
728218;13522
728227;13611
728235;13589
728243;13736
728251;13729
728259;13706
728271;13725
728279;13792
728287;13707
728295;13651
728303;13773
728312;13114
728320;10596
728328;7083
728336;6625
728344;12064
728353;15990
728361;15804
728369;14839
728377;14451
728385;14123
728393;13952
728402;13803
728410;13744
728418;13608
728426;13611
728434;13516
728443;13494
728451;13436
728459;13371
728467;13254
728475;13226
728484;13117
728492;13032
728500;12849
728508;12641
728516;12358
728525;12081
728533;11793
728541;11595
728549;11560
728557;11588
728566;11708
728577;12166
728585;12620
728593;13133
728601;13492
728610;13910
728618;14095
728626;14326
728634;14385
728642;14507
728650;14506
728659;14489
728667;14412
728675;14342
728683;14263
728691;14178
728700;14142
728708;14135
728716;14082
728724;14087
728732;14080
728741;14033
728749;14025
728757;13958
728765;14001
728773;13993
728782;13996
728790;13944
728798;13962
728806;13962
728814;13959
728823;13849
728831;13853
728839;13811
728847;13838
728855;13774
728863;13799
728875;13812
728883;13797
728891;13640
728899;13516
728908;13432
728916;13435
728924;13520
728932;13547
728940;13511
728948;13607
728957;13628
728965;13739
728973;13712
728981;13757
728989;13720
728998;13781
729006;13700
729014;13681
729022;13601
729030;13704
729039;12432
729047;9302
729055;6885
729063;8718
729071;15181
729080;16465
729088;15543
729096;14683
729104;14322
729112;14067
729121;13835
729129;13787
729137;13647
729145;13638
729153;13535
729161;13514
729170;13393
729180;13439
729188;13314
729196;13207
729204;13020
729213;12921
729221;12682
729229;12498
729237;12168
729245;11982
729254;11701
729262;11603
729271;11495
729279;11637
729287;11616
729296;11875
729304;12139
729312;12703
729320;13163
729328;13678
729337;13977
729345;14258
729353;14334
729361;14483
729369;14454
729378;14462
729386;14391
729394;14414
729402;14280
729410;14305
729418;14151
729427;14107
729435;13994
729443;14018
729451;13944
729459;13989
729468;13940
729476;13964
729486;13964
729494;14071
729502;14034
729511;14066
729519;13968
729527;14017
729535;13969
729543;14016
729552;13975
729560;14039
729568;13944
729576;14006
729584;13962
729593;13956
729601;13811
729609;13805
729617;13577
729625;13469
729634;13351
729642;13401
729650;13395
729658;13434
729666;13436
729674;13541
729683;13598
729691;13659
729699;13687
729707;13729
729715;13657
729724;13622
729732;13568
729740;13501
729748;13428
729756;13534
729765;12242
729773;8964
729784;6139
729792;9971
729800;15837
729809;16069
729817;14993
729825;14444
729833;14120
729841;13825
729850;13608
729858;13554
729866;13432
729874;13372
729882;13318
729891;13288
729899;13239
729907;13194
729915;13128
729923;13030
729932;12901
729940;12691
729948;12484
729956;12235
729964;12004
729972;11700
729981;11460
729989;11322
729997;11284
730005;11316
730013;11408
730022;11567
730030;11951
730038;12390
730046;12871
730054;13284
730063;13685
730071;13888
730079;14117
730090;14269
730098;14322
730107;14304
730115;14320
730123;14263
730131;14246
730139;14229
730148;14206
730156;14154
730164;14110
730172;14062
730180;14091
730189;14052
730197;14029
730205;13956
730213;13968
730221;13916
730230;13949
730238;13951
730246;14041
730254;13991
730262;14047
730270;14068
730279;14169
730287;14094
730295;14112
730303;13914
730311;13808
730320;13584
730328;13601
730336;13567
730344;13637
730352;13615
730361;13716
730369;13700
730377;13880
730388;13957
730396;14034
730405;13915
730413;13893
730421;13866
730429;13893
730437;13795
730446;13901
730454;13996
730462;12374
730470;8617
730478;6160
730487;8727
730495;15930
730503;16605
730511;15718
730519;14780
730527;14523
730536;14102
730544;13945
730552;13744
730560;13706
730568;13532
730577;13552
730585;13411
730593;13419
730601;13243
730609;13180
730618;13050
730626;12974
730634;12724
730642;12569
730650;12325
730659;12163
730667;11887
730675;11733
730683;11557
730694;11686
730703;11722
730711;11899
730719;12021
730727;12385
730735;12738
730744;13229
730752;13557
730760;13970
730768;14151
730776;14279
730785;14289
730793;14371
730801;14334
730809;14373
730817;14288
730825;14288
730834;14178
730842;14214
730850;14137
730858;14103
730866;14007
730875;14014
730883;13934
730891;13891
730899;13824
730907;13829
730916;13797
730924;13813
730932;13804
730940;13817
730948;13808
730957;13802
730965;13807
730973;13822
730981;13864
730989;13843
731001;13894
731009;13905
731017;13668
731025;13480
731033;13371
731042;13455
731050;13455
731058;13518
731066;13511
731074;13630
731082;13700
731091;13805
731099;13788
731107;13806
731115;13781
731123;13788
731132;13721
731140;13615
731148;13493
731156;13855
731164;12540
731173;9026
731181;6060
731189;7379
731197;14970
731205;16522
731214;15652
731222;14674
731230;14407
731238;14087
731246;13855
731255;13709
731263;13719
731271;13622
731279;13593
731287;13516
731295;13505
731306;13444
731314;13419
731322;13290
731330;13126
731338;12954
731347;12755
731355;12500
731363;12249
731371;11967
731379;11799
731388;11623
731396;11641
731404;11665
731412;11860
731420;11994
731429;12336
731437;12717
731445;13202
731453;13581
731461;14017
731470;14269
731478;14506
731487;14563
731495;14693
731503;14664
731512;14715
731520;14606
731528;14593
731536;14484
731544;14450
731553;14369
731561;14409
731569;14290
731577;14326
731585;14233
731593;14247
731604;14246
731612;14311
731620;14246
731628;14206
731636;14138
731645;14155
731653;14118
731661;14167
731669;14107
731677;14093
731686;13920
731694;13863
731702;13686
731710;13739
731718;13727
731727;13787
731735;13785
731743;13966
731751;14019
731759;14143
731768;14101
731776;14129
731784;14085
731792;14169
731800;14018
731809;13997
731817;13871
731825;14161
731833;13509
731841;10946
731849;7622
731858;7308
731866;13604
731874;17688
731882;16782
731890;15712
731899;14782
731910;14404
731918;14051
731926;13856
731934;13648
731943;13626
731951;13443
731959;13379
731967;13273
731975;13266
731984;13077
731992;13034
732000;12841
732008;12770
732016;12575
732025;12448
732033;12151
732041;11949
732049;11723
732057;11635
732066;11574
732074;11665
732082;11776
732090;12004
732098;12262
732106;12665
732115;13050
732123;13489
732131;13802
732139;14101
732147;14282
732156;14453
732164;14529
732172;14582
732180;14570
732188;14503
732197;14428
732208;14440
732216;14417
732224;14373
732232;14245
732241;14251
732249;14118
732257;14131
732265;14071
732273;14074
732282;14043
732290;14091
732298;13980
732306;13941
732314;13735
732323;13602
732331;13500
732339;13528
732347;13553
732355;13645
732364;13726
732372;13817
732380;13889
732388;13914
732396;13997
732404;13993
732413;13943
732421;13893
732429;13926
732437;13857
732445;13823
732454;13854
732462;13582
732470;11392
732478;7891
732486;6677
732495;11760
732503;17305
732514;16549
732522;15523
732530;14663
732539;14312
732547;13920
732555;13669
732563;13554
732571;13474
732580;13427
732588;13331
732596;13301
732604;13210
732612;13210
732621;13078
732629;13141
732637;12920
732645;12550
732653;12272
732662;12200
732670;11977
732678;11829
732686;11644
732694;11622
732702;11622
732711;11787
732719;11919
732727;12268
732735;12624
732743;13160
732752;13537
732760;13951
732768;14138
732776;14415
732784;14492
732793;14632
732801;14606
732809;14694
732820;14667
732828;14649
732837;14482
732845;14472
732853;14327
732861;14269
732869;14160
732878;14095
732886;13927
732894;14000
732902;13946
732910;13998
732919;13962
732927;13962
732935;13824
732943;13793
732951;13533
732959;13460
732968;13366
732976;13438
732984;13428
732992;13581
733000;13603
733009;13760
733017;13837
733025;13931
733033;13887
733041;13882
733050;13802
733058;13851
733066;13755
733074;13763
733082;13639
733091;14054
733099;13004
733107;9947
733118;6352
733126;9524
733135;16368
733143;16660
733151;15660
733159;14814
733167;14365
733176;14062
733184;13706
733192;13633
733200;13463
733208;13464
733217;13325
733225;13347
733233;13246
733241;13232
733249;13120
733257;13068
733266;12901
733274;12826
733282;12632
733290;12447
733298;12186
733307;11976
733315;11759
733323;11733
733331;11715
733339;11859
733348;11998
733356;12228
733364;12506
733372;12958
733380;13398
733389;13784
733397;14015
733405;14212
733413;14310
733424;14499
733433;14531
733441;14541
733449;14404
733457;14378
733465;14262
733474;14247
733482;14128
733490;14080
733498;14011
733506;13987
733514;13910
733523;13915
733531;13904
733539;13904
733547;13875
733555;13894
733564;13886
733572;13935
733580;13948
733588;13963
733596;13932
733605;13774
733613;13586
733621;13473
733629;13515
733637;13573
733646;13594
733654;13621
733662;13699
733670;13764
733678;13895
733687;13856
733695;13898
733703;13820
733711;13841
733719;13778
733730;13757
733738;13745
733746;14143
733754;13193
733762;9999
733770;6372
733780;6510
733788;13546
733796;16511
733804;15913
733812;14963
733821;14508
733829;14229
733837;13873
733845;13730
733853;13617
733862;13627
733870;13542
733878;13513
733886;13470
733894;13433
733903;13296
733911;13217
733919;13068
733927;12929
733935;12681
733944;12527
733952;12257
733960;12076
733968;11800
733976;11744
733985;11661
733993;11787
734001;11822
734009;12069
734017;12291
734028;12912
734036;13336
734044;13713
734052;13989
734060;14216
734068;14299
734077;14374
734085;14322
734093;14370
734101;14284
734109;14284
734118;14168
734126;14180
734134;14070
734142;14050
734150;13967
734159;14035
734167;13986
734175;14062
734183;14036
734191;14098
734200;14020
734208;14121
734216;14068
734224;14149
734232;14119
734241;14163
734249;14062
734257;14071
734265;13882
734273;13684
734281;13542
734290;13560
734298;13536
734306;13597
734314;13547
734322;13649
734334;13798
734342;13984
734350;13909
734358;13928
734366;13799
734375;13820
734383;13708
734391;13709
734399;13571
734407;13628
734416;13746
734424;11974
734432;8008
734440;5566
734448;8443
734457;15590
734465;16223
734473;15393
734481;14577
734489;14312
734498;13934
734506;13761
734514;13639
734522;13615
734530;13538
734538;13518
734547;13428
734555;13411
734563;13310
734571;13273
734579;13164
734588;13068
734596;12918
734604;12786
734612;12554
734620;12262
734629;12007
734640;11829
734648;11747
734656;11821
734664;11836
734673;12040
734681;12197
734689;12558
734697;12908
734705;13400
734714;13748
734722;14023
734730;14152
734738;14270
734746;14268
734755;14297
734763;14286
734771;14276
734779;14195
734787;14198
734796;14160
734804;14140
734812;14093
734820;14122
734828;14132
734836;14147
734845;14174
734853;14197
734861;14216
734869;14217
734877;14313
734886;14291
734894;14379
734902;14333
734910;14287
734918;14205
734927;14214
734938;14195
734946;14349
734954;14282
734962;14013
734971;13680
734979;13496
734987;13389
734995;13387
735003;13478
735012;13552
735020;13530
735028;13662
735036;13733
735044;13777
735053;13740
735061;13714
735069;13651
735077;13661
735085;13590
735094;13609
735102;13561
735110;14175
735118;12988
735126;9312
735134;5493
735143;6308
735151;14115
735159;16547
735167;15888
735175;15126
735184;14825
735192;14631
735200;14389
735208;14339
735216;14207
735225;14190
735233;14017
735244;13944
735252;13740
735260;13536
735269;13322
735277;13233
735285;12999
735293;12836
735301;12565
735310;12292
735318;11907
735326;11682
735334;11374
735342;11269
735351;11166
735359;11239
735367;11279
735375;11508
735383;11658
735391;12078
735400;12388
735408;12867
735416;13143
735424;13466
735432;13595
735441;13779
735449;13794
735457;13896
735465;13803
735473;13788
735482;13602
735490;13592
735498;13470
735506;13483
735514;13358
735523;13356
735531;13192
735539;13246
735550;13314
735558;13769
735567;13518
735575;13269
735583;12765
735591;12932
735599;13066
735608;13230
735616;13137
735624;13053
735632;12778
735640;12729
735649;12609
735657;12656
735665;12657
735673;12852
735681;12996
735689;13209
735698;13218
735706;13291
735714;13260
735722;13363
735730;13375
735739;13379
735747;13311
735755;13352
735763;13926
735771;12846
735780;9160
735788;5839
735796;7226
735804;15481
735812;16894
735821;16005
735829;15059
735837;14783
735845;14437
735856;14180
735865;14070
735873;14044
735881;13918
735889;13920
735897;13813
735906;13847
735914;13750
735922;13758
735930;13614
735938;13579
735946;13341
735955;13215
735963;12962
735971;12689
735979;12390
735987;12278
735996;12215
736004;12328
736012;12393
736020;12647
736028;12872
736037;13186
736045;13479
736053;13739
736061;13905
736069;14030
736078;14184
736086;14316
736094;14466
736102;14495
736110;14507
736119;14523
736127;14542
736135;14510
736143;14485
736154;14504
736163;14522
736171;14555
736179;14530
736187;14576
736195;14514
736204;14490
736212;14468
736220;14524
736228;14539
736236;14583
736244;14601
736253;14559
736261;14500
736269;14273
736277;14077
736285;13918
736294;13953
736302;13910
736310;13947
736318;13993
736326;14108
736335;14158
736343;14199
736351;14152
736359;14122
736367;14028
736376;14029
736384;13934
736392;13899
736400;13740
736408;13853
736417;13981
736425;11913
736433;7601
736441;4870
736449;8771
736460;16760
736468;15898
736476;14985
736484;14427
736493;14241
736502;13890
736510;13725
736518;13617
736526;13586
736534;13499
736542;13482
736551;13385
736559;13399
736567;13236
736575;13207
736583;13104
736592;13011
736600;12752
736608;12608
736616;12344
736624;12154
736633;11916
736641;11873
736649;11798
736657;11912
736665;11944
736674;12178
736682;12371
736690;12784
736698;13151
736706;13626
736714;13888
736723;14219
736731;14337
736739;14460
736747;14471
736758;14624
736766;14617
736774;14654
736782;14582
736790;14530
736798;14427
736807;14428
736815;14343
736823;14329
736831;14238
736839;14245
736848;14172
736856;14192
736864;14169
736872;14180
736880;14084
736889;14141
736897;14095
736905;14121
736913;14052
736921;14039
736930;13919
736938;13684
736946;13510
736954;13618
736962;13658
736970;13707
736979;13707
736987;13891
736995;14014
737003;14169
737011;14184
737020;14217
737028;14195
737036;14247
737044;14233
737052;14258
737064;14193
737072;14685
737080;14261
737088;11337
737096;6942
737105;5483
737113;12099
737121;17247
737129;16529
737137;15621
737146;14988
737154;14816
737162;14416
737170;14218
737178;14035
737187;13928
737195;13751
737203;13670
737211;13536
737219;13500
737228;13335
737236;13240
737244;13075
737252;12970
737260;12807
737268;12662
737277;12458
737285;12232
737293;11969
737301;11822
737309;11760
737318;11770
737326;11869
737334;12019
737342;12254
737350;12560
737359;12994
737370;13681
737378;14029
737386;14266
737394;14387
737403;14528
737411;14513
737419;14517
737427;14396
737435;14327
737444;14220
737452;14172
737460;14055
737468;14019
737476;13998
737485;14029
737493;13965
737501;13938
737509;13878
737517;13926
737526;13916
737534;13910
737542;13887
737550;13878
737558;13870
737566;13853
737575;13728
737583;13651
737591;13637
737599;13650
737607;13737
737616;13763
737624;13909
737632;13962
737640;14124
737648;14152
737657;14213
737668;14245
737676;14296
737684;14245
737692;14132
737701;14082
737709;13966
737717;14343
737725;13806
737733;11127
737742;7413
737750;6565
737758;13453
737766;17459
737774;16706
737783;15661
737791;15031
737799;14738
737807;14443
737815;14122
737823;13933
737832;13723
737840;13626
737848;13519
737856;13465
737864;13389
737873;13384
737881;13245
737889;13155
737897;12929
737905;12817
737914;12519
737922;12255
737930;11887
737938;11684
737946;11408
737955;11370
737963;11368
737974;11634
737982;11881
737990;12285
737999;12654
738007;13211
738015;13698
738023;14162
738031;14366
738040;14573
738048;14623
738056;14743
738064;14667
738072;14752
738081;14637
738089;14667
738097;14487
738105;14390
738113;14189
738121;14153
738130;14000
738138;13972
738146;13858
738154;13890
738162;13795
738171;13798
738179;13653
738187;13600
738195;13385
738203;13377
738212;13348
738220;13418
738228;13386
738236;13518
738244;13497
738253;13604
738261;13614
738269;13630
738280;13614
738288;13685
738297;13594
738305;13572
738313;13391
738321;13364
738329;13226
738338;13609
738346;12098
738354;8659
738362;6059
738370;7735
738378;15416
738387;16464
738395;15550
738403;14720
738411;14244
738419;14054
738428;13634
738436;13444
738444;13292
738452;13197
738460;13114
738469;13071
738477;12972
738485;12969
738493;12890
738501;12870
738510;12725
738518;12582
738526;12449
738534;12300
738542;12083
738551;11861
738559;11720
738567;11685
738578;11769
738586;12003
738595;12072
738603;12344
738611;12649
738619;13063
738627;13411
738636;13759
738644;13936
738652;14153
738660;14234
738668;14354
738676;14388
738685;14443
738693;14449
738701;14445
738709;14441
738717;14446
738726;14398
738734;14327
738742;14276
738750;14199
738758;14155
738767;14127
738775;14086
738783;13995
738791;13952
738799;13891
738808;13746
738816;13634
738824;13647
738832;13621
738840;13702
738849;13725
738857;13812
738865;13845
738873;13987
738883;14057
738892;14080
738900;14030
738908;14004
738916;13964
738924;13964
738932;13925
738941;13848
738949;13975
738957;13836
738965;11768
738973;8054
738982;6159
738990;10672
738998;16853
739006;16665
739014;15741
739023;14958
739031;14620
739039;14299
739047;13957
739055;13835
739064;13682
739072;13626
739080;13458
739088;13442
739096;13298
739105;13257
739113;13087
739121;13042
739129;12825
739137;12756
739145;12450
739154;12324
739162;12078
739170;11952
739178;11776
739190;11879
739198;12016
739206;12168
739214;12320
739222;12766
739230;13162
739239;13625
739247;13954
739255;14299
739263;14493
739271;14687
739280;14669
739288;14748
739296;14657
739304;14696
739312;14565
739321;14537
739329;14360
739337;14303
739345;14145
739353;14155
739362;14010
739370;14024
739378;13850
739386;13872
739394;13753
739402;13805
739411;13740
739419;13685
739427;13564
739435;13496
739443;13316
739452;13369
739460;13360
739468;13461
739476;13531
739487;13781
739496;13844
739504;13997
739512;13960
739520;14044
739528;13979
739537;14066
739545;13985
739553;14010
739561;13868
739569;13849
739578;13905
739586;13915
739594;11858
739602;7974
739610;5558
739619;9527
739627;16112
739635;16330
739643;15435
739651;14730
739660;14314
739668;13921
739676;13581
739684;13486
739692;13318
739700;13276
739709;13227
739717;13300
739725;13289
739733;13246
739741;13095
739750;13022
739758;12890
739766;12748
739774;12521
739782;12311
739802;12162
739810;12055
739818;12026
739826;12009
739835;12249
739843;12461
739851;12823
739859;13202
739867;13680
739876;14161
739884;14567
739892;14789
739900;15019
739908;15120
739917;15166
739925;15112
739933;15008
739941;14865
739949;14691
739958;14480
739966;14281
739974;14118
739982;13979
739990;13894
739998;13806
740007;13738
740015;13643
740023;13584
740031;13518
740039;13545
740048;13473
740056;13481
740064;13412
740072;13459
740080;13425
740089;13412
740097;13242
740108;13093
740116;13150
740124;13234
740133;13291
740141;13273
740149;13262
740157;13299
740165;13394
740174;13455
740182;13459
740190;13469
740198;13393
740206;13396
740215;13325
740223;13310
740231;13179
740239;13508
740247;13204
740255;10584
740264;6307
740272;4539
740280;9651
740288;15633
740296;15634
740305;14886
740313;14339
740321;14155
740329;13799
740337;13668
740346;13530
740354;13542
740362;13442
740370;13455
740378;13345
740387;13336
740395;13213
740406;13156
740414;13061
740422;12916
740431;12707
740439;12527
740447;12273
740455;12109
740463;11925
740472;11882
740480;11850
740488;11986
740496;12105
740504;12390
740513;12684
740521;13161
740529;13529
740537;13940
740545;14213
740553;14521
740562;14649
740570;14776
740578;14769
740586;14829
740594;14738
740603;14688
740611;14545
740619;14454
740627;14350
740635;14301
740644;14136
740652;14131
740660;14018
740668;14063
740676;13987
740685;13988
740693;13948
740701;13953
740712;13945
740720;14030
740729;13893
740737;13940
740745;13861
740753;13873
740761;13771
740770;13711
740778;13434
740786;13322
740794;13274
740802;13356
740810;13327
740819;13399
740827;13409
740835;13566
740843;13632
740851;13741
740860;13720
740868;13775
740876;13723
740884;13749
740892;13686
740901;13667
740909;13601
740917;13697
740925;13964
740933;12069
740942;7804
740950;4874
740958;7994
740966;15637
740974;16113
740983;15255
740991;14556
740999;14344
741007;14016
741017;13844
741026;13725
741034;13642
741042;13484
741050;13456
741058;13313
741066;13255
741075;13104
741083;13008
741091;12833
741099;12710
741107;12477
741116;12284
741124;12046
741132;11865
741140;11684
741148;11647
741157;11631
741165;11705
741173;11789
741181;11919
741189;12144
741198;12578
741206;12947
741215;13365
741223;13740
741231;13956
741240;14244
741248;14259
741256;14303
741264;14179
741272;14169
741281;13882
741289;13817
741297;13574
741305;13710
741315;13584
741324;13517
741332;13272
741340;13312
741348;13291
741356;13558
741364;13790
741373;14172
741381;14407
741389;14781
741397;14807
741405;15060
741414;15060
741422;15214
741430;15058
741438;15226
741446;15146
741455;15313
741463;15150
741471;15091
741479;14772
741487;14968
741496;14939
741504;15151
741512;14779
741520;14919
741528;14476
741537;14641
741545;14683
741553;15087
741561;15154
741569;15479
741577;15514
741586;15682
741594;15549
741602;15650
741610;15520
741622;15549
741630;13342
741638;9726
741646;8602
741654;13708
741662;18421
741671;17967
741679;16668
741687;15744
741695;15136
741703;14741
741712;14227
741720;14160
741728;13886
741736;13812
741744;13502
741753;13447
741761;13127
741769;13049
741777;12761
741785;12713
741794;12312
741802;12184
741810;11801
741818;11558
741826;11088
741834;10882
741843;10568
741851;10564
741859;10484
741867;10689
741875;10758
741884;11120
741892;11378
741900;11912
741908;12281
741916;12788
741928;13157
741936;13512
741944;13512
741952;13759
741960;13675
741969;13827
741977;13710
741985;13802
741993;13670
742001;13716
742010;13421
742018;13462
742026;13268
742034;13348
742042;13260
742051;13397
742059;13500
742067;13624
742075;13614
742083;13726
742092;13655
742100;13596
742108;13459
742116;13341
742124;13123
742132;13089
742141;13039
742149;13024
742157;12975
742165;13092
742173;13283
742182;13491
742190;13635
742198;13701
742206;13753
742214;13841
742226;13930
742234;14013
742242;13923
742250;13949
742258;13822
742267;14103
742275;13868
742283;11514
742291;7824
742299;6745
742308;11808
742316;17062
742324;16512
742332;15579
742340;14723
742349;14338
742357;14030
742365;13795
742373;13632
742381;13559
742390;13372
742398;13266
742406;13222
742414;13126
742422;13065
742430;12983
742439;12864
742447;12770
742455;12625
742463;12426
742471;12182
742480;11927
742488;11754
742496;11643
742504;11620
742512;11696
742521;11895
742532;12139
742540;12537
742548;12979
742556;13410
742565;13835
742573;14188
742581;14411
742589;14571
742597;14669
742606;14747
742614;14795
742622;14805
742630;14810
742638;14801
742647;14694
742655;14685
742663;14576
742671;14480
742679;14404
742687;14349
742696;14256
742704;14262
742712;14204
742720;14222
742728;14113
742737;14154
742745;14148
742753;14117
742761;14037
742769;13997
742778;13762
742786;13648
742794;13587
742802;13617
742810;13569
742819;13639
742830;13796
742838;13975
742846;13914
742854;13858
742863;13807
742871;13794
742879;13731
742887;13765
742895;13757
742904;13750
742912;13693
742920;14056
742928;12605
742936;9106
742945;6503
742953;8026
742961;15201
742969;16270
742977;15455
742985;14637
742994;14177
743002;14073
743010;13729
743018;13661
743026;13518
743035;13430
743043;13235
743051;13151
743059;13057
743067;13030
743076;12896
743084;12819
743092;12704
743100;12634
743108;12426
743117;12324
743125;12025
743136;11811
743144;11643
743152;11641
743161;11565
743169;11702
743177;11822
743185;12163
743193;12555
743202;13092
743210;13455
743218;13850
743226;14056
743234;14273
743242;14360
743251;14442
743259;14443
743267;14495
743275;14457
743283;14509
743292;14407
743300;14419
743308;14291
743316;14285
743324;14153
743333;14111
743341;14004
743349;13933
743357;13897
743365;13924
743374;13858
743382;13893
743390;13895
743398;13944
743406;13965
743415;13983
743423;13900
743431;13841
743441;13706
743449;13721
743458;13597
743466;13619
743474;13602
743482;13700
743490;13741
743498;13869
743507;13863
743515;13948
743523;13934
743531;13939
743539;13870
743548;13823
743556;13759
743564;13751
743572;13713
743580;14052
743589;12679
743597;9298
743605;6697
743614;8218
743622;15409
743631;16561
743639;15847
743647;14937
743655;14475
743663;14187
743672;13891
743680;13811
743688;13785
743696;13741
743704;13686
743713;13630
743721;13614
743729;13528
743737;13447
743747;13427
743756;13271
743764;13114
743772;12884
743780;12665
743788;12361
743796;12148
743805;11906
743813;11757
743821;11749
743829;11829
743837;11892
743846;12134
743854;12509
743862;12960
743870;13392
743878;13747
743887;14040
743895;14247
743903;14393
743911;14408
743919;14417
743928;14409
743936;14428
743944;14365
743952;14374
743960;14332
743969;14309
743977;14197
743985;14190
743993;14098
744001;14084
744009;13997
744018;14015
744026;13961
744034;14013
744045;14054
744054;14172
744062;14099
744070;14053
744078;14004
744086;14021
744094;13951
744103;13943
744111;13870
744119;13808
744127;13617
744135;13462
744144;13347
744152;13400
744160;13399
744168;13419
744176;13334
744185;13404
744193;13512
744201;13606
744209;13516
744217;13536
744226;13499
744234;13511
744242;13430
744250;13453
744258;13309
744266;13440
744275;13355
744283;11665
744291;8074
744299;6277
744307;9699
744316;15970
744324;16178
744332;15341
744340;14549
744351;14265
744360;13953
744368;13813
744376;13631
744384;13590
744392;13426
744401;13390
744409;13257
744417;13230
744425;13101
744433;13034
744442;12858
744450;12750
744458;12552
744466;12452
744474;12190
744483;12046
744491;11779
744499;11626
744507;11541
744515;11619
744524;11679
744532;11847
744540;12109
744548;12559
744556;12984
744564;13508
744573;13828
744581;14093
744589;14272
744597;14427
744605;14456
744614;14533
744622;14461
744630;14424
744638;14341
744646;14271
744658;14233
744666;14264
744674;14161
744682;14178
744690;14093
744699;14108
744707;14030
744715;14011
744723;13895
744731;13945
744740;13899
744748;13944
744756;13893
744764;13922
744772;13909
744781;13913
744789;13839
744797;13839
744805;13790
744813;13754
744822;13534
744830;13402
744838;13411
744846;13460
744854;13487
744862;13507
744871;13486
744879;13571
744887;13693
744895;13696
744903;13648
744912;13596
744920;13624
744928;13628
744936;13653
744944;13615
744956;13563
744964;13976
744972;12788
744980;9584
744988;6388
744997;7139
745005;14170
745013;16322
745021;15700
745029;14835
745038;14470
745046;14180
745054;13876
745062;13698
745070;13550
745079;13519
745087;13454
745095;13406
745103;13346
745111;13283
745119;13192
745128;13075
745136;13022
745144;12853
745152;12728
745160;12538
745169;12326
745177;12053
745185;11844
745193;11647
745201;11587
745210;11555
745218;11651
745226;11808
745234;12152
745242;12494
745251;13034
745262;13610
745270;13994
745278;14171
745286;14263
745295;14338
745303;14374
745311;14290
745319;14308
745327;14255
745336;14203
745344;14114
745352;14080
745360;14008
745368;13967
745377;13878
745385;13881
745393;13844
745401;13864
745409;13779
745417;13795
745426;13765
745434;13857
745442;13798
745450;13862
745458;13889
745467;13944
745475;13875
745483;13922
745491;13899
745499;13933
745508;13863
745516;13877
745524;13840
745532;13876
745540;13756
745549;13660
745560;13498
745568;13555
745576;13600
745584;13647
745593;13637
745601;13734
745609;13779
745617;13939
745625;13906
745634;13895
745642;13822
745650;13883
745658;13863
745666;13824
745674;13712
745683;13653
745691;14037
745699;13120
745707;10029
745715;6685
745724;6802
745732;13536
745740;16222
745748;15681
745756;14790
745765;14400
745773;14104
745781;13842
745789;13707
745797;13670
745806;13592
745814;13595
745822;13468
745830;13396
745838;13297
745847;13250
745855;13125
745865;13096
745873;12985
745881;12878
745890;12641
745898;12447
745906;12139
745914;12010
745922;11797
745930;11809
745939;11825
745947;11999
745955;12125
745963;12468
745971;12812
745980;13325
745988;13677
745996;14041
746004;14303
746012;14466
746021;14498
746029;14601
746038;14564
746046;14531
746054;14496
746063;14466
746071;14422
746079;14379
746087;14366
746095;14306
746104;14230
746112;14175
746120;14120
746128;14072
746136;14047
746145;13974
746153;14025
746161;14049
746171;14121
746179;14176
746188;14121
746196;14081
746204;13986
746212;13976
746220;13874
746228;13830
746237;13831
746245;13875
746253;13855
746261;13880
746269;13855
746278;13830
746286;13731
746294;13563
746302;13439
746310;13384
746319;13389
746327;13417
746335;13418
746343;13414
746351;13507
746360;13607
746368;13722
746376;13685
746384;13689
746392;13653
746401;13699
746409;13650
746417;13624
746425;13506
746433;13842
746441;13342
746450;11032
746458;7349
746469;7177
746477;14127
746486;16310
746494;15634
746502;14783
746510;14404
746518;14088
746526;13842
746535;13744
746543;13619
746551;13559
746559;13428
746567;13377
746576;13321
746584;13280
746592;13172
746600;13108
746608;12961
746617;12922
746625;12716
746633;12568
746641;12338
746649;12146
746658;11837
746666;11740
746674;11627
746682;11704
746690;11750
746698;11970
746707;12190
746715;12611
746723;13026
746731;13514
746739;13768
746748;14106
746756;14232
746764;14384
746775;14475
746783;14599
746792;14522
746800;14482
746808;14355
746816;14314
746824;14257
746833;14269
746841;14155
746849;14163
746857;14058
746865;14050
746874;13928
746882;13951
746890;13882
746898;13930
746906;13863
746915;13854
746923;13776
746931;13820
746939;13763
746947;13827
746956;13816
746964;13865
746972;13859
746980;13899
746988;13851
746996;13850
747005;13841
747013;13895
747021;13846
747029;13806
747037;13592
747046;13516
747054;13451
747062;13484
747070;13494
747081;13613
747090;13664
747098;13766
747106;13801
747114;13873
747122;13790
747131;13796
747139;13769
747147;13772
747155;13659
747163;13665
747172;13612
747180;13826
747188;12191
747196;8660
747204;6250
747213;8514
747221;15486
747229;16300
747237;15393
747245;14596
747254;14310
747262;14055
747270;13819
747278;13726
747286;13674
747294;13665
747303;13629
747311;13562
747319;13547
747327;13502
747335;13463
747344;13366
747352;13229
747360;13050
747368;12848
747379;12606
747388;12312
747396;12000
747404;11761
747412;11656
747420;11588
747429;11676
747437;11788
747445;12021
747453;12356
747461;12810
747470;13294
747478;13712
747486;13996
747494;14206
747502;14319
747511;14399
747519;14446
747527;14466
747535;14399
747543;14336
747551;14324
747560;14296
747568;14258
747576;14181
747584;14127
747592;14050
747601;13999
747609;13957
747617;13926
747625;13885
747633;13921
747642;13873
747650;13905
747658;13866
747666;13903
747674;13911
747686;14050
747694;14106
747702;14044
747710;13967
747718;13931
747727;13896
747735;13900
747743;13880
747751;13793
747759;13661
747768;13510
747776;13405
747784;13435
747792;13498
747800;13530
747809;13481
747817;13577
747825;13618
747833;13765
747841;13716
747849;13696
747858;13617
747866;13641
747874;13569
747882;13567
747890;13499
747899;13482
747907;13789
747915;12575
747923;9175
747931;6382
747940;7420
747948;14848
747956;16296
747964;15511
747972;14512
747981;14200
747992;13848
748000;13752
748008;13615
748016;13539
748025;13486
748033;13463
748041;13248
748049;13215
748057;13150
748066;13106
748074;12987
748082;12939
748090;12761
748098;12713
748106;12496
748115;12270
748123;11988
748131;11793
748139;11629
748147;11685
748156;11776
748164;11991
748172;12178
748180;12551
748188;12888
748197;13347
748205;13734
748213;14085
748221;14276
748229;14428
748238;14433
748246;14531
748254;14567
748262;14557
748270;14504
748279;14510
748289;14423
748297;14419
748305;14293
748313;14247
748322;14111
748330;14098
748338;14004
748346;14014
748354;13913
748362;13935
748371;13908
748379;13946
748387;13924
748395;13981
748403;13922
748413;13911
748421;13812
748429;13819
748437;13800
748445;13844
748454;13806
748462;13795
748470;13751
748478;13644
748486;13654
748495;13723
748503;13738
748511;13785
748519;13727
748527;13708
748536;13750
748544;13845
748552;13807
748560;13731
748568;13665
748577;13604
748585;13523
748595;13460
748603;13307
748611;13363
748620;13347
748628;11194
748636;7153
748644;4955
748652;9007
748660;15682
748669;15499
748677;14484
748685;13756
748693;13592
748701;13254
748710;13099
748718;12986
748726;12846
748734;12809
748742;12800
748751;12798
748759;12766
748767;12745
748775;12727
748783;12730
748792;12637
748800;12574
748808;12436
748816;12286
748824;12068
748833;11882
748841;11698
748849;11642
748857;11664
748865;11830
748873;11971
748882;12250
748890;12551
748901;13242
748909;13739
748918;14089
748926;14354
748934;14561
748942;14698
748950;14827
748958;14902
748967;14932
748975;14927
748983;14934
748991;14907
748999;14855
749008;14766
749016;14736
749024;14632
749032;14548
749040;14459
749049;14399
749057;14271
749065;14238
749073;14163
749081;14187
749090;14179
749098;14239
749106;14219
749114;14268
749122;14161
749130;14146
749139;13906
749147;13823
749155;13731
749163;13760
749171;13710
749180;13830
749188;13898
749199;14235
749207;14285
749215;14303
749224;14240
749232;14220
749240;14186
749248;14166
749256;14070
749265;14031
749273;13854
749281;14293
749289;13126
749297;9747
749306;6474
749314;7198
749322;15106
749330;17145
749338;16130
749347;15169
749355;14617
749363;14434
749371;14131
749379;14023
749388;13899
749396;13831
749404;13721
749412;13657
749420;13516
749428;13458
749437;13322
749445;13276
749453;13145
749461;13023
749469;12838
749478;12625
749486;12360
749494;12160
749505;11876
749513;11874
749522;11866
749530;11985
749538;12044
749546;12334
749554;12627
749563;13014
749571;13338
749579;13721
749587;13924
749595;14147
749604;14257
749612;14325
749620;14322
749628;14388
749636;14337
749645;14349
749653;14270
749661;14234
749669;14183
749677;14171
749686;14125
749694;14106
749702;14061
749710;14055
749718;13999
749726;14023
749735;14015
749743;14054
749751;14055
749759;14045
749767;13973
749776;13829
749784;13763
749792;13585
749800;13416
749811;13457
749820;13495
749828;13562
749836;13557
749844;13624
749852;13664
749861;13760
749869;13757
749877;13742
749885;13713
749893;13730
749902;13684
749910;13697
749918;13604
749926;13491
749934;13934
749943;12941
749951;9666
749959;6213
749967;6485
749975;14274
749983;16610
749992;15727
750000;14807
750008;14430
750016;14150
750024;13844
750033;13729
750041;13615
750049;13519
750057;13458
750065;13433
750074;13356
750082;13322
750090;13189
750098;13116
750109;13069
750118;12995
750126;12779
750134;12591
750142;12407
750150;12217
750159;11999
750167;11933
750175;11920
750183;12012
750191;12163
750200;12346
750208;12658
750216;13085
750224;13472
750232;13876
750241;14152
750249;14396
750257;14493
750265;14588
750273;14544
750281;14543
750290;14466
750298;14413
750306;14354
750314;14340
750322;14224
750331;14176
750339;14048
750347;14063
750355;13983
750363;13989
750372;13939
750380;13978
750388;13920
750396;14052
750404;14086
750415;14259
750423;14246
750431;14147
750439;13855
750447;13721
750456;13615
750464;13677
750472;13677
750480;13785
750488;13852
750497;14018
750505;14039
750513;14103
750521;14053
750529;14070
750537;13984
750546;13978
750554;13885
750562;13837
750570;13706
750578;13748
750587;13913
750595;12117
750603;8141
750611;5521
750619;8606
750628;15996
750636;16199
750644;15292
750652;14507
750660;14306
750669;13984
750677;13792
750685;13634
750693;13559
750701;13458
750710;13414
750721;13332
750729;13323
750737;13195
750745;13129
750754;12947
750762;12881
750770;12703
750778;12546
750786;12301
750794;12107
750803;11868
750811;11716
750819;11630
750827;11689
750835;11768
750844;11962
750852;12119
750860;12478
750868;12893
750876;13348
750885;13654
750893;13940
750901;14107
750909;14240
750917;14302
750926;14346
750934;14271
750942;14214
750950;14148
750958;14094
750967;14070
750975;14046
750983;13986
750991;13927
750999;13899
751007;13841
751019;13900
751027;13915
751035;13867
751043;13917
751052;13909
751060;13928
751068;13942
751076;13931
751084;13834
751092;13684
751101;13469
751109;13392
751117;13322
751125;13402
751133;13445
751142;13516
751150;13624
751158;13753
751166;13790
751174;13815
751183;13796
751191;13823
751199;13813
751207;13796
751215;13807
751224;13766
751232;13682
751240;14151
751248;13229
751256;9946
751265;6267
751273;6166
751281;13769
751289;16613
751297;15902
751305;14963
751314;14567
751325;14237
751333;14048
751341;13932
751350;13844
751358;13779
751366;13665
751374;13557
751382;13456
751390;13323
751399;13206
751407;13063
751415;12994
751423;12826
751431;12656
751440;12437
751448;12230
751456;11960
751464;11813
751472;11698
751481;11767
751489;11830
751497;11969
751505;12135
751513;12441
751522;12794
751530;13290
751538;13624
751546;13964
751554;14149
751562;14328
751571;14358
751579;14442
751587;14389
751595;14435
751603;14348
751612;14304
751620;14230
751631;14283
751639;14251
751647;14205
751656;14178
751664;14164
751672;14066
751680;14048
751688;14022
751697;14103
751705;14054
751713;14096
751721;14081
751729;14126
751738;14107
751746;14090
751754;13997
751762;13775
751770;13606
751779;13670
751787;13697
751795;13770
751803;13813
751811;13920
751820;13992
751828;14168
751836;14148
751844;14183
751852;14144
751860;14169
751869;14074
751877;14076
751885;13943
751893;13904
751901;13754
751910;14156
751918;13353
751929;8929
751937;5840
751945;7577
751954;15385
751962;16567
751970;15630
751978;14807
751986;14440
751995;14156
752003;13842
752011;13733
752019;13601
752027;13610
752036;13589
752044;13580
752052;13489
752060;13484
752068;13356
752077;13286
752085;13115
752093;12979
752101;12797
752109;12619
752118;12347
752126;12102
752134;11854
752142;11760
752150;11726
752158;11799
752167;11917
752175;12108
752183;12352
752191;12745
752199;13147
752208;13576
752216;13868
752224;14079
752234;14316
752242;14437
752251;14390
752259;14383
752267;14336
752275;14295
752283;14186
752292;14133
752300;14024
752308;14029
752316;13952
752324;13996
752333;13972
752342;13967
752350;13930
752358;13892
752366;13827
752375;13848
752383;13841
752391;13802
752399;13751
752407;13735
752415;13684
752424;13700
752432;13698
752440;13745
752448;13748
752456;13662
752465;13474
752473;13392
752481;13460
752489;13505
752497;13533
752506;13558
752514;13671
752522;13784
752530;13959
752540;14068
752549;14084
752557;14057
752565;14020
752573;14060
752581;14024
752590;13933
752598;13844
752606;13915
752614;13928
752622;11846
752631;7825
752639;5645
752647;9431
752655;16230
752663;16323
752671;15337
752680;14631
752688;14367
752696;14090
752704;13831
752712;13756
752721;13684
752729;13620
752737;13503
752745;13512
752753;13451
752762;13376
752770;13242
752778;13191
752786;13045
752794;12958
752803;12753
752811;12556
752819;12301
752827;12112
752838;11915
752847;11924
752855;11932
752863;12001
752871;12069
752879;12323
752888;12584
752896;12977
752904;13366
752912;13758
752920;13993
752929;14211
752937;14285
752945;14379
752953;14331
752961;14345
752969;14263
752978;14243
752986;14122
752994;14156
753002;14113
753010;14123
753019;13995
753027;13951
753035;13863
753043;13851
753051;13806
753060;13863
753068;13876
753076;13918
753084;13817
753092;13863
753101;13840
753109;13848
753117;13747
753125;13761
753133;13731
753145;13840
753153;13840
753161;13879
753169;13717
753177;13613
753186;13423
753194;13431
753202;13391
753210;13444
753218;13392
753226;13451
753235;13518
753243;13658
753251;13702
753259;13789
753267;13742
753276;13784
753284;13734
753292;13729
753300;13691
753308;13653
753317;13492
753325;13856
753333;13276
753341;10506
753349;6674
753358;5930
753366;12231
753374;16471
753382;15796
753390;14848
753399;14265
753407;14041
753415;13722
753423;13554
753431;13455
753439;13394
753451;13335
753459;13377
753467;13326
753475;13285
753484;13105
753492;13014
753500;12840
753508;12743
753516;12581
753524;12424
753533;12209
753541;12014
753549;11782
753557;11686
753565;11639
753574;11735
753582;11827
753590;12006
753598;12299
753606;12717
753615;13151
753623;13553
753631;13899
753639;14207
753647;14371
753656;14488
753664;14519
753672;14500
753680;14513
753688;14466
753697;14439
753705;14390
753713;14378
753721;14412
753729;14389
753737;14281
753749;14277
753757;14278
753765;14210
753773;14182
753782;14142
753790;14173
753798;14150
753806;14172
753814;14183
753822;14181
753831;14131
753839;14146
753847;14193
753855;14185
753863;14183
753872;14192
753880;14124
753888;13959
753896;13752
753904;13651
753913;13643
753921;13636
753929;13645
753937;13625
753945;13701
753954;13792
753962;13899
753970;13869
753978;13860
753986;13848
753994;13896
754003;13843
754011;13867
754019;13750
754027;13692
754035;13734
754044;13801
754055;10445
754063;6834
754071;6266
754079;13017
754088;16741
754096;16023
754104;15003
754112;14486
754120;14167
754129;13850
754137;13669
754145;13587
754153;13467
754161;13495
754170;13392
754178;13364
754186;13204
754194;13131
754202;12967
754211;12858
754219;12702
754227;12583
754235;12416
754243;12235
754252;11933
754260;11793
754268;11612
754276;11627
754284;11640
754292;11824
754301;11952
754309;12194
754317;12514
754325;12981
754333;13369
754342;13741
754350;14020
754361;14419
754369;14563
754377;14589
754386;14561
754394;14568
754402;14521
754410;14479
754418;14304
754427;14295
754435;14207
754443;14165
754451;14086
754459;14119
754468;14045
754476;14023
754484;13985
754492;13991
754500;13943
754509;13979
754517;13969
754525;13968
754533;13985
754541;13992
754550;13939
754558;13978
754566;13904
754574;13902
754582;13852
754590;13908
754599;13845
754607;13744
754615;13512
754623;13445
754631;13427
754640;13452
754648;13500
754659;13674
754667;13768
754675;13889
754684;13876
754692;13896
754700;13827
754708;13861
754716;13795
754725;13794
754733;13750
754741;13735
754749;13583
754757;13782
754766;13606
754774;11348
754782;7414
754790;5899
754798;10691
754807;16585
754815;16298
754823;15328
754831;14626
754839;14387
754847;14041
754856;13799
754864;13672
754872;13539
754880;13487
754888;13424
754897;13338
754905;13270
754913;13181
754921;13107
754929;12996
754938;12820
754946;12671
754954;12480
754964;12275
754972;12120
754981;11837
754989;11675
754997;11584
755005;11640
755013;11729
755022;11933
755030;12195
755039;12626
755047;13078
755055;13551
755064;13903
755072;14185
755080;14361
755088;14491
755096;14556
755105;14603
755113;14624
755121;14590
755129;14551
755137;14454
755145;14379
755154;14294
755162;14208
755170;14101
755178;14053
755186;13995
755195;13992
755203;13931
755211;13960
755219;13903
755227;13922
755236;13856
755244;13925
755252;13852
755262;13927
755270;13998
755279;13951
755287;13894
755295;13883
755303;13887
755311;13912
755320;13850
755328;13775
755336;13589
755344;13477
755352;13446
755361;13500
755369;13523
755377;13539
755385;13531
755393;13622
755401;13700
755410;13749
755418;13717
755426;13727
755434;13668
755442;13720
755451;13674
755459;13648
755467;13514
755475;13446
755483;13842
755492;12545
755500;8880
755508;5852
755516;7155
755524;14915
755533;16257
755541;15419
755549;14487
755557;14205
755568;13836
755577;13697
755585;13558
755593;13520
755601;13433
755609;13410
755618;13293
755626;13250
755634;13079
755642;12979
755650;12836
755658;12742
755667;12543
755675;12400
755683;12173
755691;12008
755699;11740
755708;11602
755716;11463
755724;11502
755732;11536
755740;11751
755749;11926
755757;12256
755765;12636
755773;13135
755781;13526
755790;13916
755798;14151
755806;14309
755814;14365
755822;14472
755831;14438
755839;14448
755847;14418
755855;14450
755863;14413
755875;14469
755883;14446
755891;14408
755899;14302
755907;14280
755916;14216
755924;14166
755932;14114
755940;14108
755948;14084
755956;14072
755965;14031
755973;14009
755981;14003
755989;14010
755997;13961
756006;14019
756014;13964
756022;13954
756030;13858
756038;13796
756047;13575
756055;13474
756063;13514
756071;13619
756079;13654
756088;13628
756096;13677
756104;13818
756112;13914
756120;13936
756129;13918
756137;13884
756145;13831
756153;13818
756161;13816
756173;13851
756181;13756
756189;14187
756197;13342
756205;10294
756214;6660
756222;6422
756230;13478
756238;16712
756246;15924
756254;14949
756263;14503
756271;14286
756279;14002
756287;13846
756295;13742
756304;13667
756312;13574
756320;13522
756328;13484
756336;13418
756345;13338
756353;13184
756361;13093
756369;12915
756377;12761
756386;12592
756394;12377
756402;12109
756410;11936
756418;11739
756426;11733
756435;11749
756443;11816
756451;11876
756459;12146
756467;12420
756479;13047
756487;13511
756495;13873
756503;14084
756511;14240
756520;14299
756528;14338
756536;14321
756544;14312
756552;14281
756561;14264
756569;14176
756577;14173
756585;14068
756593;14038
756602;13980
756610;13948
756618;13877
756626;13915
756634;13898
756643;13941
756651;13899
756659;13972
756667;13915
756675;13951
756684;13916
756692;13948
756700;13889
756708;13931
756716;13894
756724;13956
756733;13886
756741;13861
756749;13667
756757;13569
756765;13447
756774;13529
756785;13668
756793;13787
756801;13829
756809;13927
756818;13984
756826;13986
756834;13869
756842;13842
756850;13777
756859;13839
756867;13773
756875;13806
756883;13762
756891;13897
756900;13779
756908;11710
756916;8010
756924;6549
756932;10897
756941;16980
756949;16565
756957;15538
756965;14618
756973;14360
756982;14048
756990;13846
756998;13702
757006;13627
757014;13528
757022;13475
757031;13358
757039;13310
757047;13162
757055;13060
757063;12894
757072;12787
757083;12621
757091;12537
757099;12263
757107;12031
757116;11735
757124;11648
757132;11542
757140;11582
757148;11661
757157;11838
757165;12035
757173;12416
757181;12848
757189;13345
757198;13691
757206;13993
757214;14197
757222;14392
757230;14459
757239;14514
757247;14528
757255;14539
757263;14475
757271;14451
757279;14342
757288;14328
757296;14271
757304;14225
757312;14158
757320;14130
757329;14058
757337;13967
757345;13935
757353;13945
757361;13937
757370;13941
757378;13973
757389;14027
757397;14047
757405;14005
757414;13912
757422;13926
757430;13853
757438;13837
757446;13812
757455;13758
757463;13647
757471;13487
757479;13314
757487;13343
757496;13396
757504;13400
757512;13369
757520;13410
757528;13488
757537;13600
757545;13644
757553;13672
757561;13668
757569;13699
757577;13721
757586;13680
757594;13616
757602;13499
757610;13716
757618;13581
757627;11336
757635;7348
757643;5564
757651;10263
757659;16252
757668;15971
757676;15036
757684;14363
757695;14055
757703;13814
757712;13624
757720;13496
757728;13381
757736;13309
757744;13224
757753;13131
757761;13071
757769;12979
757777;12886
757785;12773
757794;12701
757802;12545
757810;12408
757818;12180
757826;11963
757834;11715
757843;11605
757851;11559
757859;11637
757867;11715
757875;11876
757884;12088
757892;12482
757900;12867
757908;13320
757916;13688
757925;14036
757933;14202
757941;14356
757949;14402
757957;14474
757966;14432
757974;14388
757982;14249
757992;14283
758000;14277
758009;14211
758017;14107
758025;14066
758033;13975
758041;13992
758050;13978
758058;14009
758066;13965
758074;13964
758082;13954
758090;14010
758099;13961
758107;14011
758115;13998
758123;14032
758131;13915
758140;13894
758148;13693
758156;13566
758164;13387
758172;13424
758181;13387
758190;13444
758198;13432
758206;13511
758214;13572
758223;13649
758231;13649
758239;13719
758247;13699
758255;13727
758264;13645
758272;13632
758280;13546
758288;13465
758298;13960
758307;13164
758315;9787
758323;6055
758331;5916
758339;13712
758348;16521
758356;15682
758364;14725
758372;14383
758380;14058
758388;13817
758397;13643
758405;13624
758413;13506
758421;13479
758429;13386
758438;13367
758446;13264
758454;13214
758462;13084
758470;12991
758479;12791
758487;12690
758495;12502
758503;12279
758511;11991
758520;11806
758528;11671
758536;11646
758544;11698
758552;11778
758561;11921
758569;12161
758577;12539
758585;13010
758593;13470
758605;14047
758613;14289
758621;14542
758629;14620
758637;14712
758646;14671
758654;14687
758662;14612
758670;14549
758678;14525
758686;14516
758695;14454
758703;14419
758711;14324
758719;14346
758727;14287
758736;14207
758744;14119
758752;14112
758760;14077
758768;14023
758777;13957
758785;13965
758793;13992
758801;14029
758809;13978
758818;13904
758826;13809
758834;13614
758842;13512
758850;13485
758858;13524
758867;13581
758875;13711
758883;13796
758891;13982
758903;14154
758911;14216
758919;14145
758927;14078
758935;14080
758943;14036
758952;14002
758960;13938
758968;13887
758976;14397
758984;13124
758993;9567
759001;6253
759009;7427
759017;15322
759025;16810
759034;15897
759042;14971
759050;14613
759058;14389
759066;14061
759075;13886
759083;13767
759091;13696
759099;13598
759107;13584
759116;13446
759124;13400
759132;13259
759140;13168
759148;12962
759156;12851
759165;12708
759173;12567
759181;12319
759189;12139
759197;11907
759217;12033
759225;12155
759233;12201
759241;12391
759250;12600
759258;12967
759266;13314
759274;13716
759282;14016
759291;14297
759299;14376
759307;14473
759315;14454
759323;14534
759332;14438
759340;14406
759348;14275
759356;14245
759364;14119
759373;14113
759381;14095
759389;14090
759397;13989
759405;14053
759414;13966
759422;14006
759430;13992
759438;14073
759446;14047
759454;14078
759463;13968
759471;13919
759479;13688
759487;13555
759495;13452
759504;13512
759515;13569
759523;13734
759531;13787
759539;13894
759548;13934
759556;13986
759564;13923
759572;13942
759580;13868
759589;13919
759597;13866
759605;13810
759613;13706
759621;13666
759630;13877
759638;12245
759646;8539
759654;6635
759662;9048
759671;16566
759679;17110
759687;16148
759695;15086
759703;14572
759711;14308
759720;13984
759728;13795
759736;13737
759744;13596
759752;13527
759761;13468
759769;13387
759777;13273
759785;13166
759793;13048
759802;12946
759810;12780
759821;12621
759829;12425
759837;12198
759846;11939
759854;11789
759862;11747
759870;11822
759878;11862
759887;12015
759895;12241
759903;12604
759911;12981
759919;13437
759928;13809
759936;14117
759944;14320
759952;14492
759960;14571
759969;14613
759977;14592
759985;14535
759993;14465
760001;14360
760009;14234
760018;14162
760026;14088
760034;13990
760042;13949
760050;13880
760059;13891
760067;13860
760075;13878
760083;13871
760091;13914
760100;13867
760108;13967
760116;13879
760126;13873
760134;13779
760143;13602
760151;13540
760159;13469
760167;13469
760175;13540
760184;13620
760192;13663
760200;13748
760208;13820
760216;13826
760225;13834
760233;13829
760241;13862
760249;13787
760257;13752
760265;13615
760274;13752
760282;13719
760291;11559
760299;7363
760307;5067
760316;9161
760324;15742
760332;15955
760340;15141
760348;14583
760357;14411
760365;14080
760373;13959
760381;13801
760389;13764
760398;13640
760406;13645
760414;13580
760422;13611
760432;13513
760441;13493
760449;13337
760457;13220
760465;13027
760473;12778
760482;12488
760490;12268
760498;11986
760506;11862
760514;11796
760522;11860
760531;11895
760539;12094
760547;12305
760555;12701
760563;13067
760572;13512
760580;13854
760588;14099
760596;14159
760604;14306
760613;14313
760621;14367
760629;14271
760637;14252
760645;14165
760654;14186
760662;14096
760670;14094
760678;14037
760686;14027
760695;13955
760703;13976
760711;13956
760719;13942
760730;13923
760739;13990
760747;13955
760755;13973
760763;13969
760771;14001
760780;13919
760788;13803
760796;13594
760804;13497
760812;13458
760820;13464
760829;13477
760837;13534
760845;13540
760853;13690
760861;13713
760870;13797
760878;13762
760886;13749
760894;13706
760902;13716
760911;13664
760919;13659
760927;13525
760935;14019
760943;13426
760952;10489
760960;6391
760968;5500
760976;12261
760984;16456
760993;15891
761001;14964
761009;14547
761017;14324
761025;14012
761037;13921
761045;13853
761053;13808
761061;13752
761069;13673
761078;13569
761086;13528
761094;13362
761102;13203
761110;13039
761118;12902
761127;12678
761135;12511
761143;12245
761151;12021
761159;11783
761168;11672
761176;11677
761184;11778
761192;11891
761200;12038
761209;12332
761217;12704
761225;13103
761233;13477
761241;13768
761250;14002
761258;14095
761266;14186
761274;14155
761282;14161
761290;14153
761299;14093
761307;14078
761315;14074
761323;14026
761335;14010
761343;13964
761351;13913
761359;13864
761367;13826
761375;13802
761384;13862
761392;13851
761400;13880
761408;13920
761416;13899
761425;13889
761433;13932
761441;13914
761449;13823
761457;13611
761466;13433
761474;13433
761482;13499
761490;13596
761498;13637
761507;13780
761515;13891
761523;14022
761531;14036
761539;14090
761548;14146
761556;14089
761564;14034
761572;14020
761580;13907
761588;13841
761597;14066
761605;13859
761613;11220
761621;7083
761629;5190
761641;14104
761649;16538
761657;15704
761665;14801
761673;14506
761682;14204
761690;13917
761698;13788
761706;13761
761714;13674
761723;13636
761731;13577
761739;13616
761747;13549
761755;13515
761764;13405
761772;13294
761780;13172
761788;13030
761796;12720
761805;12485
761813;12192
761821;11983
761829;11752
761837;11750
761846;11805
761854;11985
761862;12095
761870;12434
761878;12778
761886;13242
761895;13571
761903;13861
761911;14035
761919;14171
761927;14168
761936;14212
761947;14271
761955;14328
761963;14204
761971;14134
761980;14094
761988;14120
761996;14092
762004;14111
762012;14085
762021;14059
762029;13960
762037;13919
762045;13796
762053;13790
762062;13793
762070;13870
762078;13837
762086;13860
762094;13658
762103;13547
762111;13496
762119;13568
762127;13554
762135;13643
762143;13681
762152;13744
762160;13752
762168;13775
762176;13753
762184;13823
762193;13864
762201;13899
762209;13949
762217;13941
762225;13864
762234;13834
762245;14216
762253;12025
762261;7794
762269;5177
762278;10097
762286;16710
762294;16232
762302;15397
762310;14769
762319;14541
762327;14268
762335;14096
762343;13944
762351;13885
762360;13769
762368;13707
762376;13595
762384;13544
762392;13405
762401;13297
762409;13155
762417;13002
762425;12789
762433;12597
762441;12400
762450;12185
762458;11849
762466;11621
762474;11528
762482;11567
762491;11681
762499;11870
762507;12129
762515;12582
762523;13271
762532;13750
762540;14090
762550;14367
762558;14501
762566;14502
762575;14418
762583;14428
762591;14331
762599;14201
762607;14096
762616;14071
762624;14047
762632;14024
762641;14016
762649;13987
762658;14036
762666;14055
762674;14102
762682;14100
762690;14082
762698;14045
762707;13997
762715;13924
762723;13728
762731;13437
762739;13311
762748;13284
762756;13348
762764;13407
762772;13529
762780;13589
762789;13749
762797;13797
762805;13912
762813;13893
762821;13927
762830;13881
762838;13901
762846;13833
762856;13888
762864;13894
762873;14453
762881;13624
762889;10363
762897;6340
762905;5660
762914;13511
762922;16719
762930;15751
762938;14944
762946;14535
762954;14296
762963;13940
762971;13779
762979;13598
762987;13502
762995;13378
763004;13331
763012;13238
763020;13161
763028;13029
763036;13032
763045;12905
763053;12831
763061;12633
763069;12474
763077;12203
763086;12044
763094;11803
763102;11732
763110;11706
763118;11787
763127;11845
763135;12029
763143;12239
763154;12847
763162;13270
763171;13658
763179;13883
763187;14144
763195;14196
763203;14333
763212;14317
763220;14354
763228;14280
763236;14255
763244;14169
763252;14157
763261;14067
763269;14073
763277;14000
763285;13973
763293;13942
763302;13979
763310;13949
763318;14013
763326;14021
763334;14127
763343;14059
763351;14065
763359;13886
763367;13804
763375;13743
763384;13770
763392;13773
763400;13914
763408;13974
763416;14083
763425;14237
763433;14290
763441;14296
763449;14314
763460;14368
763469;14443
763477;14365
763485;14342
763493;14179
763501;14358
763510;14157
763518;11952
763526;7943
763534;6018
763542;10933
763550;17074
763559;16618
763567;15648
763575;14908
763583;14754
763591;14439
763600;14190
763608;14048
763616;13917
763624;13802
763632;13741
763641;13697
763649;13638
763657;13521
763665;13423
763673;13301
763682;13164
763690;12997
763698;12785
763706;12576
763714;12358
763722;12146
763731;12005
763739;11988
763747;11945
763755;12007
763767;12320
763775;12609
763783;12999
763791;13420
763799;13857
763807;14191
763816;14468
763824;14598
763832;14691
763840;14731
763848;14719
763857;14662
763865;14607
763873;14543
763881;14463
763889;14426
763898;14441
763906;14455
763914;14408
763922;14343
763930;14352
763939;14332
763947;14212
763955;14166
763963;13968
763971;13782
763980;13638
763988;13660
763996;13609
764004;13695
764012;13716
764020;13800
764029;13877
764037;13975
764045;13978
764053;13979
764065;13969
764073;14000
764081;13914
764089;13814
764097;13765
764105;13660
764114;13952
764122;13062
764130;10199
764138;7039
764146;6885
764155;13741
764163;17082
764171;16297
764179;15149
764187;14337
764196;14066
764204;13810
764212;13535
764220;13465
764228;13360
764237;13350
764245;13241
764253;13174
764261;12988
764269;12918
764278;12727
764286;12649
764294;12489
764302;12393
764310;12164
764318;12059
764327;11779
764335;11645
764343;11477
764351;11632
764359;11669
764371;11862
764379;12053
764387;12330
764395;12618
764403;13013
764412;13322
764420;13628
764428;13818
764436;14025
764444;14047
764453;14218
764461;14230
764469;14308
764477;14317
764485;14337
764494;14299
764502;14307
764510;14183
764518;14228
764526;14158
764535;14161
764543;14080
764551;13991
764559;13797
764567;13748
764575;13785
764584;13878
764592;13889
764600;14042
764608;14111
764616;14172
764625;14230
764633;14280
764641;14239
764649;14269
764657;14249
764669;14309
764677;14264
764685;14257
764693;14109
764701;14075
764710;14248
764718;12762
764726;9147
764734;6731
764742;8242
764751;15624
764759;16799
764767;16020
764775;15041
764783;14588
764792;14269
764800;13996
764808;13854
764816;13818
764824;13802
764833;13760
764841;13685
764849;13624
764857;13486
764865;13428
764873;13233
764882;13019
764890;12792
764898;12581
764906;12318
764914;12022
764923;11686
764931;11455
764939;11423
764947;11533
764955;11665
764964;11848
764975;12293
764983;12812
764991;13213
764999;13668
765008;13968
765016;14214
765024;14345
765032;14426
765040;14425
765049;14451
765057;14423
765065;14357
765073;14328
765081;14306
765090;14219
765098;14149
765106;14114
765114;14041
765122;14007
765130;13927
765139;13870
765147;13873
765155;13843
765163;13752
765171;13694
765180;13521
765188;13438
765196;13362
765204;13399
765212;13423
765221;13516
765229;13524
765237;13587
765245;13666
765253;13793
765262;13801
765270;13774
765280;13811
765288;13817
765296;13754
765305;13666
765313;13555
765321;13914
765329;13433
765337;10680
765346;6238
765354;4703
765363;10664
765371;15896
765379;15756
765388;14991
765396;14595
765404;14354
765412;14053
765420;13956
765428;13871
765437;13841
765445;13761
765453;13738
765461;13627
765469;13635
765478;13553
765486;13524
765494;13412
765502;13301
765510;13088
765519;12864
765527;12560
765535;12301
765543;12044
765551;11951
765560;11904
765568;12020
765576;12072
765586;12411
765594;12747
765603;13144
765611;13533
765619;13884
765627;14107
765635;14340
765644;14424
765652;14504
765660;14430
765668;14417
765676;14294
765684;14267
765693;14180
765701;14170
765709;14080
765717;14125
765725;14063
765734;14041
765742;13977
765750;14011
765758;13923
765766;13922
765775;13851
765783;13888
765791;13864
765799;13840
765807;13732
765816;13552
765824;13322
765832;13334
765840;13368
765848;13495
765857;13493
765865;13584
765873;13624
765884;13936
765892;13981
765901;13981
765909;13903
765917;13870
765925;13744
765933;13740
765942;13617
765950;13545
765958;13606
765966;13742
765974;11547
765982;7341
765991;4781
765999;8713
766007;15748
766015;16027
766023;15141
766032;14635
766040;14327
766048;13962
766056;13660
766064;13543
766073;13451
766081;13366
766089;13249
766097;13211
766105;13170
766114;13153
766122;13064
766130;13036
766138;12895
766146;12711
766154;12506
766163;12260
766171;12038
766179;11832
766190;11736
766199;11881
766207;11932
766215;12117
766223;12269
766231;12570
766239;12875
766248;13281
766256;13666
766264;13990
766272;14166
766280;14347
766289;14430
766297;14487
766305;14410
766313;14365
766321;14387
766330;14351
766338;14285
766346;14217
766354;14232
766362;14237
766371;14258
766379;14238
766387;14240
766395;14257
766403;14271
766412;14287
766420;14304
766428;14329
766436;14310
766444;14280
766452;14226
766461;14081
766469;13822
766477;13644
766488;13734
766497;13825
766505;13768
766513;13767
766521;13775
766529;13858
766537;13988
766546;14035
766554;14058
766562;14080
766570;14054
766578;13956
766587;13797
766595;13686
766603;13530
766611;14021
766619;13086
766628;9692
766636;5868
766644;5946
766652;13676
766660;16278
766669;15560
766677;14690
766685;14447
766693;14174
766701;13936
766710;13784
766718;13704
766726;13577
766734;13533
766742;13480
766750;13484
766759;13345
766767;13322
766775;13224
766783;13169
766794;12986
766803;12802
766811;12630
766819;12397
766827;12137
766835;12107
766844;12071
766852;12148
766860;12180
766868;12264
766876;12403
766885;12740
766893;13122
766901;13579
766909;13924
766917;14244
766926;14393
766934;14601
766942;14639
766950;14688
766958;14570
766967;14499
766975;14359
766983;14293
766991;14146
766999;14036
767007;13897
767016;13830
767024;13743
767032;13732
767040;13674
767048;13677
767057;13603
767065;13683
767073;13696
767081;13726
767089;13722
767101;13930
767109;13882
767117;13711
767125;13467
767133;13473
767142;13451
767150;13573
767158;13522
767166;13614
767174;13629
767183;13764
767191;13798
767199;13790
767207;13675
767215;13614
767224;13455
767232;13413
767240;13309
767248;13232
767256;13368
767265;13608
767273;11462
767281;7512
767289;4919
767297;9468
767305;16089
767314;15816
767322;14987
767330;14443
767338;14273
767346;14052
767355;13860
767363;13742
767371;13682
767379;13668
767387;13648
767396;13665
767407;13675
767415;13753
767423;13682
767431;13631
767440;13445
767448;13283
767456;13011
767464;12785
767472;12473
767481;12238
767489;11967
767497;11912
767505;11924
767513;11988
767522;12085
767530;12333
767538;12709
767546;13153
767554;13530
767562;13908
767571;14158
767579;14325
767587;14383
767595;14449
767603;14466
767612;14458
767620;14367
767628;14330
767636;14258
767644;14154
767653;14058
767661;13973
767669;13928
767677;13908
767685;13885
767694;13859
767705;13945
767713;14037
767721;13980
767729;13985
767738;13949
767746;13910
767754;13869
767762;13758
767770;13601
767779;13363
767787;13319
767795;13413
767803;13469
767811;13498
767820;13547
767828;13653
767836;13815
767844;13904
767852;13928
767860;13877
767869;13840
767877;13816
767885;13738
767893;13626
767901;13589
767910;13576
767918;13971
767926;12204
767934;8325
767942;5321
767951;8489
767959;16017
767967;16156
767975;15232
767983;14633
767992;14435
768000;14204
768011;13928
768019;13920
768027;13740
768036;13507
768044;13450
768052;13417
768060;13299
768068;13164
768077;13055
768085;12920
768093;12785
768101;12611
768109;12413
768118;12231
768126;11975
768134;11795
768142;11711
768150;11736
768158;11813
768167;11972
768175;12100
768183;12416
768191;12738
768199;13203
768208;13566
768216;13941
768224;14196
768232;14419
768240;14424
768249;14485
768257;14501
768265;14603
768273;14489
768281;14501
768290;14416
768298;14432
768306;14355
768317;14284
768325;14314
768334;14265
768342;14125
768350;14072
768358;13945
768366;13850
768375;13692
768383;13648
768391;13510
768399;13517
768407;13390
768415;13258
768424;13120
768432;13238
768440;13212
768448;13300
768456;13457
768465;13722
768473;13889
768481;14084
768489;14104
768497;14216
768506;14185
768514;14274
768522;14356
768530;14422
768538;14394
768547;14342
768555;14591
768563;13202
768571;9754
768579;7345
768588;9245
768596;17049
768604;17610
768615;15923
768623;14995
768632;14489
768640;14120
768648;13706
768656;13347
768664;13326
768673;13342
768681;13419
768689;13441
768697;13489
768705;13414
768713;13420
768722;13275
768730;13165
768738;12959
768746;12783
768754;12551
768763;12303
768771;11989
768779;11890
768787;11852
768795;11923
768804;12052
768812;12262
768820;12452
768828;12695
768836;13049
768845;13376
768853;13598
768861;13644
768869;13740
768877;13741
768886;13782
768894;13746
768902;13843
768910;13794
768920;13809
768929;13849
768937;13757
768945;13781
768953;13796
768961;13844
768969;13875
768978;13929
768986;13939
768994;14056
769002;14039
769010;14068
769019;13995
769027;13934
769035;13798
769043;13606
769051;13407
769060;13338
769068;13391
769076;13432
769084;13534
769092;13568
769101;13613
769109;13598
769117;13613
769125;13576
769133;13590
769142;13573
769150;13602
769158;13604
769166;13606
769174;13632
769182;13952
769191;12504
769199;9137
769207;6930
769215;9299
769226;17332
769235;16555
769243;15469
769251;14744
769259;14464
769267;14224
769276;13984
769284;13822
769292;13738
769300;13626
769308;13461
769317;13332
769325;13212
769333;13066
769341;12924
769349;12776
769358;12585
769366;12467
769374;12285
769382;12123
769390;11919
769399;11810
769407;11678
769415;11758
769423;11819
769431;12082
769439;12244
769448;12558
769456;12898
769464;13378
769472;13709
769480;14107
769489;14307
769497;14485
769505;14524
769513;14609
769524;14658
769533;14676
769541;14600
769549;14598
769557;14495
769565;14456
769574;14413
769582;14364
769590;14279
769598;14265
769606;14207
769615;14271
769623;14256
769631;14312
769639;14275
769647;14182
769656;13971
769664;13945
769672;13972
769680;14058
769688;14063
769697;14135
769705;14218
769713;14434
769721;14436
769729;14473
769737;14424
769746;14482
769754;14397
769762;14180
769770;14323
769778;14021
769787;13658
769795;14100
769803;13101
769811;10206
769819;7147
769831;9382
769839;16530
769847;17045
769855;15944
769863;14848
769872;14504
769880;14256
769888;13858
769896;13737
769904;13603
769913;13532
769921;13411
769929;13379
769937;13251
769945;13256
769954;13156
769962;13062
769970;12916
769978;12802
769986;12653
769994;12511
770003;12271
770011;12098
770019;11963
770027;11930
770035;11856
770044;12028
770052;12149
770060;12352
770068;12693
770076;13093
770085;13514
770093;13911
770101;14252
770109;14448
770117;14587
770126;14669
770137;14730
770145;14772
770153;14641
770161;14492
770170;14448
770178;14404
770186;14240
770194;14131
770202;14035
770211;14046
770219;13990
770227;13944
770235;13856
770243;13756
770252;13577
770260;13464
770268;13447
770276;13456
770284;13459
770292;13580
770301;13713
770309;13806
770317;13875
770325;13920
770333;13969
770342;13957
770350;13974
770358;13939
770366;13933
770374;13887
770383;13849
770391;13953
770399;14067
770407;11983
770415;7996
770424;5507
770435;12002
770443;16309
770451;15910
770459;15112
770468;14612
770476;14279
770484;13927
770492;13813
770500;13722
770509;13625
770517;13507
770525;13407
770533;13361
770541;13308
770550;13269
770558;13143
770566;13047
770574;12977
770582;12889
770590;12493
770599;12073
770607;11789
770615;11609
770623;11466
770631;11516
770640;11561
770648;11682
770656;11847
770664;12254
770672;12702
770681;13129
770689;13488
770697;13842
770705;14038
770713;14194
770722;14273
770730;14384
770741;14451
770749;14523
770757;14480
770766;14516
770774;14448
770782;14434
770790;14441
770798;14487
770807;14585
770815;14205
770823;13987
770831;14045
770839;14025
770847;13966
770856;13828
770864;13669
770872;13514
770880;13546
770888;13489
770897;13525
770905;13542
770913;13592
770921;13644
770929;13810
770938;13794
770946;13888
770954;13868
770962;13844
770970;13735
770979;13758
770987;13681
770995;13671
771003;13718
771011;13726
771020;11514
771028;7330
771039;5311
771047;11896
771055;15954
771064;15600
771072;14754
771080;14378
771088;14055
771096;13792
771105;13603
771113;13543
771121;13414
771129;13420
771137;13264
771145;13284
771154;13202
771162;13227
771170;13137
771178;13009
771186;12697
771195;12578
771203;12497
771211;12402
771219;12178
771227;11964
771236;11788
771244;11782
771252;11729
771260;11838
771268;11970
771277;12356
771285;12782
771293;13241
771301;13610
771309;13953
771318;14107
771326;14278
771334;14294
771345;14334
771353;14350
771362;14395
771370;14327
771378;14300
771386;14257
771394;14219
771402;14066
771411;14198
771419;14198
771427;14192
771435;14155
771443;14139
771452;14054
771460;14047
771468;14018
771476;14048
771484;14114
771493;14116
771501;14114
771509;13971
771517;13777
771525;13770
771534;13869
771542;13917
771550;13897
771558;13901
771566;13941
771575;13990
771583;14061
771591;14023
771599;13948
771607;13778
771615;13761
771624;13686
771632;13506
771640;13364
771650;13590
771658;13113
771667;10208
771675;6032
771683;4837
771691;11470
771699;15988
771708;15486
771716;14741
771724;14383
771732;14254
771740;13966
771749;13827
771757;13654
771765;13480
771773;13408
771781;13432
771790;13406
771798;13396
771806;13287
771814;13199
771822;12981
771831;12903
771839;12679
771847;12514
771855;12298
771863;12087
771871;11845
771880;11707
771889;11674
771897;11740
771905;11670
771913;11912
771922;12214
771930;12706
771938;13101
771948;13796
771956;14152
771965;14403
771973;14562
771981;14707
771989;14777
771997;14866
772006;14843
772014;14863
772022;14861
772030;14834
772038;14693
772047;14754
772055;14677
772063;14697
772071;14632
772079;14656
772088;14587
772096;14571
772104;14479
772112;14545
772120;14472
772129;14524
772137;14510
772145;14485
772153;14326
772161;14225
772169;14154
772178;14202
772186;14159
772194;14186
772202;14168
772210;14256
772219;14336
772227;14451
772235;14442
772243;14370
772254;14337
772263;14347
772271;14308
772279;14181
772287;13895
772295;14283
772304;13021
772312;9646
772320;6026
772328;6980
772336;14894
772345;16432
772353;15406
772361;14635
772369;14261
772377;14049
772386;13777
772394;13576
772402;13555
772410;13527
772418;13369
772426;13307
772435;13118
772443;13090
772451;13016
772459;12868
772467;12817
772476;12717
772484;12563
772492;12327
772500;12021
772508;11768
772517;11532
772525;11448
772533;11393
772541;11493
772549;11672
772561;12009
772569;12321
772577;12742
772585;13164
772593;13480
772602;13746
772610;13927
772618;13987
772626;14098
772634;14056
772643;14107
772651;13955
772659;13903
772667;13866
772675;13958
772684;13897
772692;13836
772700;13749
772708;13792
772716;13747
772724;13785
772733;13835
772741;13798
772749;13744
772757;13711
772765;13640
772774;13652
772782;13561
772790;13368
772798;13173
772806;13114
772815;13114
772823;13199
772831;13214
772839;13161
772847;13310
772859;13719
772867;13814
772875;13888
772883;13853
772891;13924
772900;13898
772908;13880
772916;13820
772924;13674
772932;14226
772941;13291
772949;9883
772957;5903
772965;5964
772973;13641
772982;16462
772990;15733
772998;14997
773006;14652
773014;14345
773022;14016
773031;13954
773039;13860
773047;13799
773055;13693
773063;13713
773072;13766
773080;13685
773088;13433
773096;13296
773104;13135
773113;12965
773121;12721
773129;12558
773137;12331
773145;12134
773154;11925
773165;11964
773173;11952
773181;12071
773189;12215
773198;12391
773206;12709
773214;13181
773222;13533
773230;13966
773239;14265
773247;14320
773255;14398
773263;14544
773271;14713
773279;14679
773288;14624
773296;14777
773304;14694
773312;14705
773320;14552
773329;14541
773337;14726
773345;14602
773353;14347
773361;14545
773370;14403
773378;14372
773386;14230
773394;14454
773402;14425
773411;14289
773419;14075
773427;13896
773435;13754
773443;13743
773452;13740
773460;13841
773471;13946
773479;14123
773487;14100
773496;14289
773504;14474
773512;14328
773520;14146
773528;14090
773537;14016
773545;14079
773553;14015
773561;14216
773569;12000
773577;7973
773586;5277
773594;9816
773602;16534
773610;16104
773618;15027
773627;14411
773635;14233
773643;13905
773651;13666
773659;13675
773668;13467
773676;13305
773684;13401
773692;13323
773700;13185
773709;13404
773717;13110
773725;13003
773733;13042
773741;12920
773750;12651
773758;12310
773769;11986
773777;11778
773785;11589
773794;11611
773802;11584
773810;11745
773818;12052
773826;12352
773834;12782
773843;13252
773851;13625
773859;13954
773867;14126
773875;14223
773884;14446
773892;14472
773900;14356
773908;14437
773916;14236
773925;14120
773933;14019
773941;14027
773949;14012
773957;13961
773966;13896
773974;13853
773982;13913
773990;13912
773998;13890
774007;13925
774015;13885
774023;13851
774031;13722
774039;13556
774047;13352
774056;13321
774064;13430
774074;13611
774082;13772
774090;13928
774099;13969
774107;14027
774115;13985
774123;13980
774131;14092
774140;14135
774148;14117
774156;14061
774164;14016
774172;13913
774181;14385
774189;13076
774197;9387
774205;5854
774214;7029
774223;15484
774231;16867
774239;15817
774247;15096
774255;14765
774264;14469
774272;14095
774280;13940
774288;13718
774296;13649
774305;13604
774313;13589
774321;13470
774329;13518
774337;13514
774345;13365
774354;13245
774362;13174
774370;12964
774380;12999
774388;12633
774397;12079
774405;11819
774413;11792
774421;11816
774429;11932
774438;12031
774446;12245
774454;12554
774462;13022
774470;13420
774479;13765
774487;13960
774495;14162
774503;14268
774511;14343
774520;14295
774528;14333
774536;14239
774544;14176
774552;14059
774561;14093
774569;14014
774577;14004
774585;13909
774593;13908
774601;13836
774610;13864
774618;13827
774626;13888
774634;13892
774642;13855
774651;13879
774659;13790
774667;13555
774678;13483
774686;13477
774695;13495
774703;13482
774711;13581
774719;13616
774727;13760
774736;13798
774744;13907
774752;13827
774760;13872
774768;13858
774777;13900
774785;13794
774793;13732
774801;13744
774809;13980
774818;11929
774826;7884
774834;5058
774842;8924
774850;16300
774858;16100
774867;15180
774875;14561
774883;14323
774891;14129
774899;13959
774908;13881
774916;13793
774924;13753
774932;13684
774940;13618
774949;13580
774957;13531
774965;13477
774973;13342
774984;13149
774993;13008
775001;12729
775009;12516
775017;12163
775025;11981
775034;11791
775042;11803
775050;11814
775058;11974
775066;12084
775075;12376
775083;12728
775091;13167
775099;13514
775107;13826
775116;14075
775124;14265
775132;14267
775140;14259
775148;14302
775156;14288
775165;14301
775173;14386
775181;14463
775189;14419
775197;14427
775206;14427
775214;14399
775222;14409
775230;14434
775238;14349
775247;14340
775255;14326
775263;14286
775271;14186
775279;14073
775291;13796
775299;13721
775307;13704
775315;13669
775323;13695
775332;13732
775340;13819
775348;13895
775356;14020
775364;14054
775373;13987
775381;14017
775389;14041
775397;14027
775405;14057
775414;14104
775422;13991
775430;14360
775438;12722
775446;8826
775454;5488
775463;7718
775471;15868
775479;16569
775487;15578
775495;14773
775504;14449
775512;14177
775520;13825
775528;13721
775536;13594
775545;13566
775553;13408
775561;13379
775569;13193
775577;13093
775586;13047
775597;12946
775605;12790
775613;12599
775621;12345
775630;12180
775638;11990
775646;11864
775654;11754
775662;11851
775671;11921
775679;12120
775687;12294
775695;12644
775703;12981
775711;13399
775720;13775
775728;14130
775736;14244
775744;14457
775752;14478
775761;14518
775769;14450
775777;14444
775785;14313
775793;14308
775802;14207
775810;14205
775818;14164
775826;14156
775834;14006
775843;14023
775851;13945
775859;14011
775867;13978
775875;14062
775884;13927
775895;13899
775903;13764
775911;13681
775919;13595
775928;13627
775936;13554
775944;13688
775952;13793
775960;13989
775969;14027
775977;14091
775985;14017
775993;14066
776001;13976
776009;13970
776018;13864
776026;13905
776034;13768
776042;14171
776050;13126
776059;10009
776067;6869
776075;7143
776083;14693
776091;17279
776100;16303
776108;15421
776116;14693
776124;14369
776132;14003
776141;13834
776149;13606
776157;13494
776165;13407
776173;13356
776182;13262
776190;13223
776201;13167
776209;13143
776217;12975
776226;12886
776234;12710
776242;12567
776250;12288
776258;12121
776266;11984
776275;11993
776283;12058
776291;12217
776299;12345
776307;12596
776316;12949
776324;13330
776332;13758
776340;14160
776348;14336
776357;14453
776365;14676
776373;14837
776381;14814
776389;14750
776398;14686
776406;14552
776414;14444
776422;14290
776430;14325
776439;14283
776447;14277
776455;14183
776463;14161
776471;14119
776479;14071
776488;13985
776499;14006
776507;14006
776515;13912
776524;13825
776532;13744
776540;13721
776548;13803
776556;13815
776564;13912
776573;13988
776581;14027
776589;14039
776597;14053
776605;13925
776614;13904
776622;13821
776630;13768
776638;13631
776646;13969
776655;12817
776662;9669
776671;6696
776679;7153
776687;14371
776696;16754
776704;15972
776712;15149
776720;14452
776728;14136
776737;13774
776745;13644
776753;13461
776761;13389
776769;13217
776777;13170
776786;13050
776794;13021
776804;12924
776812;12913
776820;12708
776829;12553
776837;12280
776845;12073
776853;11778
776861;11618
776870;11406
776878;11403
776886;11451
776894;11630
776902;11724
776911;12046
776919;12454
776927;12966
776935;13348
776943;13759
776952;13978
776960;14191
776968;14235
776976;14307
776984;14346
776993;14437
777001;14337
777009;14389
777017;14245
777025;14241
777033;14157
777042;14124
777050;14043
777058;14061
777066;13978
777074;13993
777083;13992
777091;13975
777099;13974
777110;14020
777118;13903
777127;13873
777135;13847
777143;13910
777151;13910
777159;14011
777168;14063
777176;14167
777184;14185
777192;14231
777200;14118
777209;14129
777217;14039
777225;14080
777233;13989
777241;14006
777250;13884
777258;14183
777266;12707
777274;9125
777282;6042
777290;7698
777299;14949
777307;16452
777315;15793
777323;15112
777331;14776
777340;14452
777348;14324
777356;14219
777364;13997
777372;13871
777381;13792
777389;13694
777397;13571
777405;13436
777416;13369
777425;13335
777433;13083
777441;12910
777449;12699
777457;12522
777466;12258
777474;12053
777482;11870
777490;11798
777498;11806
777507;11879
777515;11973
777523;12265
777531;12670
777539;13119
777548;13522
777556;13796
777564;14020
777572;14132
777580;14149
777588;14171
777597;14129
777605;14128
777613;14136
777621;13997
777629;13956
777638;13940
777646;13959
777654;13927
777662;13910
777670;13875
777679;13849
777687;13842
777695;13906
777703;13835
777714;13852
777723;13852
777731;13768
777739;13644
777747;13400
777755;13302
777764;13314
777772;13298
777780;13324
777788;13383
777796;13445
777805;13419
777813;13534
777821;13535
777829;13508
777837;13484
777846;13484
777854;13432
777862;13404
777870;13301
777878;13281
777886;13638
777895;12724
777903;9533
777911;6324
777919;6488
777927;13322
777936;16106
777944;15658
777952;14729
777960;14448
777968;14077
777977;13878
777985;13667
777993;13633
778001;13547
778009;13594
778021;13562
778029;13559
778037;13442
778045;13365
778053;13177
778062;13061
778070;12862
778078;12660
778086;12430
778094;12308
778103;12038
778111;11902
778119;11808
778127;11865
778135;11936
778143;12187
778152;12426
778160;12828
778168;13202
778176;13685
778184;14021
778193;14357
778201;14451
778209;14526
778217;14494
778225;14626
778234;14651
778242;14680
778250;14558
778258;14553
778266;14448
778275;14447
778283;14368
778291;14352
778299;14295
778307;14269
778319;14262
778327;14354
778335;14291
778343;14343
778351;14317
778360;14388
778368;14321
778376;14356
778384;14150
778392;13976
778401;13829
778409;13870
778417;13854
778425;13914
778433;13847
778441;13875
778450;13910
778458;14062
778466;14053
778474;14056
778482;13941
778491;13997
778499;13916
778507;13919
778515;13856
778523;13748
778532;14014
778540;13331
778548;10405
778556;6892
778564;6382
778573;12568
778581;16396
778589;15961
778597;15024
778605;14581
778614;14218
778633;14088
778641;14066
778649;13867
778658;13797
778666;13625
778674;13533
778682;13378
778690;13294
778698;13131
778707;13015
778715;12784
778723;12567
778731;12271
778739;11996
778748;11715
778756;11612
778764;11532
778772;11579
778780;11602
778789;11727
778797;11910
778805;12172
778813;12624
778821;13059
778830;13439
778838;13688
778846;13844
778854;13948
778862;14041
778871;14074
778879;14096
778887;14078
778895;14022
778903;13925
778911;13908
778920;13844
778928;13882
778939;13912
778947;13949
778956;13921
778964;13910
778972;13856
778980;13851
778988;13889
778996;13920
779005;13951
779013;13948
779021;13980
779029;13973
779037;13868
779046;13665
779054;13565
779062;13551
779070;13639
779078;13731
779087;13698
779095;13747
779103;13788
779111;13948
779119;13949
779128;13961
779136;13954
779144;13988
779152;13952
779160;13960
779169;13908
779177;13797
779185;14083
779193;13349
779201;10380
779209;7185
779218;6936
779226;13822
779237;16841
779245;15978
779254;15046
779262;14691
779270;14329
779278;14022
779286;13837
779294;13794
779303;13721
779311;13734
779319;13588
779327;13535
779335;13438
779344;13331
779352;13172
779360;13119
779368;12904
779376;12748
779385;12482
779393;12345
779401;12041
779409;12015
779417;11935
779426;11988
779434;12001
779442;12183
779450;12335
779458;12707
779466;12988
779475;13525
779483;13854
779491;14132
779499;14254
779507;14409
779516;14422
779524;14511
779532;14483
779543;14599
779551;14493
779560;14424
779568;14289
779576;14224
779584;14024
779592;14021
779601;13920
779609;13958
779617;13891
779625;13917
779633;13881
779642;13906
779650;13847
779658;13937
779666;13840
779674;13905
779683;13821
779691;13756
779699;13461
779707;13328
779715;13223
779724;13308
779732;13280
779740;13356
779748;13383
779756;13479
779764;13589
779773;13617
779781;13520
779789;13529
779797;13607
779805;13683
779814;13658
779822;13620
779830;13551
779838;13942
779849;12027
779858;8496
779866;6268
779874;9474
779882;16298
779890;16449
779899;15513
779907;14711
779915;14321
779923;14000
779931;13783
779940;13667
779948;13546
779956;13456
779964;13370
779972;13294
779981;13206
779989;13150
779997;13103
780005;13043
780013;12909
780022;12742
780030;12568
780038;12302
780046;12072
780054;11870
780062;11758
780071;11698
780079;11820
780087;11920
780095;12069
780103;12276
780112;12658
780120;13018
780128;13455
780136;13825
780147;14197
780156;14427
780164;14462
780172;14557
780180;14569
780188;14577
780197;14541
780205;14553
780213;14521
780221;14531
780229;14503
780238;14391
780246;14359
780254;14320
780262;14266
780270;14164
780279;14120
780287;14067
780295;14029
780303;13983
780311;14044
780319;14033
780328;14059
780336;14047
780344;13997
780352;13855
780360;13684
780369;13470
780377;13549
780385;13539
780393;13609
