Tempo (ms);Valor
780430;14799
780438;14682
780446;14509
780455;14329
780463;14202
780471;14046
780479;13875
780487;13650
780496;13847
780504;13388
780512;10832
780520;7228
780528;6191
780537;12026
780545;16610
780553;16000
780561;14968
780569;14237
780578;13959
780586;13590
780594;13411
780602;13267
780610;13244
780618;13155
780627;13150
780635;13027
780643;13050
780651;12948
780659;12899
780668;12705
780676;12639
780684;12376
780692;12206
780700;11926
780709;11701
780717;11424
780728;11393
780736;11468
780744;11592
780753;11651
780761;11818
780769;12090
780777;12495
780785;12856
780794;13249
780802;13518
780810;13735
780818;13819
780826;13917
780835;13883
780843;13944
780851;13941
780859;14058
780867;14023
780876;14009
780884;13919
780892;14081
780900;14133
780908;14130
780916;14011
780925;14073
780933;14012
780941;14036
780949;14008
780957;14031
780966;13941
780974;14002
780982;13996
780990;14011
780998;13951
781007;13976
781015;13834
781023;13642
781034;13513
781042;13658
781051;13648
781059;13715
781067;13677
781075;13783
781083;13858
781092;14002
781100;13910
781108;13938
781116;13888
781124;13911
781133;13878
781141;13890
781149;13774
781157;13737
781165;14078
781174;12709
781182;9171
781190;6553
781198;8361
781206;15928
781214;16748
781223;15775
781231;14734
781239;14375
781247;14039
781255;13773
781264;13568
781272;13508
781280;13460
781288;13407
781296;13314
781305;13227
781313;13176
781321;13025
781331;12960
781339;12909
781348;12680
781356;12511
781364;12235
781372;12064
781380;11791
781389;11675
781397;11644
781405;11748
781413;11812
781421;12030
781430;12275
781438;12666
781446;13079
781454;13481
781462;13803
781470;14088
781480;14275
781488;14351
781496;14435
781504;14479
781512;14471
781521;14421
781529;14365
781537;14328
781545;14260
781553;14214
781562;14197
781570;14119
781578;14118
781586;14070
781594;14131
781603;14091
781611;14130
781619;14078
781627;14115
781637;14136
781646;14162
781654;14151
781662;14111
781670;14101
781678;14004
781687;13820
781695;13648
781703;13572
781711;13638
781719;13739
781727;13740
781736;13736
781744;13822
781752;13927
781760;13977
781768;13928
781777;13894
781785;13805
781793;13881
781801;13773
781809;13724
781818;13685
781826;13802
781834;13793
781842;11835
781850;8068
781859;6080
781867;10133
781875;16734
781883;16418
781891;15395
781900;14519
781908;14255
781916;13862
781924;13672
781932;13526
781944;13480
781952;13448
781960;13455
781968;13323
781976;13219
781985;13094
781993;13028
782001;12852
782009;12770
782017;12581
782025;12398
782034;12140
782042;11941
782050;11710
782058;11608
782066;11648
782075;11797
782083;11801
782091;12009
782099;12276
782107;12732
782116;13179
782124;13646
782132;13926
782140;14242
782148;14415
782157;14572
782165;14548
782173;14607
782181;14557
782189;14552
782198;14492
782206;14486
782214;14386
782222;14408
782230;14376
782242;14371
782250;14349
782258;14330
782266;14207
782274;14179
782282;14111
782291;14193
782299;14093
782307;14093
782315;14035
782323;14095
782332;14031
782340;14062
782348;13900
782356;13833
782364;13563
782373;13504
782381;13531
782389;13614
782397;13569
782405;13685
782414;13690
782422;13811
782430;13903
782438;13968
782446;13926
782455;13932
782463;13926
782471;13971
782479;13916
782487;13901
782495;13921
782504;14137
782512;12358
782520;8663
782528;6172
782536;9238
782548;17114
782556;16488
782564;15378
782572;14688
782580;14314
782589;14042
782597;13804
782605;13666
782613;13509
782621;13457
782630;13370
782638;13313
782646;13257
782654;13171
782662;12973
782671;12855
782679;12720
782687;12507
782695;12344
782703;12146
782712;11848
782720;11638
782728;11593
782736;11555
782744;11572
782753;11695
782761;11931
782769;12194
782777;12430
782785;12827
782793;13247
782802;13563
782810;13810
782818;13915
782826;14081
782834;14091
782843;14162
782854;14167
782862;14211
782870;14134
782878;14097
782887;14007
782895;13903
782903;13835
782911;13769
782919;13697
782928;13738
782936;13750
782944;13693
782952;13677
782960;13739
782969;13771
782977;13797
782985;13774
782993;13798
783001;13805
783010;13777
783018;13516
783026;13414
783034;13392
783042;13484
783050;13451
783059;13458
783067;13542
783075;13661
783083;13750
783091;13842
783100;13765
783108;13851
783116;13811
783124;13813
783132;13674
783141;13725
783152;13830
783160;14013
783168;12150
783176;8502
783185;6218
783193;9789
783201;16740
783209;16690
783217;15592
783226;14761
783234;14500
783242;14223
783250;13893
783258;13808
783267;13681
783275;13627
783283;13505
783291;13535
783299;13373
783308;13389
783316;13241
783324;13095
783332;12928
783340;12883
783348;12630
783357;12444
783365;12122
783373;11964
783381;11765
783389;11730
783398;11687
783406;11835
783414;11942
783422;12279
783430;12535
783439;12969
783447;13404
783458;13978
783466;14314
783474;14526
783483;14580
783491;14630
783499;14550
783507;14550
783515;14442
783524;14432
783532;14316
783540;14287
783548;14191
783556;14189
783565;14101
783573;14154
783581;14116
783589;14144
783597;14105
783606;14149
783614;14088
783622;14149
783630;14197
783638;14176
783646;14157
783655;14079
783663;13858
783671;13757
783679;13744
783687;13698
783696;13762
783704;13907
783712;13932
783720;14024
783728;14071
783737;14045
783745;14023
783755;14102
783763;14079
783771;14060
783780;13928
783788;13818
783796;13945
783804;13257
783812;10740
783821;7520
783829;7033
783837;13820
783845;17429
783853;16435
783862;15241
783870;14534
783878;14240
783886;13965
783894;13719
783903;13598
783912;13472
783920;13385
783928;13302
783936;13260
783944;13263
783953;13196
783961;13114
783969;13031
783977;12862
783985;12655
783994;12487
784002;12220
784010;12003
784018;11821
784026;11753
784035;11685
784043;11751
784051;11849
784061;12173
784069;12522
784078;12913
784086;13294
784094;13644
784102;13936
784110;14168
784119;14372
784127;14449
784135;14488
784143;14503
784151;14463
784159;14409
784168;14380
784176;14353
784184;14287
784192;14247
784200;14215
784209;14220
784217;14153
784225;14124
784233;14105
784241;14169
784250;14146
784258;14203
784266;14156
784274;14113
784282;14087
784291;13968
784299;13771
784307;13690
784315;13605
784323;13720
784332;13690
784340;13733
784348;13738
784356;13931
784367;13982
784376;14003
784384;13933
784392;13921
784400;13821
784408;13785
784417;13695
784425;13663
784433;13817
784441;13275
784449;10803
784457;7447
784466;6414
784474;12531
784482;16962
784490;16332
784498;15236
784507;14516
784515;14122
784523;13784
784531;13538
784539;13439
784548;13361
784556;13382
784564;13262
784572;13251
784580;13064
784589;13059
784597;12911
784605;12819
784613;12635
784621;12509
784630;12295
784638;12162
784646;11887
784654;11692
784665;11557
784674;11735
784682;11766
784690;11900
784698;12065
784706;12457
784714;12796
784723;13206
784731;13570
784739;13950
784747;14079
784755;14322
784764;14307
784772;14356
784780;14282
784788;14280
784796;14212
784805;14251
784813;14148
784821;14088
784829;13991
784837;13971
784846;13862
784854;13877
784862;13806
784870;13823
784878;13827
784887;13864
784895;13833
784903;13847
784911;13841
784919;13902
784927;13899
784936;13943
784944;13911
784952;13923
784960;13714
784972;13619
784980;13647
784988;13811
784996;13752
785004;13763
785012;13753
785021;13897
785029;13991
785037;14122
785045;14113
785053;14201
785062;14132
785070;14122
785078;14009
785086;13926
785094;13938
785103;14060
785111;12168
785119;8415
785127;6259
785135;9609
785144;16329
785152;16590
785160;15614
785168;14783
785176;14462
785185;14027
785193;13519
785201;13505
785209;13706
785217;13798
785225;13684
785234;13528
785242;13433
785250;13295
785258;13221
785266;13096
785278;12998
785286;12834
785294;12718
785302;12519
785310;12084
785319;11850
785327;11861
785335;11829
785343;11876
785351;11946
785360;12093
785368;12343
785376;12750
785384;13136
785392;13526
785401;13854
785409;14128
785417;14227
785425;14355
785433;14345
785442;14434
785450;14441
785458;14492
785466;14414
785474;14304
785482;14261
785491;14344
785499;14193
785507;14153
785515;14033
785523;14056
785532;14014
785540;14021
785548;13967
785556;14007
785564;13968
785576;14039
785584;14051
785592;13996
785600;13979
785608;13975
785617;13800
785625;13546
785633;13334
785641;13400
785649;13496
785658;13569
785666;13539
785674;13598
785682;13619
785690;13781
785699;13784
785707;13783
785715;13670
785723;13669
785731;13609
785740;13537
785748;13506
785756;13598
785764;13867
785772;12544
785780;8907
785789;5888
785797;7123
785805;14779
785813;16254
785821;15509
785830;14460
785838;14035
785846;13877
785854;13777
785862;13625
785871;13511
785882;13354
785890;13343
785898;13134
785906;13196
785915;13173
785923;13142
785931;12968
785939;12840
785947;12701
785956;12606
785964;12318
785972;12120
785980;11842
785988;11803
785997;11698
786005;11706
786013;11768
786021;11976
786029;12215
786038;12664
786046;13034
786054;13498
786062;13826
786070;14128
786078;14256
786087;14333
786095;14331
786103;14473
786111;14439
786119;14430
786128;14343
786136;14358
786144;14298
786152;14295
786160;14221
786169;14139
786177;14101
786187;14138
786195;14171
786203;14270
786212;14189
786220;14249
786228;14234
786236;14280
786244;14228
786253;14200
786261;14119
786269;14020
786277;13838
786285;13593
786295;13558
786303;13622
786311;13595
786319;13500
786327;13519
786335;13649
786344;13744
786352;13803
786360;13798
786368;13881
786376;13897
786385;13831
786393;13805
786401;13726
786409;13743
786417;13733
786426;13958
786434;12201
786442;8393
786450;5859
786458;8636
786467;15712
786475;16276
786483;15321
786493;14593
786501;14468
786510;13951
786518;13808
786526;13660
786534;13496
786542;13283
786551;13217
786559;13146
786567;13021
786575;13024
786583;12958
786591;12766
786600;12710
786608;12644
786616;12375
786624;12082
786632;11742
786641;11529
786649;11365
786657;11344
786665;11340
786673;11481
786682;11598
786690;11979
786698;12334
786706;12883
786714;13312
786723;13724
786731;14016
786739;14216
786747;14284
786755;14376
786764;14232
786772;14194
786780;14252
786791;14469
786799;14468
786808;14433
786816;14206
786824;14159
786832;14116
786840;14091
786849;14007
786857;14025
786865;13975
786873;13986
786881;13933
786889;13924
786898;13905
786906;14001
786914;13947
786922;13920
786930;13766
786939;13621
786947;13460
786955;13587
786963;13586
786971;13609
786980;13530
786988;13588
786996;13630
787004;13840
787012;13865
787021;13922
787029;13873
787037;13892
787045;13820
787053;13882
787062;13818
787070;13785
787078;13886
787086;13747
787097;10142
787106;6830
787114;6926
787122;14394
787130;16918
787138;16222
787146;15115
787155;14743
787163;14400
787171;14123
787179;13883
787187;13793
787196;13690
787204;13695
787212;13476
787220;13426
787228;13282
787237;13212
787245;13051
787253;12977
787261;12784
787269;12639
787278;12369
787286;12260
787294;12020
787302;11854
787310;11712
787319;11803
787327;11857
787335;12021
787343;12175
787351;12525
787359;12919
787368;13363
787376;13806
787384;14181
787395;14561
787404;14768
787412;14732
787420;14777
787428;14693
787436;14713
787444;14609
787453;14555
787461;14391
787469;14318
787477;14212
787485;14180
787494;14115
787502;14106
787510;14063
787518;14123
787526;14015
787535;14006
787543;13954
787551;13932
787559;13877
787567;13911
787576;13918
787584;13914
787592;13880
787600;13869
787608;13696
787617;13495
787625;13455
787633;13470
787641;13539
787649;13571
787657;13613
787666;13621
787674;13701
787682;13692
787690;13768
787702;13779
787710;13825
787718;13839
787726;13769
787734;13779
787742;13636
787751;14054
787759;12954
787767;9579
787775;6262
787783;6942
787792;14679
787800;16661
787808;15784
787816;14772
787824;14404
787833;14114
787841;13758
787849;13561
787857;13483
787865;13394
787874;13338
787882;13224
787890;13145
787898;13144
787906;13103
787914;12980
787923;12877
787931;12662
787939;12495
787947;12250
787955;12117
787964;11835
787972;11635
787980;11370
787988;11157
787996;11504
788008;12129
788016;12438
788024;12790
788032;13137
788040;13552
788049;13862
788057;14152
788065;14333
788073;14458
788081;14524
788090;14544
788098;14457
788106;14419
788114;14221
788122;14096
788131;14034
788139;14104
788147;14028
788155;13993
788163;13848
788172;13813
788180;13840
788188;13906
788196;13906
788204;14008
788212;13928
788221;13947
788229;13850
788237;13824
788245;13770
788253;13932
788262;13817
788270;13839
788278;13760
788286;13622
788294;13394
788306;13543
788314;13651
788322;13650
788330;13569
788338;13715
788347;13824
788355;14062
788363;14038
788371;14035
788379;13925
788388;13908
788396;13895
788404;13941
788412;13824
788420;13775
788429;14139
788437;13401
788445;10342
788453;7010
788461;6549
788470;13628
788478;16886
788486;16118
788494;15039
788502;14544
788510;14164
788519;13991
788527;13853
788535;13778
788543;13702
788551;13618
788560;13472
788568;13445
788576;13375
788584;13312
788592;13145
788601;12984
788611;12849
788619;12825
788627;12544
788635;12302
788644;11969
788652;11878
788660;11776
788668;11943
788676;11947
788685;12058
788693;12193
788701;12501
788709;12898
788717;13310
788726;13680
788734;14096
788742;14226
788750;14329
788758;14485
788766;14606
788775;14542
788783;14569
788791;14550
788799;14491
788807;14417
788816;14358
788825;14395
788833;14300
788841;14255
788849;14225
788858;14259
788866;14182
788874;14134
788882;14088
788890;14131
788899;14095
788907;14147
788917;14177
788925;14222
788933;14297
788942;14146
788950;13978
788958;13843
788966;13613
788974;13557
788983;13536
788991;13562
788999;13574
789007;13657
789015;13662
789023;13762
789032;13970
789040;14030
789048;13995
789056;14007
789064;13945
789073;13904
789081;13873
789089;13806
789097;13754
789105;14108
789114;12552
789122;9027
789130;6626
789138;8472
789146;16047
789155;17007
789163;15985
789171;15024
789179;14413
789187;14269
789196;13916
789204;13868
789215;13763
789223;13727
789231;13625
789240;13549
789248;13455
789256;13414
789264;13295
789272;13135
789281;12938
789289;12827
789297;12599
789305;12375
789313;12050
789321;11873
789330;11626
789338;11652
789346;11610
789354;11708
789362;11804
789371;12135
789379;12399
789387;12853
789395;13240
789403;13651
789412;13842
789420;14171
789428;14223
789436;14374
789444;14322
789453;14388
789461;14252
789469;14304
789477;14141
789485;14205
789494;14054
789502;14053
789510;13911
789521;13954
789529;13910
789538;13988
789546;13922
789554;13985
789562;13894
789570;13982
789578;13910
789587;14027
789595;13947
789603;13998
789611;13810
789619;13787
789628;13560
789636;13657
789644;13524
789652;13629
789660;13521
789669;13704
789677;13724
789685;13862
789693;13746
789701;13842
789710;13828
789718;13889
789726;13777
789734;13803
789742;13682
789751;13651
789759;13908
789767;13113
789775;10292
789783;7145
789791;6808
789800;13691
789808;16974
789816;16265
789827;14944
789836;14577
789844;14198
789852;13969
789860;13712
789868;13697
789876;13515
789885;13544
789893;13382
789901;13443
789909;13207
789917;13227
789926;13127
789934;13026
789942;12828
789950;12698
789958;12430
789967;12274
789975;11975
789983;11860
789991;11731
789999;11733
790008;11786
790016;11972
790024;12229
790032;12533
790040;12941
790049;13375
790057;13846
790065;14151
790073;14395
790081;14447
790089;14587
790098;14579
790106;14550
790114;14517
790125;14596
790134;14617
790142;14441
790150;14421
790158;14327
790166;14332
790174;14244
790183;14190
790191;14114
790199;14048
790207;13995
790215;13999
790224;14007
790232;13945
790240;13965
790248;14093
790256;14133
790265;14103
790273;14133
790281;14055
790289;13964
790297;13710
790306;13718
790314;13707
790322;13819
790330;13767
790338;13831
790346;13812
790355;13977
790363;14059
790371;14177
790379;14090
790387;14113
790396;14020
790404;14025
790412;13877
790420;13846
790430;13902
790439;13790
790447;11705
790455;8043
790463;6306
790472;10384
790481;16237
790489;16283
790497;15294
790505;14589
790513;14249
790522;13976
790530;13609
790538;13530
790546;13406
790554;13355
790563;13199
790571;13151
790579;12962
790587;12953
790595;12814
790604;12774
790612;12552
790620;12414
790628;12232
790636;12128
790644;11805
790653;11588
790661;11344
790669;11361
790677;11278
790685;11479
790694;11617
790702;11952
790710;12200
790718;12780
790726;13177
790737;13760
790745;13941
790753;14203
790761;14246
790769;14298
790778;14242
790786;14290
790794;14237
790802;14300
790810;14157
790819;14144
790827;13993
790835;14060
790843;13970
790851;14003
790860;13912
790868;13945
790876;13844
790884;13854
790892;13832
790900;13897
790909;13823
790917;13932
790925;13859
790933;13894
790941;13790
790950;13874
790958;13742
790966;13702
790974;13494
790982;13483
790991;13438
790999;13595
791007;13567
791015;13670
791023;13697
791035;13968
791043;13970
791051;14011
791059;13921
791067;13937
791076;13886
791084;13921
791092;13759
791100;13779
791108;14185
791117;13438
791125;10419
791133;7040
791141;6694
791149;13327
791158;16560
791166;16031
791174;15029
791182;14581
791190;14307
791198;14064
791207;13879
791215;13773
791223;13671
791231;13661
791239;13596
791248;13561
791256;13433
791264;13365
791272;13261
791280;13177
791289;13054
791297;12812
791305;12608
791313;12395
791321;12151
791330;11919
791341;11858
791349;11928
791357;12035
791365;12111
791374;12261
791382;12674
791390;12998
791398;13386
791406;13752
791415;14083
791423;14231
791431;14358
791439;14375
791447;14368
791455;14333
791464;14311
791472;14242
791480;14157
791488;14092
791496;13972
791505;13909
791513;13812
791521;13704
791529;13673
791537;13702
791546;13617
791554;13563
791562;13485
791570;13641
791578;13662
791587;13676
791595;13622
791603;13696
791611;13706
791619;13786
791628;13725
791639;13695
791647;13706
791655;13423
791663;13298
791672;13318
791680;13375
791688;13336
791696;13439
791704;13535
791713;13590
791721;13669
791729;13656
791737;13617
791745;13618
791753;13643
791762;13617
791770;13677
791778;13567
791786;13525
791794;13880
791803;12404
791811;8714
791819;6045
791827;7678
791835;15053
791844;16264
791852;15557
791860;14701
791868;14424
791876;14062
791885;13885
791893;13729
791901;13659
791909;13480
791917;13459
791926;13347
791934;13451
791945;13389
791953;13366
791961;13198
791970;13101
791978;12934
791986;12750
791994;12430
792002;12172
792010;11876
792019;11721
792027;11556
792035;11655
792043;11672
792051;11893
792060;12135
792068;12553
792076;12977
792084;13460
792092;13804
792101;14158
792109;14232
792117;14378
792125;14399
792133;14479
792142;14451
792150;14457
792158;14327
792166;14407
792174;14287
792183;14289
792191;14186
792199;14164
792207;14039
792215;14032
792223;13942
792232;13954
792240;13909
792251;13982
792259;13996
792268;14029
792276;13952
792284;14015
792292;13940
792300;14006
792308;13971
792317;14000
792325;13975
792333;13982
792341;13738
792349;13569
792358;13461
792366;13498
792374;13452
792382;13506
792390;13443
792399;13549
792407;13660
792415;13788
792423;13708
792431;13798
792440;13773
792448;13788
792456;13739
792464;13701
792472;13561
792481;13636
792489;13714
792497;11891
792505;8063
792513;5829
792521;8995
792530;16071
792538;16382
792546;15425
792557;14465
792566;14264
792574;13894
792582;13762
792590;13577
792598;13539
792606;13447
792615;13381
792623;13294
792631;13284
792639;13154
792647;13063
792656;12906
792664;12854
792672;12694
792680;12481
792688;12136
792697;11863
792705;11609
792713;11510
792721;11482
792729;11539
792738;11581
792746;11717
792754;11932
792762;12287
792770;12758
792778;13157
792787;13546
792795;13807
792803;14002
792811;14064
792819;14125
792828;14156
792836;14191
792844;14240
792855;14261
792863;14257
792872;14153
792880;14124
792888;14063
792896;14037
792904;13989
792913;13953
792921;13932
792929;13964
792937;13947
792945;13895
792954;13911
792962;13916
792970;13922
792978;13917
792986;13935
792995;13873
793003;13902
793011;13912
793019;13921
793027;13885
793036;13932
793044;13815
793052;13756
793060;13508
793068;13459
793076;13396
793085;13480
793093;13457
793101;13534
793109;13640
793117;13777
793126;13796
793134;13901
793142;13844
793150;13867
793161;13833
793170;13834
793178;13743
793186;13738
793194;13802
793202;13782
793211;11783
793219;8038
793227;6031
793235;10080
793243;16645
793252;16542
793260;15446
793268;14778
793276;14443
793284;14063
793293;13847
793301;13836
793309;13726
793317;13667
793325;13539
793334;13537
793342;13426
793350;13418
793358;13270
793366;13207
793374;13025
793383;12928
793391;12673
793399;12550
793407;12311
793415;12119
793424;11822
793432;11760
793440;11706
793448;11825
793458;12018
793467;12284
793475;12653
793483;13164
793491;13501
793499;13897
793508;14164
793516;14379
793524;14445
793532;14575
793540;14519
793549;14524
793558;14358
793566;14358
793574;14185
793582;14177
793591;14076
793599;14053
793607;13932
793615;13975
793623;13885
793631;13947
793640;13916
793648;13943
793656;13868
793664;13947
793672;13956
793681;14001
793689;13963
793697;14027
793705;14011
793713;14058
793722;14028
793730;14068
793738;14027
793746;14069
793754;13955
793765;13981
793773;13759
793781;13731
793789;13640
793797;13703
793806;13642
793814;13678
793822;13717
793830;13872
793838;13839
793847;13938
793855;13930
793863;13917
793871;13752
793879;13826
793887;13686
793896;13741
793904;13810
793912;13778
793920;11788
793928;8124
793937;6367
793945;10451
793953;16819
793961;16593
793969;15449
793978;14611
793986;14303
793994;13949
794002;13737
794010;13634
794019;13570
794027;13501
794035;13448
794043;13405
794051;13330
794060;13222
794071;13173
794079;13096
794087;12859
794095;12818
794104;12622
794112;12397
794120;12097
794128;11915
794136;11760
794145;11716
794153;11739
794161;11803
794169;11986
794177;12249
794185;12641
794194;13061
794202;13532
794210;13890
794218;14156
794226;14345
794235;14534
794243;14586
794251;14639
794259;14620
794267;14593
794276;14526
794284;14531
794292;14387
794300;14345
794308;14328
794317;14289
794325;14149
794333;14130
794341;14050
794349;14069
794358;14001
794369;14066
794377;14068
794385;14027
794393;14008
794402;14028
794410;14010
794418;14030
794426;13992
794434;13951
794442;13878
794451;13685
794459;13535
794467;13645
794475;13664
794483;13695
794492;13643
794500;13762
794508;13822
794516;13998
794524;13977
794533;14008
794541;13906
794549;13885
794557;13764
794565;13825
794574;13709
794582;13642
794590;13804
794598;13447
794606;10820
794615;7183
794623;6255
794631;12393
794639;16924
794647;16294
794655;15130
794664;14523
794675;14139
794683;13887
794691;13568
794700;13569
794708;13414
794716;13314
794724;13257
794732;13197
794740;13068
794749;13050
794757;12900
794765;12820
794773;12633
794781;12584
794790;12308
794798;12108
794806;11760
794814;11599
794822;11404
794831;11414
794839;11371
794847;11556
794855;11654
794863;12077
794872;12487
794880;13031
794888;13441
794896;13833
794904;14008
794913;14232
794921;14264
794929;14327
794937;14309
794945;14342
794953;14234
794962;14211
794970;14143
794981;14210
794989;14195
794998;14191
795006;14096
795014;14124
795022;14033
795030;14050
795038;13984
795047;14039
795055;13984
795063;14035
795071;14008
795079;14104
795088;14041
795096;14102
795104;14043
795112;14078
795120;13994
795129;13902
795137;13590
795145;13609
795153;13585
795161;13699
795170;13711
795178;13743
795186;13744
795194;13876
795202;13940
795210;13941
795219;13967
795227;14023
795235;14001
795243;13983
795251;13935
795260;13911
795268;14075
795279;13435
795287;10207
795295;6780
795304;6849
795312;14191
795320;16848
795328;16139
795336;15150
795345;14703
795353;14362
795361;14102
795369;13933
795377;13841
795386;13756
795394;13728
795402;13662
795410;13603
795418;13495
795427;13390
795435;13337
795443;13165
795451;13007
795459;12800
795468;12570
795476;12258
795484;11976
795492;11735
795500;11609
795508;11552
795517;11577
795525;11630
795533;11819
795541;12061
795549;12496
795558;12951
795566;13449
795574;13760
795585;14128
795593;14330
795602;14422
795610;14431
795618;14436
795626;14394
795634;14322
795643;14290
795651;14251
795659;14204
795667;14217
795675;14204
795684;14155
795692;14082
795700;14029
795708;13934
795716;13947
795725;13893
795733;13882
795741;13741
795749;13740
795757;13749
795766;13796
795774;13758
795782;13749
795790;13661
795798;13661
795806;13566
795815;13365
795823;13217
795831;13270
795839;13273
795847;13361
795856;13314
795864;13401
795872;13395
795883;13690
795891;13758
795900;13711
795908;13596
795916;13605
795924;13543
795932;13546
795941;13472
795949;13512
795957;13707
795965;12027
795973;8207
795982;5880
795990;8803
795998;16173
796006;16389
796014;15400
796023;14526
796031;14278
796039;13835
796047;13668
796055;13480
796063;13438
796072;13299
796080;13293
796088;13217
796096;13301
796104;13226
796113;13287
796121;13176
796129;13154
796137;12993
796145;12852
796154;12579
796162;12402
796170;12084
796178;11950
796188;11840
796197;11991
796205;11994
796213;12227
796221;12422
796229;12827
796238;13301
796246;13795
796254;14013
796262;14311
796270;14390
796279;14503
796287;14452
796296;14529
796304;14473
796312;14507
796321;14362
796329;14391
796337;14253
796345;14234
796353;14119
796361;14122
796370;13986
796378;14018
796386;13977
796394;14048
796402;14023
796411;14075
796419;14054
796427;14079
796435;13974
796443;14013
796452;14050
796460;14091
796468;14027
796476;13951
796484;13809
796495;13624
796503;13582
796511;13668
796519;13657
796527;13698
796536;13715
796544;13798
796552;13814
796560;13930
796568;13846
796577;13928
796585;13899
796593;13893
796601;13818
796609;13744
796617;13604
796626;13658
796634;13852
796642;12145
796650;8178
796658;5608
796667;8631
796675;15871
796683;16249
796691;15229
796699;14337
796708;13996
796716;13714
796724;13449
796732;13268
796740;13089
796749;13034
796757;13043
796765;12954
796773;12860
796781;12814
796790;12699
796801;12656
796809;12537
796817;12240
796825;12044
796834;11910
796842;11722
796850;11442
796858;11354
796866;11267
796874;11431
796883;11563
796891;11802
796899;12138
796907;12556
796915;13015
796924;13508
796932;13986
796940;14362
796948;14596
796956;14675
796965;14762
796973;14747
796981;14799
796989;14725
796997;14689
797006;14643
797014;14487
797022;14392
797030;14461
797038;14329
797047;14297
797055;14171
797063;14137
797071;14037
797079;14071
797087;13988
797099;14005
797107;14144
797115;14154
797123;14070
797132;14053
797140;14049
797148;14138
797156;14078
797164;14113
797172;13938
797181;13813
797189;13626
797197;13649
797205;13668
797213;13753
797222;13674
797230;13714
797238;13728
797246;13877
797254;13966
797263;14043
797271;13958
797279;13936
797287;13838
797295;13825
797304;13752
797312;13777
797320;13758
797328;14070
797336;12204
797345;8394
797353;6001
797361;9274
797369;16375
797377;16634
797385;15578
797394;14763
797405;14310
797413;14042
797421;13799
797430;13763
797438;13597
797446;13584
797454;13440
797462;13444
797470;13350
797479;13346
797487;13217
797495;13108
797503;12888
797511;12775
797520;12512
797528;12336
797536;12030
797544;11797
797552;11598
797561;11585
797569;11557
797577;11695
797585;11727
797593;12061
797602;12350
797610;12809
797618;13193
797626;13545
797634;13772
797642;14083
797651;14150
797659;14173
797667;14223
797675;14270
797683;14249
797692;14250
797703;14154
797711;14240
797719;14130
797727;14076
797736;13888
797744;13892
797752;13755
797760;13771
797768;13688
797777;13714
797785;13715
797793;13772
797801;13745
797809;13816
797818;13758
797826;13780
797834;13803
797842;13817
797850;13781
797859;13783
797867;13673
797875;13492
797883;13290
797891;13254
797900;13278
797908;13294
797916;13310
797924;13386
797932;13491
797940;13622
797949;13656
797957;13625
797965;13617
797973;13582
797981;13603
797990;13580
797998;13602
798009;13556
798017;14050
798025;12708
798034;9036
798042;6194
798050;7889
798058;15777
798066;16738
798075;15730
798083;14750
798091;14446
798099;14176
798107;13889
798116;13721
798124;13667
798132;13650
798140;13567
798148;13520
798157;13420
798165;13386
798173;13272
798181;13125
798189;12976
798198;12820
798206;12596
798214;12475
798222;12224
798230;11959
798238;11776
798247;11705
798255;11673
798263;11789
798271;11936
798279;12172
798288;12444
798296;12982
798304;13442
798314;14077
798322;14496
798331;14735
798339;14865
798347;14913
798355;14898
798363;14960
798372;14875
798380;14832
798388;14710
798396;14776
798404;14779
798413;14731
798421;14638
798429;14645
798437;14572
798445;14614
798455;14534
798463;14569
798471;14486
798479;14510
798487;14394
798495;14404
798504;14331
798512;14317
798520;14231
798528;14247
798536;14125
798545;13999
798553;13718
798561;13737
798569;13766
798577;13784
798586;13708
798594;13874
798602;13984
798612;14222
798620;14224
798629;14285
798637;14171
798645;14168
798653;14074
798661;14074
798670;13889
798678;13773
798686;14035
798694;13242
798702;10288
798711;7044
798719;6871
798727;14180
798735;17398
798743;16422
798751;15278
798760;14538
798768;14142
798776;13838
798784;13533
798792;13462
798801;13318
798809;13287
798817;13198
798825;13204
798833;13018
798842;13006
798850;12848
798858;12727
798866;12567
798874;12480
798883;12295
798891;12050
798899;11777
798907;11617
798918;11468
798927;11578
798935;11575
798943;11629
798951;11721
798959;12123
798968;12512
798976;13048
798984;13394
798992;13760
799000;13973
799009;14188
799017;14209
799025;14334
799033;14338
799041;14364
799049;14297
799058;14295
799066;14246
799074;14272
799082;14205
799090;14137
799099;13998
799107;13965
799115;13926
799123;13944
799131;13974
799140;13977
799148;13904
799156;13867
799164;13714
799172;13603
799181;13515
799189;13499
799197;13514
799205;13539
799213;13646
799225;13868
799233;13993
799241;14074
799249;14024
799257;14019
799266;13998
799274;14011
799282;13983
799290;13974
799298;13979
799306;13906
799315;14184
799323;13335
799331;10466
799339;7301
799347;7174
799356;14197
799364;17629
799372;16855
799380;15882
799388;14985
799397;14579
799405;14211
799413;13967
799421;13807
799429;13735
799438;13631
799446;13598
799454;13511
799462;13455
799470;13300
799479;13200
799487;12986
799495;12821
799503;12610
799511;12534
799523;12344
799531;12088
799539;11858
799547;11747
799555;11761
799564;11894
799572;12000
799580;12264
799588;12561
799596;12982
799604;13483
799613;13955
799621;14189
799629;14320
799637;14412
799645;14446
799654;14370
799662;14411
799670;14362
799678;14332
799686;14221
799695;14261
799703;14128
799711;14097
799719;14015
799727;14043
799736;13919
799744;13865
799752;13729
799760;13722
799768;13597
799777;13674
799785;13567
799793;13566
799801;13453
799809;13418
799817;13287
799837;13510
799845;13644
799853;13607
799862;13646
799870;13643
799878;13695
799886;13767
799894;13863
799902;13759
799911;13789
799919;13684
799927;13722
799935;13636
799943;13647
799952;13651
799960;13990
799968;12313
799976;8639
799984;5874
799993;8133
800001;15642
800009;16604
800017;15728
800025;14917
800034;14475
800042;14157
800050;13760
800058;13693
800066;13602
800074;13670
800083;13566
800091;13558
800099;13480
800107;13439
800115;13302
800124;13222
800132;13068
800143;13075
800151;12845
800159;12638
800168;12309
800176;12106
800184;11859
800192;11899
800200;11998
800209;12005
800217;11968
800225;12227
800233;12540
800241;13061
800250;13418
800258;13813
800266;14047
800274;14315
800282;14353
800291;14467
800299;14427
800307;14434
800315;14355
800323;14354
800332;14253
800340;14289
800348;14230
800356;14300
800364;14126
800372;14125
800381;13994
800389;13923
800397;13871
800405;13816
800413;13773
800422;13730
800430;13709
800441;13824
800449;13877
800457;13922
800466;13792
800474;13698
800482;13493
800490;13458
800498;13471
800507;13527
800515;13483
800523;13508
800531;13560
800539;13727
800548;13792
800556;13841
800564;13792
800572;13771
800580;13767
800589;13782
800597;13697
800605;13586
800613;13562
800621;13861
800630;12282
800638;8549
800646;5514
800654;7304
800662;14958
800670;16235
800679;15447
800687;14655
800695;14337
800703;13956
800711;13799
800720;13657
800728;13564
800736;13475
800747;13443
800755;13480
800764;13418
800772;13387
800780;13237
800788;13080
800796;12898
800805;12797
800813;12623
800821;12330
800829;12051
800837;11786
800846;11618
800854;11548
800862;11596
800870;11655
800878;11833
800887;12083
800895;12528
800903;12943
800911;13457
800919;13800
800927;14105
800936;14288
800944;14439
800952;14419
800960;14461
800968;14397
800977;14490
800985;14442
800993;14436
801001;14325
801009;14320
801018;14204
801026;14210
801034;14156
801042;14229
801053;14098
801062;13993
801070;13791
801078;13736
801086;13623
801094;13680
801103;13674
801111;13645
801119;13562
801127;13592
801135;13516
801144;13441
801152;13274
801160;13269
801168;13215
801176;13295
801185;13302
801193;13444
801201;13530
801209;13742
801217;13757
801225;13936
801234;13880
801242;14064
801250;14006
801258;14034
801266;13892
801275;13857
801283;13789
801291;14131
801299;12325
801307;8637
801316;6450
801324;9089
801332;16531
801340;17153
801351;15915
801360;15200
801368;14805
801376;14526
801384;14222
801392;14114
801401;13961
801409;13972
801417;13818
801425;13854
801433;13744
801442;13696
801450;13548
801458;13426
801466;13175
801474;13013
801482;12663
801491;12391
801499;12000
801507;11775
801515;11540
801523;11505
801532;11520
801540;11726
801548;11879
801556;12175
801564;12587
801573;13152
801581;13569
801589;13997
801597;14225
801605;14473
801614;14614
801622;14685
801630;14684
801638;14698
801646;14614
801657;14707
801665;14665
801673;14640
801681;14484
801689;14453
801698;14294
801706;14248
801714;14130
801722;14148
801730;14047
801738;14033
801747;13950
801755;13939
801763;13864
801771;13867
801779;13857
801788;13899
801796;13836
801804;13844
801812;13759
801820;13668
801829;13538
801837;13399
801845;13384
801853;13418
801861;13410
801870;13444
801878;13450
801886;13548
801895;13692
801903;13724
801912;13700
801920;13655
801928;13690
801936;13595
801944;13556
801953;13542
801963;13557
801971;13805
801979;11875
801987;7938
801996;5291
802004;7845
802012;15180
802020;16186
802028;15350
802036;14601
802045;14260
802053;13874
802061;13700
802069;13565
802077;13446
802086;13452
802094;13405
802102;13303
802110;13188
802118;13105
802127;13036
802135;12911
802143;12910
802151;12782
802159;12616
802168;12441
802176;12267
802184;11886
802192;11576
802200;11455
802209;11514
802217;11502
802225;11664
802233;11810
802241;12240
802249;12677
802261;13399
802269;13800
802277;14121
802285;14306
802294;14404
802302;14435
802310;14462
802318;14414
802326;14397
802334;14300
802343;14277
802351;14216
802359;14203
802367;14145
802375;14142
802384;14059
802392;14066
802400;14022
802408;14041
802416;13961
802425;14063
802433;14037
802441;14033
802449;13964
802457;14068
802466;14012
802474;13996
802482;13936
802490;14010
802498;14044
802506;14034
802515;13908
802523;13887
802531;13704
802539;13591
802547;13532
802556;13573
802567;13631
802575;13725
802583;13673
802591;13788
802600;13860
802608;13942
802616;13864
802624;13907
802632;13901
802641;13932
802649;13879
802657;13838
802665;13631
802673;13950
802682;13063
802690;10138
802698;6528
802706;6395
802714;12940
802723;16639
802731;16087
802739;15180
802747;14629
802755;14335
802764;13988
802772;13899
802780;13755
802788;13705
802796;13634
802804;13621
802813;13499
802821;13388
802829;13196
802837;13008
802845;12749
802854;12623
802862;12474
802873;12280
802881;11990
802889;11747
802898;11453
802906;11326
802914;11252
802922;11410
802930;11414
802939;11621
802947;11929
802955;12422
802963;12843
802971;13260
802980;13534
802988;13860
802996;13981
803004;14095
803012;14120
803021;14157
803029;14104
803037;14179
803045;14133
803053;14082
803062;14041
803070;13998
803078;13967
803086;13986
803094;13922
803102;13947
803111;13907
803119;13952
803127;13932
803135;13905
803143;13939
803152;13934
803160;13925
803171;13999
803179;14010
803187;14031
803196;13957
803204;13932
803212;13881
803220;13858
803228;13684
803237;13557
803245;13432
803253;13445
803261;13426
803269;13458
803278;13481
803286;13541
803294;13623
803302;13753
803310;13828
803319;13822
803327;13819
803335;13843
803343;13818
803351;13854
803359;13879
803368;13756
803376;14125
803384;13462
803392;10709
803400;7083
803409;6502
803417;13211
803425;17125
803433;16369
803441;15376
803450;14774
803458;14491
803466;14035
803477;13917
803485;13841
803494;13759
803502;13639
803510;13517
803518;13402
803526;13297
803535;13172
803543;13092
803551;12933
803559;12814
803567;12561
803576;12356
803584;12097
803592;11902
803600;11633
803608;11526
803617;11496
803625;11562
803633;11584
803641;11825
803649;12074
803657;12493
803666;12926
803674;13433
803682;13765
803690;14064
803698;14167
803707;14322
803715;14315
803723;14427
803731;14386
803739;14429
803748;14370
803756;14368
803764;14280
803772;14283
803783;14238
803792;14219
803800;14084
803808;14047
803816;13934
803824;13902
803833;13751
803841;13829
803849;13773
803857;13795
803865;13713
803874;13757
803882;13648
803890;13670
803898;13643
803906;13684
803914;13609
803923;13653
803931;13527
803939;13411
803947;13155
803955;13197
803964;13191
803972;13260
803980;13199
803988;13357
803996;13456
804005;13587
804013;13606
804021;13678
804029;13628
804037;13653
804046;13584
804054;13603
804062;13550
804070;13474
804081;13989
804090;12831
804098;9387
804106;6661
804114;7813
804122;15455
804131;16893
804139;15975
804147;14998
804155;14674
804163;14261
804172;14031
804180;13887
804188;13838
804196;13694
804204;13646
804212;13550
804221;13540
804229;13424
804237;13399
804245;13264
804253;13213
804262;13116
804270;12977
804278;12712
804286;12534
804294;12271
804303;12056
804311;11945
804319;11903
804327;11931
804335;12059
804344;12248
804352;12598
804360;12999
804368;13462
804376;13921
804387;14504
804395;14698
804403;14813
804411;14818
804419;14892
804428;14871
804436;14802
804444;14792
804452;14752
804460;14665
804468;14659
804477;14539
804485;14466
804493;14437
804501;14440
804509;14352
804518;14320
804526;14283
804535;14242
804543;14280
804551;14276
804560;14245
804568;14258
804576;14262
804584;14215
804592;14211
804601;14141
804609;13942
804617;13720
804625;13599
804633;13575
804642;13634
804650;13605
804658;13695
804666;13731
804674;13872
804685;13969
804693;14050
804701;13984
804709;13922
804717;13873
804726;13839
804734;13767
804742;13700
804750;13669
804758;13762
804766;11900
804775;8496
804783;6955
804791;9899
804799;16788
804807;16938
804816;15901
804824;14909
804832;14342
804840;14074
804848;13737
804857;13551
804865;13402
804873;13421
804881;13385
804889;13365
804898;13242
804906;13195
804914;13059
804922;12959
804930;12828
804938;12746
804947;12515
804955;12407
804963;12104
804971;11856
804979;11622
804991;11597
804999;11652
805007;11721
805015;11850
805023;12131
805032;12498
805040;12951
805048;13346
805056;13825
805064;14085
805073;14374
805081;14451
805089;14493
805097;14494
805105;14554
805114;14523
805122;14566
805130;14526
805138;14591
805146;14533
805155;14490
805163;14400
805171;14426
805179;14301
805187;14292
805196;14156
805204;14142
805212;14061
805220;14123
805228;14149
805236;14140
805245;13964
805253;13973
805261;13770
805269;13688
805277;13594
805286;13591
805297;13656
805305;13869
805313;13885
805321;13963
805330;14020
805338;14161
805346;14067
805354;13998
805362;13893
805371;13969
805379;13800
805387;13820
805395;13701
805403;13724
805412;13473
805420;11454
805428;7943
805436;6797
805444;10820
805453;16911
805461;16634
805469;15743
805477;14794
805485;14306
805494;13910
805502;13593
805510;13438
805518;13382
805526;13205
805534;13179
805543;13087
805551;13052
805559;12989
805567;12856
805575;12788
805584;11924
805592;11859
805603;12475
805611;12722
805619;12362
805628;11805
805636;11542
805644;11354
805652;11353
805660;11363
805669;11504
805677;11735
805685;12186
805693;12662
805701;13170
805710;13624
805718;13979
805726;14222
805734;14407
805742;14494
805751;14539
805759;14597
805767;14492
805775;14430
805783;14411
805791;14409
805800;14299
805808;14280
805816;14114
805824;14065
805832;14066
805841;13955
805849;13820
805857;13722
805865;13597
805873;13558
805882;13486
805890;13552
805901;13596
805909;13617
805917;13594
805926;13513
805934;13506
805942;13615
805950;13654
805958;13685
805967;13620
805975;13589
805983;13552
805991;13662
805999;13698
806008;13764
806016;13792
806024;13937
806032;14015
806040;14187
806049;14042
806057;13967
806065;13871
806073;13780
806081;13636
806089;13538
806098;13493
806106;13262
806114;10927
806122;7260
806130;5714
806139;9210
806147;15296
806155;15833
806163;14928
806171;14401
806180;13990
806188;13749
806196;13525
806207;13515
806215;13511
806224;13472
806232;13373
806240;13360
806248;13281
806256;13296
806265;13170
806273;13129
806281;12930
806289;12866
806297;12646
806306;12504
806314;12276
806322;12120
806330;11915
806338;11879
806346;11789
806355;11892
806363;11967
806371;12263
806379;12588
806387;13071
806396;13485
806404;13887
806412;14087
806420;14324
806428;14371
806437;14463
806445;14474
806453;14542
806461;14500
806469;14454
806478;14359
806486;14382
806494;14340
806504;14439
806512;14413
806521;14440
806529;14332
806537;14484
806545;14472
806553;14472
806562;14366
806570;14388
806578;14297
806586;14294
806594;14229
806602;14261
806611;14167
806619;14194
806628;14047
806636;13982
806644;13730
806653;13594
806661;13501
806669;13659
806677;13606
806685;13757
806694;13650
806702;13730
806710;13879
806718;14004
806726;13808
806735;13653
806743;13453
806751;13398
806759;13394
806767;13375
806776;13294
806784;13775
806792;12877
806800;9608
806810;5910
806819;8275
806827;15739
806835;16548
806843;15673
806851;14730
806860;14304
806868;14099
806876;13702
806884;13402
806892;13104
806900;13203
806909;13210
806917;13368
806925;13253
806933;13443
806941;13341
806950;13298
806958;13203
806966;12985
806974;12692
806982;12226
806991;12148
806999;11997
807007;11837
807015;11698
807023;11817
807032;11879
807040;12164
807048;12389
807056;12725
807064;12950
807073;13386
807081;13722
807089;14071
807097;14398
807105;14743
807117;14918
807125;15127
807133;15173
807141;15078
807149;15116
807158;14952
807166;14841
807174;14670
807182;14433
807190;14467
807198;14821
807207;14676
807215;14612
807223;14307
807231;14010
807239;13826
807248;13651
807256;13458
807264;13461
807272;13450
807280;13417
807289;13392
807297;13075
807305;12766
807313;12734
807321;12670
807330;12787
807338;12581
807346;12434
807354;12886
807362;13323
807370;13427
807379;13549
807387;13623
807395;13696
807403;13758
807415;13740
807423;13746
807431;13752
807439;13619
807447;14035
807455;12571
807464;8838
807472;6539
807480;8738
807488;16241
807496;16345
807505;15142
807513;14230
807521;13613
807529;13271
807537;13108
807546;12864
807554;12755
807562;12054
807570;12539
807578;12823
807587;12787
807595;12579
807603;12484
807611;12342
807619;11983
807628;11335
807636;11372
807644;11432
807652;11273
807660;10971
807668;10822
807677;10512
807685;10489
807693;10658
807701;10890
807709;11169
807721;11898
807729;12469
807737;12891
807745;13283
807753;13524
807762;13668
807770;13858
807778;13942
807786;14260
807794;14322
807803;14377
807811;14393
807819;14596
807827;14657
807835;14768
807844;14826
807852;14985
807860;15035
807868;15212
807876;15349
807885;15415
807893;15411
807901;15408
807909;15182
807917;15485
807926;15290
807934;15037
807942;14788
807950;14651
807958;14404
807966;14215
807975;14075
807983;14010
807991;13807
807999;13540
808007;13487
808016;13624
808027;13773
808035;13889
808043;13860
808051;13962
808060;13913
808068;14032
808076;13900
808084;13954
808092;13901
808101;13853
808109;13763
808117;13806
808125;13760
808133;13841
808142;11919
808150;8280
808158;6227
808166;9748
808174;16490
808183;16460
808191;15503
808199;14781
808207;14394
808215;13923
808223;13481
808232;13316
808240;13192
808248;13147
808256;13202
808264;13201
808273;13070
808281;13011
808289;12981
808297;12959
808305;12857
808314;12730
808322;12637
808333;12509
808341;12290
808349;12161
808358;12018
808366;12152
808374;12310
808382;12362
808390;12398
808399;12596
808407;12844
808415;13182
808423;13572
808431;13846
808440;13945
808448;14007
808456;14015
808464;14112
808472;14166
808481;14209
808489;14199
808497;14153
808505;14086
808513;14020
808521;14014
808530;13988
808538;14005
808546;13944
808554;13927
808562;13782
808571;13856
808579;13827
808587;13924
808595;13979
808603;13990
808612;13970
808620;13972
808631;13815
808639;13776
808647;13663
808656;13827
808664;13811
808672;13763
808680;13783
808688;13868
808697;13952
808705;14106
808713;14072
808721;14209
808729;14234
808738;14372
808746;14239
808754;14114
808762;13854
808770;14373
808778;13688
808787;11156
808795;7355
808803;6433
808811;13108
808819;17321
808828;16410
808836;15370
808844;14753
808852;14512
808860;14118
808869;13930
808877;13767
808885;13778
808893;13678
808901;13683
808910;13572
808918;13554
808926;13362
808937;13394
808945;13262
808954;13099
808962;12861
808970;12680
808978;12451
808986;12406
808995;12170
809003;12085
809011;12017
809019;12130
809027;12130
809036;12319
809044;12552
809052;13007
809060;13442
809068;13945
809076;14254
809085;14539
809093;14657
809101;14815
809109;14786
809117;14860
809126;14807
809134;14852
809142;14735
809150;14749
809158;14660
809167;14649
809175;14571
809183;14533
809191;14454
809199;14446
809208;14356
809216;14420
809224;14383
809234;14404
809242;14392
809251;14198
809259;13901
809267;13864
809275;13738
809283;13709
809292;13602
809300;13691
809308;13620
809316;13754
809324;13769
809332;13875
809341;13826
809349;13869
809357;13811
809365;13857
809373;13820
809382;13790
809390;13920
809398;13440
809406;11206
809414;7831
809423;6660
809432;12195
809440;16955
809448;16404
809456;15443
809465;14639
809473;14367
809481;14037
809489;13829
809497;13698
809506;13625
809514;13574
809522;13555
809530;13441
809540;13382
809549;13452
809557;13275
809565;13158
809573;12956
809581;12798
809590;12518
809598;12298
809606;12019
809614;11849
809622;11691
809630;11748
809639;11815
809647;11920
809655;12153
809663;12513
809671;12904
809680;13329
809688;13773
809696;14093
809704;14341
809712;14489
809721;14546
809729;14585
809737;14667
809745;14593
809753;14624
809762;14574
809770;14661
809778;14606
809786;14658
809794;14488
809802;14482
809811;14350
809819;14354
809827;14195
809835;14181
809847;14029
809855;13934
809863;13753
809871;13689
809879;13632
809887;13616
809896;13655
809904;13786
809912;13848
809920;13979
809928;14089
809937;14191
809945;14208
809953;14234
809961;14169
809969;14162
809978;14042
809986;14002
809994;13797
810002;13966
810010;13150
810019;10620
810027;7253
810035;6347
810043;12288
810051;16213
810060;15671
810068;14917
810076;14239
810084;14051
810092;13736
810100;13584
810109;13368
810117;13354
810125;13224
810133;13259
810145;13107
810153;13144
810161;12977
810169;12930
810177;12694
810185;12541
810194;12244
810202;12090
810210;11794
810218;11564
810226;11218
810235;11205
810243;11126
810251;11291
810259;11262
810267;11513
810276;11731
810284;12262
810292;12665
810300;13223
810308;13465
810317;13806
810325;13921
810333;14093
810341;14079
810349;14195
810358;14140
810366;14212
810374;14136
810382;14226
810390;14149
810398;14191
810407;14060
810415;14101
810423;14065
810431;14076
810439;13994
810451;14071
810459;13977
810467;13988
810475;13776
810483;13746
810492;13637
810500;13758
810508;13707
810516;13871
810524;13787
810533;13899
810541;13903
810549;14006
810557;13959
810565;13983
810574;13943
810582;14069
810590;13938
810598;13906
810606;13717
810615;13914
810623;13527
810631;11282
810639;7574
810647;5954
810655;10794
810664;16303
810672;16263
810680;15480
810688;14867
810696;14628
810705;14258
810713;14057
810721;13942
810729;13870
810737;13827
810746;13776
810757;13683
810765;13662
810773;13500
810781;13511
810790;13367
810798;13208
810806;12952
810814;12753
810822;12453
810831;12211
810839;11984
810847;11875
810855;11808
810863;11851
810872;11958
810880;12197
810888;12564
810896;13038
810904;13464
810913;13829
810921;14107
810929;14338
810937;14433
810945;14504
810953;14505
810962;14438
810970;14353
810978;14289
810986;14262
810994;14139
811003;14081
811011;13897
811019;13707
811027;13589
811035;13642
811044;13530
811055;13606
811063;13654
811071;13613
811079;13481
811088;13407
811096;13200
811104;13075
811112;12974
811120;12962
811129;12858
811137;12897
811145;12931
811153;13043
811161;13143
811170;13347
811178;13357
811186;13468
811194;13470
811202;13599
811210;13556
811219;13655
811227;13542
811235;13695
811243;13660
811251;11940
811260;8281
811268;6089
811276;9333
811284;16173
811292;16488
811301;15886
811309;15012
811317;14707
811325;14289
811333;14130
811342;13955
811350;13921
811361;13894
811369;13940
811377;13782
811386;13755
811394;13578
811402;13541
811410;13313
811418;13206
811427;12947
811435;12828
811443;12532
811451;12361
811459;12048
811468;12034
811476;11909
811484;12046
811492;12025
811500;12259
811508;12513
811517;13038
811525;13381
811533;13895
811541;14126
811549;14384
811558;14460
811566;14753
811574;14700
811582;14727
811590;14630
811599;14609
811607;14472
811615;14503
811623;14427
811631;14480
811640;14355
811648;14322
811656;14227
811666;14362
811674;14302
811683;14373
811691;14231
811699;14324
811707;14237
811715;14305
811724;14196
811732;14168
811740;13881
811748;13791
811756;13680
811764;13779
811773;13758
811781;13845
811789;13837
811797;14032
811805;14086
811815;14233
811823;14154
811831;14153
811839;14073
811847;14116
811856;14079
811864;14041
811872;13851
811880;13900
811888;13875
811897;11847
811905;7995
811913;5760
811921;8854
811929;15436
811938;15872
811946;15115
811954;14383
811964;14011
811972;13673
811981;13522
811989;13296
811997;13228
812005;13137
812013;13053
812022;12850
812030;12798
812038;12694
812046;12647
812054;12488
812062;12356
812071;12162
812079;11909
812087;11706
812095;11451
812103;11226
812112;11098
812120;11146
812128;11215
812136;11436
812144;11644
812153;12031
812161;12436
812169;12928
812177;13246
812185;13690
812194;13915
812202;14190
812210;14212
812218;14334
812226;14316
812234;14422
812243;14327
812251;14380
812259;14286
812270;14321
812279;14339
812287;14283
812295;14236
812303;14249
812311;14193
812319;14144
812328;14096
812336;14073
812344;14084
812352;14164
812360;14122
812369;14170
812377;14109
812385;14075
812393;13833
812401;13725
812410;13665
812418;13751
812426;13683
812434;13745
812442;13695
812451;13859
812459;13944
812467;14094
812475;13997
812483;14101
812492;13978
812500;14096
812508;13962
812516;13977
812524;13798
812532;14270
812541;13735
812549;11147
812557;7182
812565;5886
812577;14238
812585;16754
812593;16093
812601;15333
812609;14859
812617;14550
812626;14142
812634;14075
812642;13915
812650;13937
812658;13830
812667;13853
812675;13724
812683;13750
812691;13581
812699;13582
812708;13349
812716;13304
812724;13065
812732;12966
812740;12601
812749;12434
812757;12090
812765;12045
812773;11913
812781;12044
812790;12018
812798;12284
812806;12462
812814;12904
812822;13161
812830;13549
812839;13701
812847;13948
812855;13991
812863;14126
812874;14047
812883;14199
812891;14056
812899;14078
812907;13955
812915;13996
812924;13727
812932;13711
812940;13567
812948;13576
812956;13433
812965;13513
812973;13424
812981;13508
812989;13448
812997;13524
813006;13480
813014;13637
813022;13653
813030;13770
813038;13735
813047;13786
813055;13753
813063;13629
813071;13519
813079;13554
813087;13620
813096;13672
813104;13684
813112;13702
813120;13874
813128;14013
813137;14079
813145;14054
813153;14031
813161;14007
813169;14036
813181;14046
813189;13993
813197;14242
813205;13995
813213;11922
813222;8230
813230;6629
813238;11119
813246;16905
813254;16691
813263;15781
813271;14930
813279;14645
813287;14225
813295;13978
813304;13847
813312;13775
813320;13727
813328;13643
813336;13517
813345;13459
813353;13353
813361;13228
813369;13086
813377;12897
813385;12742
813394;12560
813402;12419
813410;12119
813418;11927
813426;11710
813435;11727
813443;11701
813451;11827
813459;11917
813467;12213
813476;12485
813487;13144
813495;13623
813503;13952
813511;14199
813520;14384
813528;14530
813536;14637
813544;14642
813552;14669
813561;14647
813569;14684
813577;14613
813585;14684
813593;14570
813602;14515
813610;14404
813618;14385
813626;14294
813634;14246
813642;14192
813651;14177
813659;14141
813667;14196
813675;14222
813683;14230
813692;14163
813700;14122
813708;13996
813716;14003
813724;13929
813733;13936
813741;13875
813749;13956
813757;13885
813765;13912
813774;13783
813784;13815
813792;13791
813800;13758
813808;13632
813817;13597
813825;13466
813833;13410
813841;13449
813849;13035
813858;10580
813866;7410
813874;6533
813882;11930
813890;16771
813898;16238
813907;15304
813915;14496
813923;13957
813931;13756
813939;13359
813948;13288
813956;13118
813964;13168
813972;13017
813980;13011
813989;12948
813997;12982
814005;12815
814013;12766
814021;12554
814030;12462
814038;12183
814046;11954
814054;11592
814062;11436
814071;11270
814079;11361
814090;11526
814098;11792
814106;11981
814115;12402
814123;12726
814131;13183
814139;13463
814147;13795
814156;14030
814164;14293
814172;14278
814180;14419
814188;14361
814196;14443
814205;14408
814213;14396
814221;14242
814229;14225
814237;14069
814246;14032
814254;13914
814262;13971
814270;13917
814278;14005
814287;13999
814295;14071
814303;14052
814311;14155
814319;14181
814328;14221
814336;14276
814344;14413
814352;14493
814360;14611
814369;14554
814377;14399
814388;14255
814396;14314
814404;14218
814413;14209
814421;14161
814429;14190
814437;14167
814445;14290
814454;14262
814462;14297
814470;14251
814478;14305
814486;14227
814494;14133
814503;13959
814511;14200
814519;13639
814527;11059
814535;7403
814544;6147
814552;10948
814560;15883
814568;15785
814576;14859
814585;14204
814593;13985
814601;13601
814609;13406
814617;13289
814626;13215
814634;13150
814642;13073
814650;12997
814658;12902
814666;12776
814675;12666
814683;12621
814694;12504
814702;12346
814711;12103
814719;11798
814727;11580
814735;11299
814743;11192
814751;11193
814760;11303
814768;11428
814776;11649
814784;11996
814792;12369
814801;12787
814809;13320
814817;13775
814825;14025
814833;14201
814842;14179
814850;14264
814858;14194
814866;14221
814874;14173
814883;14212
814891;14131
814899;14168
814907;14092
814915;14117
814924;14082
814932;14084
814940;14079
814948;14195
814956;14072
814964;14075
814973;13978
814981;14010
814989;13915
815000;13964
815009;13991
815017;14003
815025;13965
815033;13910
815041;13733
815049;13565
815058;13550
815066;13657
815074;13645
815082;13640
815090;13602
815099;13694
815107;13754
815115;13839
815123;13821
815131;13857
815140;13820
815148;13862
815156;13786
815164;13810
815172;13601
815181;14033
815189;13071
815197;10062
815205;6736
815213;6841
815222;13521
815230;16423
815238;15841
815246;15036
815254;14508
815262;14226
815271;13897
815279;13790
815287;13616
815298;13645
815306;13599
815315;13509
815323;13319
815331;13289
815339;13267
815347;13239
815356;13093
815364;12971
815372;12695
815380;12623
815388;12346
815397;12130
815405;11901
815413;11859
815421;11808
815429;11877
815438;11953
815446;12246
815454;12544
815462;12963
815470;13249
815479;13745
815487;13980
815495;14175
815503;14197
815511;14189
815519;14016
815528;14050
815536;14150
815544;14126
815552;14014
815560;13962
815569;13922
815577;13852
815585;13753
815593;13679
815603;13713
815612;13803
815620;13673
815628;13491
815636;13313
815644;13551
815653;13754
815661;14016
815669;14066
815677;14048
815685;13877
815694;13912
815702;13854
815710;13822
815718;13587
815726;13563
815735;13510
815743;13497
815751;13533
815759;13695
815767;13743
815775;13895
815784;13988
815792;13956
815800;13879
815808;13768
815816;13766
815825;13755
815833;13721
815841;13605
815849;14046
815857;13243
815866;10300
815874;6876
815882;6527
815890;13275
815898;16597
815910;15804
815918;14965
815926;14583
815934;14232
815942;13884
815951;13809
815959;13641
815967;13512
815975;13528
815983;13425
815992;13357
816000;13293
816008;13197
816016;13051
816024;12912
816033;12802
816041;12603
816049;12419
816057;12186
816065;11990
816073;11773
816082;11720
816090;11767
816098;11977
816106;12016
816114;12180
816123;12420
816131;12913
816139;13348
816147;13789
816155;14044
816164;14360
816172;14443
816180;14495
816188;14359
816196;14404
816208;14514
816216;14431
816224;14314
816232;14371
816240;14421
816249;14363
816257;14432
816265;14326
816273;14455
816281;14488
816290;14388
816298;14298
816306;14236
816314;14260
816322;14173
816330;14126
816339;14033
816347;13991
816355;13896
816363;13804
816371;13532
816380;13549
816388;13475
816396;13464
816404;13375
816412;13558
816421;13490
816429;13523
816437;13374
816445;13395
816453;13645
816462;14038
816470;13865
816478;13665
816486;13444
816494;13406
816503;13286
816514;13296
816522;11064
816530;7444
816538;5901
816547;11364
816555;16335
816563;16085
816571;14814
816579;14451
816588;14271
816596;13959
816604;13638
816612;13580
816620;13451
816628;13413
816637;13210
816645;13334
816653;13156
816661;13103
816669;13013
816678;12842
816686;12657
816694;12500
816702;12266
816710;12070
816719;11772
816727;11599
816735;11425
816743;11469
816751;11539
816760;11676
816768;11801
816776;12138
816784;12519
816792;12965
816801;13391
816809;13718
816820;14068
816828;14341
816836;14401
816845;14501
816853;14460
816861;14502
816869;14384
816877;14371
816886;14336
816894;14365
816902;14290
816910;14261
816918;14165
816926;14146
816935;14131
816943;14098
816951;14036
816959;14116
816967;14110
816976;14031
816984;14032
816992;14064
817000;13992
817008;13964
817017;13831
817025;13737
817033;13759
817041;13752
817049;13799
817058;13835
817066;13946
817074;14039
817082;14143
817090;14133
817098;14128
817107;14079
817118;14125
817126;14120
817134;14037
817143;13929
817151;14248
817159;13541
817167;10648
817175;6940
817183;6358
817192;13552
817200;16887
817208;16165
817216;15179
817224;14707
817233;14442
817241;14038
817249;13807
817257;13624
817265;13493
817274;13396
817282;13355
817290;13267
817298;13197
817306;13089
817315;12986
817323;12827
817331;12726
817339;12520
817347;12291
817356;12024
817364;11849
817372;11561
817380;11537
817388;11552
817396;11700
817405;11794
817413;12110
817424;12509
817432;12989
817441;13397
817449;13774
817457;14018
817465;14286
817473;14405
817481;14511
817490;14511
817498;14560
817506;14476
817514;14405
817522;14337
817531;14262
817539;14193
817547;14253
817555;14170
817563;14147
817572;14043
817580;14098
817588;14027
817596;14032
817604;14055
817613;14102
817621;14046
817629;14124
817637;14126
817645;14111
817654;14045
817662;13992
817670;13803
817678;13597
817686;13463
817694;13592
817703;13615
817711;13671
817722;13723
817730;13917
817738;13929
817747;14025
817755;14055
817763;14098
817771;13958
817779;13915
817788;13926
817796;13931
817804;13809
817812;14320
817820;13254
817829;10157
817837;6591
817845;6860
817853;14178
817861;16803
817870;15991
817878;15088
817886;14580
817894;14395
817902;14058
817911;13801
817919;13692
817927;13621
817935;13566
817943;13542
817951;13565
817960;13470
817968;13263
817976;13180
817984;13028
817992;12909
818001;12665
818009;12465
818017;12262
818028;12150
818036;11923
818045;11972
818053;11871
818061;12021
818069;12123
818077;12373
818086;12708
818094;13080
818102;13481
818110;13949
818118;14172
818127;14339
818135;14415
818143;14553
818151;14500
818159;14423
818168;14375
818176;14431
818184;14283
818192;14267
818200;14196
818209;14022
818217;13948
818225;13957
818233;13974
818241;13887
818249;13774
818258;13815
818266;13859
818274;13806
818282;13807
818290;13796
818299;13747
818307;13804
818315;13780
818323;13615
818333;13592
818342;13744
818350;13751
818358;13745
818366;13818
818374;14012
818383;14046
818391;14066
818399;13973
818407;13917
818415;13900
818424;13790
818432;13725
818440;13749
818448;13599
818456;13973
818465;12753
818473;9453
818481;6681
818489;7751
818498;15256
818506;16708
818515;15913
818523;14931
818531;14367
818539;14070
818547;13805
818556;13523
818564;13510
818572;13396
818580;13277
818588;13160
818597;13099
818605;12957
818613;12910
818621;12716
818631;12707
818640;12622
818648;12455
818656;12183
818664;11967
818672;11748
818681;11567
818689;11552
818697;11674
818705;11716
818713;11977
818722;12300
818730;12679
818738;13091
818746;13566
818754;13917
818762;14299
818771;14366
818779;14651
818787;14707
818795;14688
818803;14683
818812;14650
818820;14503
818828;14574
818836;14466
818844;14475
818853;14359
818861;14291
818869;14170
818877;14177
818885;14033
818894;14069
818902;14067
818910;14129
818918;14083
818926;14142
818938;14120
818946;14185
818954;13977
818962;13810
818970;13708
818979;13746
818987;13668
818995;13840
819003;13904
819011;13996
819020;14039
819028;14143
819036;14035
819044;14036
819052;13965
819060;14020
819069;13919
819077;13789
819085;13656
819093;13964
819101;13378
819110;10942
819118;7367
819126;6144
819134;11882
819142;16558
819151;16129
819159;15221
819167;14451
819175;14164
819183;13794
819192;13662
819200;13447
819208;13383
819216;13327
819224;13229
819233;13074
819252;13293
819260;13296
819268;13028
819277;12822
819285;12547
819293;12370
819301;12083
819309;11803
819318;11577
819326;11642
819334;11608
819342;11768
819350;11839
819358;12056
819367;12441
819375;12912
819383;13357
819391;13728
819399;13939
819408;14167
819416;14255
819424;14327
819432;14333
819440;14324
819449;14319
819457;14265
819465;14180
819473;14100
819481;13975
819490;14022
819498;13947
819506;13924
819514;13849
819522;13768
819530;13834
819539;13814
819550;13923
819558;14046
819566;13981
819575;13970
819583;13913
819591;13932
819599;13916
819607;13858
819615;13744
819624;13675
819632;13608
819640;13570
819648;13741
819656;13745
819665;13708
819673;13747
819681;13840
819689;13987
819697;14015
819706;13908
819714;14040
819722;14047
819730;14016
819738;13917
819747;13876
819755;14101
819763;13657
819771;11208
819779;7462
819788;5976
819796;11186
819804;16374
819812;16389
819820;15450
819828;14886
819837;14478
819845;14201
819856;14031
819864;13965
819873;13825
819881;13712
819889;13626
819897;13510
819905;13378
819913;13323
819922;13215
819930;13177
819938;13031
819946;12847
819954;12591
819963;12331
819971;12048
819979;11869
819987;11729
819995;11798
820004;11876
820012;12032
820020;12170
820028;12530
820036;12846
820045;13397
820053;13737
820061;14036
820069;14298
820077;14453
820086;14400
820094;14460
820102;14419
820110;14432
820118;14314
820126;14322
820135;14258
820143;14232
820151;14036
820162;14015
820170;14020
820179;13944
820187;13780
820195;13784
820203;13734
820211;13790
820220;13669
820228;13664
820236;13605
820244;13678
820252;13576
820261;13607
820269;13539
820277;13523
820285;13320
820293;13364
820302;13336
820310;13424
820318;13360
820326;13406
820334;13416
820343;13560
820351;13590
820359;13671
820367;13636
820375;13598
820383;13561
820392;13660
820400;13524
820408;13471
820416;13437
820424;13746
820433;11928
820441;8208
820449;5538
820460;11018
820468;16258
820477;16097
820485;15177
820493;14697
820501;14318
820509;13971
820518;13832
820526;13801
820534;13568
820542;13491
820550;13349
820559;13339
820567;13196
820575;13192
820583;13030
820591;12849
820600;12858
820608;12792
820616;12573
820624;12351
820632;12075
820641;11880
820649;11707
820657;11627
820665;11636
820673;11762
820681;11972
820690;12188
820698;12606
820706;13036
820714;13450
820722;13829
820731;14040
820739;14213
820747;14408
820755;14414
820766;14358
820775;14478
820783;14461
820791;14378
820799;14256
820807;14166
820816;14137
820824;14208
820832;14118
820840;14115
820848;14026
820857;14071
820865;14092
820873;14146
820881;14108
820889;14127
820898;14096
820906;14067
820914;13990
820922;14009
820930;14076
820938;14057
820947;13954
820955;13745
820963;13640
820971;13615
820979;13637
820988;13643
820996;13701
821004;13748
821012;13825
821020;13894
821029;13951
821037;13870
821045;13825
821053;13808
821064;13922
821073;13930
821081;13875
821089;13763
821097;14216
821105;12944
821114;9390
821122;6126
821130;7050
821138;14752
821146;16506
821155;15645
821163;14702
821171;14311
821179;14110
821187;13747
821196;13618
821204;13486
821212;13462
821220;13332
821228;13263
821236;13160
821245;13104
821253;12994
821261;12954
821269;12814
821277;12740
821286;12499
821294;12333
821302;12075
821310;11875
821318;11634
821327;11565
821335;11520
821343;11628
821351;11657
821359;11865
821371;12305
821379;12795
821387;13167
821395;13529
821403;13760
821412;13974
821420;14021
821428;14035
821436;14184
821444;14280
821453;14197
821461;14197
821469;14121
821477;14166
821485;14073
821494;14107
821502;14086
821510;14189
821518;14071
821526;14106
821534;14047
821543;14160
821551;14083
821559;14143
821567;14036
821575;14097
821584;13972
821592;14005
821600;13934
821608;13977
821616;13875
821625;13788
821633;13708
821641;13608
821649;13524
821657;13592
821666;13604
821676;13785
821684;13826
821692;14025
821700;14030
821709;14192
821717;14088
821725;14188
821733;14007
821741;14091
821750;13991
821758;14015
821766;13816
821774;14328
821782;13255
821790;10071
821799;6744
821807;7304
821816;14690
821824;16818
821832;15934
821841;14942
821849;14487
821857;14194
821865;13860
821873;13700
821882;13576
821890;13537
821898;13502
821906;13398
821914;13340
821923;13183
821931;13123
821939;12967
821947;12980
821955;12824
821964;12681
821972;12413
821982;12127
821990;11995
821998;11802
822007;11713
822015;11704
822023;11823
822031;11960
822039;12140
822047;12567
822056;13047
822064;13494
822072;13918
822080;14250
822088;14457
822097;14600
822105;14638
822113;14703
822121;14690
822129;14726
822138;14608
822146;14619
822154;14510
822162;14485
822170;14321
822179;14433
822187;14299
822195;14275
822203;14129
822211;14181
822220;14061
822228;14127
822236;14016
822244;14052
822252;13920
822260;14059
822269;14038
822280;14107
822288;14076
822296;14028
822305;13748
822313;13669
822321;13661
822329;13777
822337;13696
822345;13800
822354;13799
822362;13983
822370;14007
822378;14101
822386;14041
822395;14119
822403;14017
822411;14077
822419;13894
822427;13948
822436;13795
822444;14211
822452;12711
822460;9398
822468;6825
822477;8562
822485;16015
822493;17089
822501;16007
822509;15080
822518;14443
822526;14271
822534;13852
822542;13790
822550;13597
822558;13678
822567;13521
822575;13486
822586;13316
822594;13379
822602;13189
822611;13156
822619;12926
822627;12845
822635;12551
822643;12409
822652;11997
822660;11871
822668;11641
822676;11692
822684;11651
822693;11829
822701;11904
822709;12245
822717;12505
822725;12995
822734;13326
822742;13801
822750;14031
822758;14266
822766;14383
822775;14539
822783;14416
822791;14482
822799;14412
822807;14376
822815;14216
822824;14205
822832;14053
822840;14036
822848;13926
822856;13961
822865;13900
822873;13923
822884;13887
822892;14041
822900;13902
822909;13960
822917;13863
822925;13969
822933;13869
822941;13959
822950;13864
822958;13945
822966;13871
822974;13890
822982;13695
822991;13596
822999;13481
823007;13553
823015;13505
823023;13540
823032;13496
823040;13628
823048;13739
823056;13860
823064;13828
823073;13850
823081;13826
823089;13818
823097;13769
823105;13692
823113;13577
823122;13674
823130;13676
823138;11728
823146;8016
823154;6068
823163;9940
823171;16187
823179;16264
823190;15037
823198;14452
823207;14218
823215;13791
823223;13710
823231;13572
823239;13501
823248;13381
823256;13363
823264;13253
823272;13181
823280;13092
823289;13012
823297;12900
823305;12757
823313;12657
823321;12461
823330;12270
823338;11992
823346;11817
823354;11645
823362;11655
823370;11648
823379;11855
823387;11994
823395;12298
823403;12566
823411;13053
823420;13420
823428;13807
823436;13968
823444;14233
823452;14228
823461;14294
823469;14224
823477;14209
823485;14044
823496;14037
823505;14083
823513;14033
823521;13971
823529;13943
823537;13906
823546;13926
823554;13863
823562;13822
823570;13816
823578;13802
823587;13771
823595;13802
823603;13749
823611;13861
823619;13825
823628;13904
823636;13850
823644;13897
823652;13859
823660;13878
823668;13852
823677;13801
823685;13609
823693;13551
823701;13509
823709;13575
823718;13583
823726;13673
823734;13659
823742;13774
823750;13821
823759;13938
823767;13859
823775;13983
823783;13945
823794;13973
823803;13935
823811;13882
823819;13738
823827;14056
823835;12545
823844;8954
823852;6263
823860;8194
823868;15366
823876;16436
823885;15587
823893;14775
823901;14396
823909;14077
823917;13779
823926;13685
823934;13522
823942;13504
823950;13373
823958;13357
823966;13236
823975;13197
823983;13112
823991;13141
823999;12938
824007;12789
824016;12468
824024;12401
824032;12192
824040;11974
824048;11706
824057;11629
824065;11554
824073;11625
824081;11731
824089;11979
824101;12445
824109;13007
824117;13370
824125;13798
824133;14012
824142;14229
824150;14289
824158;14379
824166;14285
824174;14338
824183;14241
824191;14219
824199;14135
824207;14185
824215;14106
824223;14093
824232;13957
824240;13954
824248;13901
824256;13907
824264;13837
824273;13885
824281;13864
824289;13922
824297;13866
824305;13904
824314;13919
824322;13967
824330;13946
824338;13984
824346;13923
824355;13918
824363;13936
824371;13970
824379;13912
824387;13712
824396;13612
824406;13699
824414;13723
824422;13734
824430;13645
824439;13735
824447;13787
824455;13920
824463;13891
824471;13893
824479;13860
824488;13857
824496;13814
824504;13773
824512;13724
824520;13735
824529;14001
824538;12449
824545;8865
824553;6290
824561;8384
824571;15701
824579;16543
824587;15584
824595;14708
824603;14400
824612;14080
824620;13782
824628;13686
824636;13603
824644;13569
824653;13486
824661;13433
824669;13355
824677;13337
824685;13225
824694;13145
824702;12962
824712;12906
824720;12731
824728;12444
824737;12157
824745;11900
824753;11712
824761;11647
824769;11632
824777;11713
824786;11847
824794;12139
824802;12452
824810;12877
824818;13303
824827;13709
824835;13976
824843;14208
824851;14287
824859;14353
824868;14294
824876;14391
824884;14354
824892;14314
824900;14193
824909;14216
824917;14118
824925;14105
824933;14104
824941;14127
824950;13978
824958;14044
824966;13976
824974;13968
824982;13872
824990;13900
824999;13877
825010;13998
825018;14021
825026;13976
825034;13888
825043;13892
825051;13878
825059;13958
825067;13881
825075;13860
825084;13768
825092;13745
825100;13516
825108;13472
825116;13390
825125;13465
825133;13393
825141;13546
825149;13555
825157;13663
825166;13670
825174;13751
825182;13660
825190;13673
825198;13696
825207;13753
825215;13653
825223;13652
825231;13565
825239;13862
825247;12260
825256;8770
825264;6393
825272;8848
825280;16051
825288;16642
825297;15574
825305;14681
825316;14362
825324;14129
825332;13839
825341;13807
825349;13635
825357;13612
825365;13481
825373;13462
825382;13332
825390;13309
825398;13158
825406;13092
825414;12933
825423;12833
825431;12599
825439;12378
825447;12103
825455;11937
825464;11708
825472;11702
825480;11618
825488;11672
825496;11746
825505;11938
825513;12245
825521;12686
825529;13099
825537;13513
825545;13843
825554;14129
825562;14227
825570;14300
825578;14364
825586;14311
825595;14255
825603;14264
825614;14163
825622;14386
825630;14289
825639;14219
825647;14095
825655;14086
825663;13989
825671;13994
825680;13911
825688;13851
825696;13819
825704;13925
825712;13978
825721;13933
825729;13917
825737;13896
825745;13874
825753;13899
825762;13841
825770;13865
825778;13802
825786;13709
825794;13537
825802;13448
825811;13478
825819;13529
825827;13607
825835;13564
825843;13602
825852;13678
825860;13826
825868;13804
825876;13753
825884;13719
825893;13769
825901;13769
825909;13804
825920;13708
825928;14150
825937;13209
825945;10250
825953;7066
825961;7123
825969;14324
825978;16941
825986;16056
825994;15031
826002;14517
826010;14269
826019;14021
826027;13888
826035;13769
826043;13824
826051;13659
826060;13586
826068;13454
826076;13375
826084;13292
826092;13276
826100;13123
826109;13100
826117;12951
826125;12755
826133;12488
826141;12343
826150;12120
826158;12045
826166;11909
826174;11962
826182;11971
826191;12215
826199;12343
826207;12761
826215;13193
826226;13872
826235;14155
826243;14457
826251;14555
826259;14620
826267;14538
826276;14603
826284;14555
826292;14582
826300;14427
826308;14479
826317;14446
826325;14394
826333;14300
826341;14322
826349;14159
826358;14183
826366;14153
826374;14233
826382;14186
826390;14260
826398;14257
826407;14362
826415;14330
826423;14387
826431;14307
826439;14319
826448;14109
826456;13971
826464;13783
826472;13873
826480;13819
826489;13813
826497;13971
826505;14087
826513;14088
826524;14208
826533;14204
826541;14124
826549;14000
826557;14036
826565;13910
826574;13900
826582;13692
826590;13952
826598;12560
826606;9424
826615;6964
826623;8146
826631;15601
826639;17092
826647;15977
826655;14998
826664;14214
826672;13923
826680;13578
826688;13356
826696;13207
826705;13177
826713;13082
826721;12997
826729;12933
826737;12844
826746;12714
826754;12657
826762;12517
826770;12384
826778;12117
826787;11940
826795;11754
826803;11523
826811;11227
826819;11193
826831;11209
826839;11430
826847;11629
826855;11988
826863;12308
826872;12727
826880;13156
826888;13589
826896;13992
826904;14248
826913;14270
826921;14461
826929;14537
826937;14552
826945;14480
826953;14446
826962;14388
826970;14253
826978;14132
826986;14075
826994;14008
827003;13950
827011;13989
827019;13951
827027;13943
827035;13931
827044;13983
827052;13909
827060;13897
827068;13880
827076;13988
827085;13787
827093;13663
827101;13609
827109;13688
827117;13708
827126;13834
827136;13939
827144;14086
827152;14122
827160;14040
827169;14016
827177;14039
827185;13945
827193;13856
827201;13806
827209;13737
827218;13629
827226;13812
827234;12707
827242;9817
827250;7370
827259;8020
827268;15101
827276;17004
827284;16128
827292;15108
827301;14348
827309;14046
827317;13769
827325;13576
827333;13450
827342;13485
827350;13423
827358;13355
827366;13269
827374;13259
827383;13099
827391;13013
827399;12921
827407;12767
827415;12529
827423;12462
827434;12129
827442;11930
827450;11745
827458;11649
827466;11600
827475;11637
827483;11763
827491;12070
827499;12469
827507;12933
827516;13412
827524;13854
827532;14112
827540;14405
827548;14526
827557;14551
827565;14527
827573;14600
827581;14588
827589;14526
827598;14437
827606;14397
827614;14212
827622;14216
827630;14082
827639;14066
827647;13983
827655;13996
827663;13950
827671;13995
827679;13879
827688;13906
827696;13830
827704;13890
827712;13909
827720;13978
827729;13878
827740;13782
827748;13674
827756;13698
827764;13658
827773;13705
827781;13783
827789;13847
827797;13909
827805;14078
827814;14078
827822;14077
827830;14003
827838;14072
827846;13910
827855;13899
827863;13756
827871;13866
827879;13481
827887;11505
827896;7983
827904;6493
827912;11012
827920;16546
827928;16249
827937;15303
827945;14542
827953;14225
827961;13884
827969;13762
827977;13634
827986;13567
827994;13463
828002;13421
828010;13306
828018;13184
828027;13135
828035;13165
828046;13014
828054;12891
828062;12677
828071;12531
828079;12285
828087;12058
828095;11743
828103;11619
828112;11522
828120;11649
828128;11781
828136;12047
828144;12341
828153;12830
828161;13238
828169;13692
828177;13966
828185;14228
828194;14366
828202;14444
828210;14392
828218;14367
828226;14482
828234;14446
828243;14408
828251;14298
828259;14217
828267;14127
828275;14023
828284;13937
828292;13928
828300;13902
828308;13906
828316;13901
828325;13860
828333;13794
828344;13848
828352;13899
828360;13850
828369;13848
828377;13759
828385;13780
828393;13740
828401;13561
828410;13369
828418;13319
828426;13290
828434;13418
828442;13499
828451;13453
828459;13457
828467;13700
828475;13786
828483;13679
828492;13723
828500;13713
828508;13724
828516;13658
828524;13599
828532;13504
828541;13666
828549;13372
828557;11426
828565;7697
828573;6140
828582;10355
828590;16178
828598;16071
828606;15137
828614;14493
828623;14237
828631;13867
828639;13696
828650;13576
828658;13629
828667;13476
828675;13491
828683;13414
828691;13387
828699;13234
828708;13104
828716;12924
828724;12788
828732;12567
828740;12408
828749;12156
828757;12010
828765;11749
828773;11628
828781;11515
828790;11602
828798;11682
828806;11940
828814;12245
828822;12693
828830;13100
828839;13536
828847;13833
828855;14201
828863;14330
828871;14392
828880;14437
828888;14537
828896;14415
828904;14387
828912;14253
828921;14267
828929;14213
828937;14163
828945;14168
828956;14154
828965;14124
828973;14146
828981;14030
828989;14058
828997;14001
829006;13991
829014;13969
829022;14067
829030;13989
829038;14063
829047;14049
829055;14107
829063;14070
829071;14024
829079;13807
829087;13662
829096;13634
829104;13804
829112;13844
829120;13863
829128;13828
829137;13859
829145;13992
829153;14148
829161;14107
829169;14105
829178;14087
829186;14121
829194;14052
829202;14043
829210;13950
829219;13941
829227;14062
829235;12493
829243;8895
829254;6619
829263;11724
829271;16527
829279;16215
829287;15259
829295;14576
829304;14313
829312;13965
829320;13819
829328;13668
829336;13597
829345;13501
829353;13510
829361;13383
829369;13268
829377;13189
829385;13184
829394;13064
829402;12885
829410;12747
829418;12504
829426;12267
829435;11963
829443;11777
829451;11666
829459;11599
829467;11509
829476;11655
829484;11801
829492;12124
829500;12422
829508;12867
829517;13284
829525;13712
829533;13916
829541;14130
829549;14223
829561;14380
829569;14440
829577;14408
829585;14376
829593;14249
829602;14196
829610;14146
829618;14004
829626;13958
829634;13902
829642;13884
829651;13856
829659;13853
829667;13823
829675;13814
829683;13787
829692;13817
829700;13817
829708;13903
829716;13785
829724;13815
829733;13874
829741;13937
829749;13959
829757;13988
829765;13866
829774;13725
829782;13577
829790;13607
829798;13586
829806;13642
829815;13601
829823;13691
829831;13708
829839;13888
829847;13812
829858;13851
829866;13855
829874;13823
829882;13714
829890;13781
829898;13703
829907;13688
829915;13963
829923;12943
829931;9891
829939;6915
829948;7257
829957;14117
829965;16362
829973;15795
829981;14737
829990;14344
829998;14064
830006;13777
830014;13517
830022;13533
830031;13406
830039;13423
830047;13244
830055;13241
830063;13191
830072;13178
830080;12999
830088;12954
830096;12739
830104;12611
830113;12322
830121;12140
830129;11863
830137;11689
830145;11505
830153;11575
830164;11686
830172;11902
830180;12035
830188;12489
830196;12847
830205;13358
830213;13674
830221;14089
830229;14254
830237;14477
830246;14489
830254;14594
830262;14629
830270;14726
830278;14587
830287;14577
830295;14483
830303;14488
830311;14372
830319;14325
830328;14246
830336;14308
830344;14256
830352;14181
830360;14094
830369;14087
830377;13999
830385;14016
830393;13941
830401;13913
830409;13906
830418;13876
830426;13863
830434;13857
830442;13817
830450;13758
830459;13655
830470;13553
830478;13544
830486;13570
830494;13499
830503;13540
830511;13503
830519;13601
830527;13719
830535;13818
830544;13823
830552;13781
830560;13748
830568;13702
830576;13686
830585;13624
830593;13599
830601;13692
830609;13569
830617;11653
830626;8103
830634;6458
830642;10380
830650;16238
830658;16215
830666;15189
830675;14450
830683;14148
830691;13880
830699;13583
830707;13585
830716;13450
830724;13361
830732;13347
830740;13431
830748;13292
830757;13256
830765;13108
830776;13112
830784;13014
830792;12842
830801;12624
830809;12373
830817;12083
830825;11946
830833;11858
830842;11787
830850;11811
830858;11934
830866;12117
830874;12451
830883;12851
830891;13330
830899;13678
830907;14064
830915;14251
830924;14477
830932;14493
830940;14544
830948;14494
830956;14528
830964;14457
830973;14423
830981;14301
830989;14258
830997;14174
831005;14160
831014;14074
831022;14073
831030;13955
831038;13973
831046;13965
831055;14006
831063;13878
831074;13947
831082;13944
831090;13975
831099;13922
831107;13958
831115;13881
831123;13910
831131;13859
831140;13939
831148;13802
831156;13715
831164;13473
831172;13422
831181;13323
831189;13446
831197;13323
831205;13392
831213;13428
831222;13589
831230;13509
831238;13612
831246;13617
831254;13593
831262;13610
831271;13645
831279;13570
831287;13539
831295;13772
831303;13330
831312;10798
831320;7228
831328;6207
831336;12085
831344;16474
831353;16049
831361;15060
831369;14512
831380;14110
831388;13968
831397;13791
831405;13743
831413;13548
831421;13522
831429;13434
831438;13390
831446;13227
831454;13176
831462;13020
831470;12939
831479;12696
831487;12554
831495;12272
831503;12100
831511;11824
831519;11635
831528;11447
831536;11446
831544;11475
831552;11582
831560;11738
831569;12084
831577;12490
831585;12971
831593;13337
831601;13702
831610;13971
831618;14200
831626;14280
831634;14271
831642;14306
831651;14324
831659;14303
831667;14238
831678;14194
831686;14259
831695;14171
831703;14139
831711;14060
831719;14010
831727;13940
831736;13888
831744;13802
831752;13761
831760;13741
831768;13868
831777;13867
831785;13836
831793;13817
831801;13784
831809;13766
831817;13762
831826;13769
831834;13681
831842;13589
831850;13355
831858;13378
831867;13427
831875;13526
831883;13486
831891;13523
831899;13562
831908;13729
831916;13809
831924;13842
831932;13794
831940;13793
831949;13715
831957;13746
831965;13693
831973;13703
831984;14214
831993;13209
832001;10057
832009;6883
832017;7385
832025;14780
832034;16749
832042;15885
832050;14823
832058;14406
832066;14155
832074;13847
832083;13692
832091;13687
832099;13560
832107;13535
832115;13375
832124;13317
832132;13152
832140;13086
832148;12877
832156;12854
832165;12692
832173;12630
832181;12404
832189;12183
832197;11883
832206;11715
832214;11534
832222;11615
832230;11611
832238;11821
832247;11923
832255;12237
832263;12605
832271;13115
832279;13480
832290;14049
832298;14337
832306;14539
832314;14540
832322;14559
832330;14531
832339;14560
832347;14448
832355;14431
832363;14319
832371;14366
832380;14144
832389;14365
832397;14317
832405;14363
832413;14194
832422;14183
832430;14090
832438;14126
832446;14067
832454;14144
832463;14089
832471;14155
832479;14121
832487;14168
832495;14080
832504;14065
832512;13962
832520;13864
832528;13668
832536;13683
832545;13711
832553;13781
832561;13761
832569;13841
832577;13925
832588;14161
832596;14124
832604;14204
832612;14125
832620;14138
832628;14056
832637;14065
832645;13982
832653;13959
832661;14120
832669;12618
832678;8976
832686;6733
832694;9129
832702;16444
832710;16832
832719;15974
832727;15022
832735;14620
832743;14353
832751;14139
832760;13983
832768;13895
832776;13755
832784;13705
832792;13609
832801;13533
832809;13511
832817;13479
832825;13353
832833;13241
832841;13101
832850;12881
832858;12728
832866;12496
832874;12283
832882;12091
832894;11999
832902;12110
832910;12134
832918;12285
832926;12473
832935;12896
832943;13317
832951;13778
832959;14110
832967;14373
832976;14517
832984;14611
832992;14645
833000;14654
833008;14596
833017;14505
833025;14404
833033;14404
833041;14395
833049;14275
833058;14181
833066;14035
833074;14048
833082;13983
833090;13971
833098;13915
833107;13962
833115;13950
833123;13964
833131;13858
833139;13882
833148;13786
833156;13719
833164;13570
833172;13591
833180;13459
833189;13577
833200;13705
833208;13832
833216;13859
833224;13900
833233;13862
833241;13883
833249;13799
833257;13770
833265;13695
833274;13689
833282;13547
833290;13578
833298;13687
833306;12029
833315;8356
833323;6346
833331;9161
833339;16310
833347;16495
833356;15651
833364;14665
833372;14279
833380;13975
833388;13691
833396;13404
833405;13396
833413;13258
833421;13275
833429;13168
833437;13196
833446;13016
833454;12927
833462;12741
833470;12800
833478;12592
833487;12427
833498;12198
833506;12082
833514;11792
833522;11688
833531;11585
833539;11724
833547;11713
833555;11907
833563;12072
833572;12532
833580;12974
833588;13419
833596;13707
833604;14024
833613;14047
833621;14219
833629;14219
833637;14331
833645;14220
833654;14267
833662;14218
833670;14232
833678;14136
833686;14174
833694;14051
833703;14092
833711;13961
833719;13956
833727;13955
833735;13982
833744;13954
833752;14022
833760;13961
833768;13938
833776;13770
833785;13702
833793;13608
833804;13687
833812;13693
833820;13771
833829;13794
833837;13996
833845;13995
833853;14092
833861;14013
833870;14094
833878;13978
833886;14003
833894;13904
833902;13877
833911;13745
833919;14013
833927;13315
833935;10762
833943;7493
833951;6902
833960;12982
833968;17098
833976;16421
833984;15540
833992;14720
834001;14347
834009;13959
834017;13749
834025;13624
834033;13451
834042;13352
834050;13216
834058;13135
834066;13039
834074;12991
834083;12846
834091;12792
834099;12601
834110;12458
834118;12373
834127;12128
834135;11963
834143;11732
834151;11603
834159;11565
834168;11669
834176;11770
834184;11996
834192;12339
834200;12828
834209;13277
834217;13643
834225;13957
834233;14172
834241;14257
834249;14288
834258;14320
834266;14347
834274;14371
834282;14275
834290;14279
834299;14236
834307;14224
834315;14136
834323;14064
834331;13993
834340;14029
834348;13959
834356;14030
834364;13988
834372;14028
834381;13986
834389;13995
834397;13868
834407;13889
834415;13919
834424;13917
834432;13942
834440;13974
834448;13964
834456;14064
834465;14118
834473;14195
834481;14169
834489;14154
834497;14081
834505;14119
834514;14086
834522;14096
834530;13957
834538;14244
834546;13447
834555;10895
834563;7648
834571;7000
834580;13085
834588;17012
834597;16387
834605;15613
834613;14847
834621;14583
834629;14196
834638;13963
834646;13788
834654;13746
834662;13630
834670;13615
834679;13449
834687;13423
834695;13297
834703;13275
834713;13102
834722;12970
834730;12697
834738;12592
834746;12259
834754;12001
834762;11721
834771;11715
834779;11646
834787;11787
834795;11892
834803;12118
834812;12431
834820;12924
834828;13287
834836;13701
834844;13876
834853;14189
834861;14264
834869;14311
834877;14239
834885;14258
834894;14141
834902;14137
834910;14029
834918;14013
834926;13918
834935;13936
834943;13855
834951;13884
834959;13794
834967;13797
834975;13745
834984;13760
834992;13710
835000;13659
835008;13667
835020;13698
835028;13620
835036;13705
835044;13591
835052;13679
835060;13654
835069;13722
835077;13714
835085;13902
835093;13833
835101;13802
835110;13647
835118;13662
835126;13581
835134;13562
835142;13430
835151;13335
835159;13568
835167;12255
835175;8771
835183;5851
835192;7141
835200;14640
835208;15978
835216;15390
835224;14578
835233;14171
835241;13886
835249;13589
835257;13441
835265;13353
835273;13236
835282;13158
835290;13082
835298;13043
835306;13012
835318;12900
835326;12829
835334;12721
835342;12509
835350;12339
835358;12049
835367;11865
835375;11613
835383;11470
835391;11337
835399;11370
835408;11506
835416;11698
835424;12012
835432;12475
835440;12976
835449;13418
835457;13792
835465;14072
835473;14249
835481;14347
835490;14377
835498;14434
835506;14476
835514;14429
835522;14401
835530;14331
835539;14330
835547;14294
835555;14347
835563;14265
835571;14212
835580;14096
835588;14160
835596;14146
835604;14152
835612;14121
835624;14194
835632;14182
835640;14173
835648;14058
835656;13997
835665;13795
835673;13766
835681;13767
835689;13846
835697;13851
835706;13919
835714;13897
835722;13983
835730;14154
835738;14257
835747;14181
835755;14167
835763;14101
835771;14120
835779;14028
835788;14103
835796;14124
835804;14442
835812;12745
835820;8849
835828;5635
835837;7700
835845;15109
835853;16472
835861;15682
835869;15071
835878;14745
835886;14468
835894;14167
835902;14119
835910;13989
835919;13938
835930;13801
835938;13790
835946;13636
835954;13576
835963;13368
835971;13316
835979;13120
835987;13036
835995;12811
836004;12634
836012;12287
836020;12051
836028;11865
836036;11877
836045;11823
836053;11919
836061;11974
836069;12299
836077;12645
836086;13159
836094;13492
836102;13941
836110;14178
836118;14400
836126;14409
836135;14464
836143;14401
836151;14360
836159;14300
836167;14304
836176;14210
836184;14203
836192;14113
836200;14154
836208;14117
836217;14101
836228;14062
836236;14154
836244;14092
836252;14104
836261;13956
836269;13912
836277;13820
836285;13872
836293;13838
836302;13899
836310;13775
836318;13742
836326;13504
836334;13492
836343;13490
836351;13603
836359;13585
836367;13659
836375;13645
836383;13747
836392;13791
836400;13791
836408;13658
836416;13619
836424;13528
836433;13483
836441;13379
836449;13320
836457;13252
836465;13572
836474;12005
836482;8200
836490;5116
836498;6936
836506;14488
836515;15762
836523;15017
836534;14276
836542;14117
836550;13874
836559;13666
836567;13652
836575;13602
836583;13590
836591;13538
836600;13527
836608;13465
836616;13414
836624;13353
836632;13224
836641;13105
836649;12993
836657;12852
836665;12652
836673;12447
836681;12159
836690;11940
836698;11750
836706;11703
836714;11800
836722;11984
836731;12252
836739;12782
836747;13227
836755;13613
836763;13886
836772;14157
836780;14274
836788;14477
836796;14467
836804;14585
836813;14468
836821;14498
836829;14446
836839;14503
836847;14486
836856;14448
836864;14356
836872;14325
836880;14253
836888;14293
836897;14239
836905;14251
836913;14177
836921;14215
836929;14209
836937;14320
836946;14262
836955;14362
836963;14258
836971;14320
836979;14260
836988;14319
836996;14199
837004;14241
837012;14172
837020;14223
837029;14016
837037;13922
837045;13779
837053;13936
837061;13896
837070;14035
837078;13971
837086;14108
837094;14051
837102;14204
837111;14127
837119;14239
837127;14125
837137;14152
837145;13990
837154;13961
837162;13717
837170;14186
837178;13667
837186;11035
837194;6909
837203;5673
837211;11464
837219;16402
837227;15926
837235;15290
837244;14572
837252;14406
837260;14020
837268;13881
837276;13637
837285;13645
837293;13516
837301;13520
837309;13364
837317;13400
837326;13288
837334;13323
837342;13176
837350;13123
837358;12948
837367;12866
837375;12617
837383;12392
837391;12104
837399;11984
837407;11792
837416;11803
837424;11843
837432;11991
837443;12361
837452;12891
837460;13223
837468;13725
837476;13997
837484;14313
837492;14337
837501;14525
837509;14500
837517;14560
837525;14423
837533;14433
837542;14333
837550;14356
837558;14211
837566;14213
837574;14045
837583;14092
837591;14022
837599;14038
837607;14043
837615;14070
837624;13971
837632;13922
837640;13944
837648;13949
837656;13938
837665;13998
837673;14006
837681;14000
837689;13997
837697;13935
837705;13903
837714;13801
837722;13649
837730;13579
837741;13703
837750;13855
837758;13795
837766;13822
837774;13806
837782;13901
837790;13893
837799;13942
837807;13839
837815;13816
837823;13717
837831;13639
837840;13541
837848;13443
837856;13724
837864;13469
837872;10931
837881;7135
837889;5665
837897;10737
837905;16054
837913;15728
837922;15035
837930;14256
837938;13956
837946;13621
837954;13436
837962;13247
837971;13182
837979;13054
837987;13075
837995;12958
838003;12917
838012;12730
838020;12691
838028;12536
838036;12539
838047;12422
838056;12337
838064;12065
838072;11783
838080;11561
838088;11472
838097;11427
838105;11561
838113;11654
838121;11932
838129;12172
838138;12651
838146;13101
838154;13601
838162;13904
838170;14179
838179;14187
838187;14291
838195;14232
838203;14340
838211;14264
838220;14335
838228;14236
838236;14248
838244;14107
838252;14120
838260;14044
838269;14067
838277;13948
838285;13970
838293;13855
838301;13899
838310;13804
838318;13915
838326;13837
838334;13881
838342;13813
838354;13964
838362;13957
838370;14022
838378;13964
838386;14051
838395;13933
838403;13938
838411;13729
838419;13683
838427;13556
838436;13651
838444;13629
838452;13764
838460;13723
838468;13853
838477;13843
838485;14027
838493;13996
838501;14037
838509;13930
838518;13971
838526;13852
838534;13860
838542;13711
838550;14313
838558;13238
838567;10011
838575;6689
838583;6792
838591;13888
838599;16496
838608;15944
838616;15179
838624;14618
838632;14348
838640;13990
838660;13934
838668;13925
838676;13711
838684;13686
838693;13442
838701;13464
838709;13314
838717;13278
838725;13074
838734;12996
838742;12785
838750;12600
838758;12296
838766;12109
838775;11801
838783;11747
838791;11690
838799;11792
838807;11862
838815;12109
838824;12476
838832;12956
838840;13376
838848;13752
838856;13988
838865;14170
838873;14237
838881;14249
838889;14266
838897;14186
838906;14124
838914;14086
838922;14110
838930;14035
838938;14070
838947;14010
838955;13993
838965;13954
838973;13905
838981;13858
838990;13740
838998;13703
839006;13699
839014;13722
839022;13697
839031;13748
839039;13742
839047;13793
839055;13837
839063;13867
839071;13938
839080;13927
839088;13970
839096;13995
839104;13975
839112;13831
839121;13707
839129;13587
839137;13604
839145;13646
839153;13741
839162;13698
839170;13778
839179;13830
839187;13997
839195;13964
839204;14004
839212;13890
839220;13950
839228;13853
839236;13853
839245;13678
839253;13929
839261;13853
839271;10441
839279;6771
839288;6157
839296;12579
839304;16225
839312;15924
839320;15141
839329;14587
839337;14325
839345;14047
839353;13981
839361;13791
839369;13763
839378;13679
839386;13649
839394;13466
839402;13504
839410;13388
839419;13360
839427;13140
839435;13058
839443;12874
839451;12765
839460;12462
839468;12231
839476;11925
839484;11787
839492;11640
839501;11695
839509;11661
839517;11846
839525;12007
839533;12467
839542;12948
839550;13488
839558;13736
839569;14182
839577;14350
839586;14461
839594;14408
839602;14445
839610;14347
839618;14380
839626;14249
839635;14294
839643;14208
839651;14203
839659;14027
839667;14077
839676;13976
839684;14034
839692;13945
839700;13965
839708;13871
839717;13897
839725;13874
839733;13942
839741;13870
839749;13912
839758;13854
839766;13869
839774;13820
839782;13889
839790;13797
839799;13802
839807;13746
839815;13757
839823;13643
839831;13581
839839;13420
839848;13381
839856;13359
839864;13402
839875;13360
839884;13494
839892;13517
839900;13620
839908;13625
839916;13704
839924;13634
839933;13663
839941;13627
839949;13687
839957;13584
839965;13543
839974;13971
839982;13380
839990;10309
839998;6615
840006;5705
840015;11765
840023;15834
840031;15691
840039;14939
840047;14453
840056;14155
840064;13839
840072;13678
840080;13604
840088;13586
840097;13517
840105;13436
840113;13417
840121;13388
840129;13293
840137;13183
840146;13047
840154;12951
840162;12751
840170;12592
840182;12380
840190;12166
840198;11960
840206;11735
840214;11698
840222;11691
840231;11760
840239;11890
840247;12273
840255;12736
840263;13227
840272;13645
840280;13973
840288;14243
840296;14418
840304;14464
840313;14491
840321;14490
840329;14492
840337;14494
840345;14449
840354;14432
840362;14360
840370;14339
840378;14279
840386;14249
840394;14227
840403;14238
840411;14212
840419;14189
840427;14162
