Tempo (ms);Valor
540298;14844
540306;14713
540314;14525
540323;14396
540331;14282
540339;14257
540347;14209
540355;14156
540364;14166
540372;14205
540380;14183
540388;14202
540396;14179
540404;14211
540413;14217
540421;14238
540429;14080
540437;14015
540445;13790
540454;13645
540462;13489
540470;13469
540478;13400
540486;13421
540495;13434
540503;13505
540511;13546
540519;13579
540527;13550
540536;13558
540544;13556
540552;13633
540560;13600
540568;13544
540577;13437
540585;13949
540596;12542
540604;8846
540612;5384
540621;7047
540629;14552
540637;15622
540645;14873
540653;14193
540662;13953
540670;13709
540678;13509
540686;13446
540694;13386
540702;13310
540711;13216
540719;13182
540727;13086
540735;13041
540743;12968
540752;12911
540760;12837
540768;12767
540776;12668
540784;12543
540793;12285
540801;12063
540809;11857
540817;11797
540825;11812
540834;11939
540842;12064
540850;12248
540858;12480
540866;12817
540874;13206
540883;13536
540891;13814
540901;14133
540909;14268
540918;14320
540926;14315
540934;14313
540942;14285
540950;14288
540958;14281
540967;14269
540975;14196
540983;14202
540991;14196
540999;14149
541008;14164
541016;14147
541024;14156
541033;14154
541041;14125
541050;14121
541058;14119
541066;14124
541074;14162
541082;14172
541091;14118
541099;14066
541107;13902
541115;13763
541123;13715
541132;13672
541140;13649
541148;13748
541156;13840
541164;13902
541172;14014
541181;14078
541189;14078
541199;14070
541207;14078
541215;14017
541224;13932
541232;13840
541240;14039
541248;14095
541256;11949
541265;7897
541273;5396
541281;10016
541289;15949
541297;15886
541306;15112
541314;14612
541322;14454
541330;14151
541338;13996
541347;13882
541355;13802
541363;13752
541371;13784
541379;13713
541388;13676
541396;13622
541404;13552
541412;13465
541420;13360
541428;13217
541437;13074
541445;12882
541453;12683
541461;12402
541469;12255
541478;12147
541486;12207
541494;12244
541505;12463
541513;12691
541522;13023
541530;13307
541538;13635
541546;13906
541554;14189
541563;14312
541571;14406
541579;14439
541587;14374
541595;14186
541604;14090
541612;13987
541620;13967
541628;13887
541636;13853
541645;13815
541653;13863
541661;13837
541669;13897
541677;13944
541686;13985
541694;14024
541702;14106
541710;14121
541718;14124
541726;14094
541735;14026
541743;13931
541751;13831
541759;13829
541767;13786
541776;13790
541784;13871
541792;13898
541803;14133
541811;14217
541820;14241
541828;14209
541836;14168
541844;14070
541852;14007
541861;13983
541869;13937
541877;14041
541885;14235
541893;12271
541902;8420
541910;6298
541918;10017
541926;16606
541934;16567
541943;15765
541951;15025
541959;14696
541967;14512
541975;14223
541983;14010
541992;13869
542000;13741
542008;13670
542016;13579
542024;13463
542033;13334
542041;13201
542049;13090
542057;12968
542065;12812
542074;12655
542082;12461
542090;12253
542098;12108
542109;12061
542118;12085
542126;12136
542134;12228
542142;12366
542150;12625
542159;13000
542167;13383
542175;13724
542183;14070
542191;14274
542200;14437
542208;14503
542216;14526
542224;14535
542232;14456
542241;14400
542249;14326
542257;14222
542265;14114
542273;14007
542281;13901
542290;13798
542298;13758
542306;13760
542314;13715
542322;13706
542331;13719
542339;13745
542347;13728
542355;13766
542363;13816
542372;13839
542380;13797
542388;13749
542396;13580
542404;13458
542416;13437
542424;13494
542432;13531
542440;13592
542448;13669
542457;13759
542465;13771
542473;13759
542481;13717
542489;13716
542498;13691
542506;13664
542514;13594
542522;13458
542530;13966
542538;13472
542547;10439
542555;6260
542563;5063
542571;11852
542579;15814
542588;15518
542596;14823
542604;14454
542612;14237
542620;13965
542629;13835
542637;13789
542645;13702
542653;13623
542661;13568
542670;13519
542678;13436
542686;13372
542694;13289
542702;13205
542714;13084
542722;12978
542730;12723
542738;12461
542746;12213
542755;12027
542763;11932
542771;11949
542779;12019
542787;12152
542796;12349
542804;12669
542812;13027
542820;13398
542828;13748
542836;14042
542845;14215
542853;14313
542861;14376
542869;14389
542877;14348
542886;14289
542894;14273
542902;14252
542910;14208
542918;14129
542927;14064
542935;14021
542943;13992
542951;13990
542959;13982
542968;13976
542976;13979
542984;13996
542992;13960
543000;13937
543009;13961
543019;14079
543027;14098
543035;14067
543043;13980
543052;13828
543060;13649
543068;13592
543076;13555
543084;13616
543092;13656
543101;13728
543109;13767
543117;13788
543125;13752
543133;13717
543142;13675
543150;13661
543158;13597
543167;13580
543175;13499
543184;13918
543192;13838
543200;11250
543207;6852
543215;4654
543225;9824
543233;15499
543241;15584
543249;14973
543257;14562
543266;14348
543274;14093
543282;13936
543290;13869
543298;13815
543306;13827
543315;13736
543325;13666
543333;13634
543341;13545
543350;13413
543358;13278
543366;13161
543374;12962
543382;12758
543390;12520
543399;12292
543407;12051
543415;11898
543423;11838
543431;11897
543440;11975
543448;12135
543456;12439
543464;12788
543472;13183
543481;13588
543489;13930
543497;14127
543505;14287
543513;14388
543522;14426
543530;14442
543538;14444
543546;14429
543554;14401
543562;14327
543571;14304
543579;14279
543587;14245
543595;14203
543603;14210
543612;14137
543623;14175
543631;14228
543639;14192
543647;14127
543656;14110
543664;14104
543672;14091
543680;14012
543688;13951
543697;13818
543705;13692
543713;13601
543721;13626
543729;13618
543738;13697
543746;13746
543754;13839
543762;13884
543770;13936
543779;13909
543787;13905
543795;13879
543803;13842
543811;13796
543820;13723
543828;13596
543836;14069
543844;13823
543852;11145
543860;6808
543869;5010
543877;10943
543885;15788
543893;15619
543901;14921
543910;14569
543918;14375
543929;14052
543937;13986
543945;13871
543954;13759
543962;13662
543970;13636
543978;13539
543986;13460
543995;13315
544003;13229
544011;13111
544019;12994
544027;12847
544036;12679
544044;12485
544052;12297
544060;12127
544068;12053
544077;12054
544085;12138
544093;12239
544101;12456
544109;12717
544118;13115
544126;13507
544134;13870
544142;14111
544150;14301
544158;14385
544167;14450
544175;14436
544183;14442
544191;14388
544199;14365
544208;14302
544216;14275
544224;14207
544235;14205
544243;14197
544252;14151
544260;14074
544268;14063
544276;13989
544284;13949
544293;13889
544301;13866
544309;13806
544317;13799
544325;13742
544334;13711
544342;13662
544350;13711
544358;13712
544366;13728
544375;13621
544383;13471
544391;13327
544399;13336
544407;13378
544415;13398
544424;13402
544432;13427
544440;13495
544448;13573
544456;13616
544465;13615
544473;13651
544481;13631
544489;13623
544497;13619
544506;13600
544514;13637
544522;14148
544533;11501
544541;7413
544550;5339
544558;10370
544566;15832
544574;15810
544582;15088
544591;14562
544599;14350
544607;14044
544615;13872
544623;13775
544632;13689
544640;13583
544648;13526
544656;13490
544664;13446
544673;13379
544681;13310
544689;13243
544697;13106
544705;12959
544713;12767
544722;12552
544730;12338
544738;12149
544746;11989
544754;11931
544763;11954
544771;12039
544779;12151
544787;12375
544795;12689
544804;13065
544812;13454
544820;13737
544828;13991
544839;14298
544848;14433
544856;14441
544864;14467
544872;14469
544880;14361
544889;14294
544897;14195
544905;14138
544913;14051
544921;14043
544930;13978
544938;13940
544946;13905
544954;13916
544962;13848
544970;13871
544979;13869
544987;13901
544995;13903
545003;13917
545011;13922
545020;13966
545028;13962
545036;13989
545044;13935
545052;13890
545061;13759
545069;13594
545077;13544
545085;13576
545093;13572
545102;13597
545110;13624
545118;13695
545126;13781
545134;13847
545146;13826
545154;13880
545162;13860
545170;13846
545178;13853
545187;13814
545195;13714
545203;14291
545211;12923
545219;9170
545228;5688
545236;7052
545244;14656
545252;16042
545260;15374
545268;14678
545277;14409
545285;14140
545293;13928
545301;13856
545309;13804
545318;13787
545326;13739
545334;13675
545342;13597
545350;13515
545359;13426
545367;13344
545375;13189
545383;13070
545391;12863
545400;12623
545408;12367
545416;12093
545424;11882
545432;11756
545443;11827
545451;11939
545459;12049
545467;12255
545475;12544
545484;12921
545492;13324
545500;13728
545508;14055
545516;14256
545524;14392
545533;14458
545541;14488
545549;14522
545558;14532
545566;14487
545575;14465
545583;14404
545591;14374
545599;14299
545607;14182
545616;14089
545624;14021
545632;13955
545640;13899
545648;13823
545657;13776
545665;13725
545673;13745
545681;13765
545689;13760
545698;13744
545706;13777
545714;13768
545722;13752
545730;13642
545738;13472
545749;13332
545757;13361
545765;13358
545773;13335
545782;13373
545790;13463
545798;13555
545806;13668
545814;13677
545822;13651
545831;13640
545839;13615
545847;13591
545855;13536
545863;13467
545872;13397
545880;14056
545888;13234
545896;9911
545904;6115
545913;5969
545921;13296
545929;15920
545937;15387
545945;14628
545954;14384
545962;14168
545970;13933
545978;13766
545986;13760
545994;13702
546003;13617
546011;13576
546019;13507
546027;13423
546035;13330
546044;13186
546055;13082
546063;12963
546071;12767
546079;12525
546088;12249
546096;11989
546104;11795
546112;11694
546120;11682
546129;11709
546137;11874
546145;12104
546153;12443
546161;12855
546170;13280
546178;13592
546186;13929
546194;14117
546202;14238
546211;14314
546219;14361
546227;14344
546235;14346
546243;14299
546252;14267
546260;14225
546268;14232
546276;14184
546284;14174
546292;14206
546301;14165
546309;14105
546317;14108
546325;14089
546333;14076
546342;14090
546353;14237
546361;14233
546369;14124
546377;14107
546386;14137
546394;14098
546402;14085
546410;14017
546418;13908
546427;13767
546435;13764
546443;13792
546451;13778
546459;13830
546468;13883
546476;13943
546484;13980
546492;14054
546500;14094
546509;14077
546517;14016
546525;13961
546533;13910
546541;13830
546550;13751
546558;14282
546566;13820
546574;11039
546582;7241
546590;6147
546599;12825
546607;16542
546615;15988
546623;15211
546631;14740
546640;14603
546648;14317
546659;14136
546667;14029
546675;13891
546684;13734
546692;13656
546700;13541
546708;13442
546716;13391
546725;13236
546733;13092
546741;12952
546749;12833
546757;12632
546766;12469
546774;12258
546782;12059
546790;11932
546798;11930
546807;12038
546815;12178
546823;12349
546831;12597
546839;12949
546847;13357
546856;13730
546864;14034
546872;14295
546880;14439
546888;14510
546897;14589
546905;14671
546913;14708
546921;14681
546929;14625
546938;14570
546946;14469
546954;14420
546965;14366
546973;14344
546982;14303
546990;14243
546998;14205
547006;14171
547014;14154
547023;14164
547031;14150
547039;14065
547047;14048
547055;13864
547064;13741
547072;13656
547080;13645
547088;13587
547096;13586
547105;13629
547113;13735
547121;13850
547129;13904
547137;13900
547145;13866
547154;13863
547162;13827
547170;13820
547178;13809
547186;13752
547195;13699
547203;14151
547211;12657
547219;8877
547227;6059
547236;7617
547244;15312
547252;16311
547263;15312
547271;14677
547280;14267
547288;13985
547296;13723
547304;13614
547312;13537
547321;13480
547329;13452
547337;13357
547345;13247
547353;13174
547362;13100
547370;12989
547378;12802
547386;12670
547394;12470
547402;12272
547411;12072
547419;11873
547427;11756
547435;11769
547443;11856
547452;11955
547460;12092
547468;12309
547476;12655
547484;13013
547493;13422
547501;13794
547509;14051
547517;14240
547525;14367
547534;14411
547542;14442
547550;14427
547558;14348
547569;14287
547578;14312
547586;14227
547594;14126
547602;14059
547610;13971
547619;13897
547627;13832
547635;13790
547643;13772
547651;13731
547660;13708
547668;13707
547676;13683
547684;13639
547692;13683
547700;13687
547709;13683
547717;13625
547725;13533
547733;13447
547741;13344
547750;13363
547758;13368
547766;13406
547774;13499
547782;13600
547791;13699
547799;13714
547807;13734
547815;13756
547823;13777
547832;13717
547840;13683
547848;13646
547856;13529
547867;14247
547876;13104
547884;9408
547892;5500
547900;6158
547908;13844
547917;15958
547925;15484
547933;14876
547941;14638
547949;14407
547958;14155
547966;14066
547974;14029
547982;13980
547990;13873
547998;13832
548007;13788
548015;13659
548023;13584
548031;13462
548039;13323
548048;13157
548056;12955
548064;12761
548072;12518
548080;12260
548089;12042
548097;11896
548105;11907
548113;11982
548121;12032
548130;12195
548138;12452
548146;12792
548154;13136
548162;13506
548173;13994
548181;14244
548189;14354
548197;14398
548205;14376
548214;14398
548222;14403
548230;14323
548238;14277
548246;14197
548254;14131
548263;14092
548271;14081
548279;14028
548287;14020
548295;13998
548304;13980
548312;13977
548320;14002
548329;14019
548337;14078
548346;14105
548354;14124
548362;14123
548370;13995
548378;13857
548387;13802
548395;13767
548403;13725
548411;13742
548419;13823
548428;13863
548436;13944
548444;13932
548452;13938
548460;13936
548468;13920
548479;13978
548487;14006
548495;13927
548503;13814
548511;14414
548520;13496
548528;10036
548536;5939
548544;5818
548552;13372
548561;15983
548569;15470
548577;14738
548585;14437
548593;14205
548602;13954
548610;13795
548618;13700
548626;13618
548634;13531
548643;13474
548651;13413
548659;13336
548667;13233
548675;13143
548684;13036
548692;12899
548700;12714
548708;12561
548716;12376
548724;12137
548733;11962
548741;11846
548749;11807
548757;11836
548765;11925
548774;12086
548785;12534
548793;12941
548801;13278
548809;13617
548818;13890
548826;14114
548834;14211
548842;14268
548850;14264
548859;14232
548867;14215
548875;14166
548883;14098
548891;13999
548900;13932
548908;13912
548916;13895
548924;13881
548932;13843
548941;13811
548949;13765
548957;13713
548965;13708
548973;13731
548982;13739
548990;13739
548998;13771
549006;13736
549014;13766
549022;13688
549031;13594
549039;13487
549047;13525
549055;13526
549063;13586
549072;13631
549083;13782
549091;13945
549099;13969
549107;13880
549116;13795
549124;13750
549132;13769
549140;13723
549148;13639
549157;13524
549165;13978
549173;13604
549181;10899
549189;6699
549198;5042
549206;11208
549214;15785
549222;15490
549230;14794
549239;14408
549247;14273
549255;13978
549263;13836
549271;13755
549279;13695
549288;13603
549296;13570
549304;13460
549312;13352
549320;13283
549329;13202
549337;13066
549345;12945
549353;12800
549361;12611
549370;12421
549378;12206
549389;12014
549397;11992
549405;12005
549414;12009
549422;12099
549430;12294
549438;12535
549446;12880
549455;13280
549463;13651
549471;13946
549479;14179
549487;14336
549496;14405
549504;14454
549512;14455
549520;14437
549528;14419
549537;14408
549545;14394
549553;14399
549561;14327
549569;14294
549577;14270
549586;14190
549594;14149
549602;14136
549610;14131
549618;14119
549627;14121
549635;14104
549643;14058
549651;14038
549659;13988
549668;13983
549676;13925
549687;13899
549695;13783
549703;13748
549712;13786
549720;13818
549728;13800
549736;13836
549744;13903
549753;13983
549761;14047
549769;14054
549777;14041
549785;14026
549794;13964
549802;13879
549810;13785
549818;13700
549826;13855
549834;14045
549843;12084
549851;8062
549859;5303
549867;9189
549875;15748
549884;15899
549892;15138
549900;14580
549908;14385
549916;14155
549925;13902
549933;13785
549941;13689
549949;13623
549957;13542
549966;13495
549974;13440
549982;13387
549993;13370
550001;13321
550010;13159
550018;12992
550026;12791
550034;12592
550042;12358
550051;12218
550059;12094
550067;12059
550075;12127
550083;12275
550092;12388
550100;12625
550108;12949
550116;13346
550124;13631
550132;13932
550141;14176
550149;14352
550157;14420
550165;14490
550173;14500
550182;14451
550190;14374
550198;14309
550206;14215
550214;14208
550223;14187
550231;14157
550239;14111
550247;14109
550255;14050
550264;14005
550272;13946
550280;13975
550288;13975
550299;13977
550308;13943
550316;13813
550324;13723
550332;13744
550340;13733
550349;13785
550357;13852
550365;13941
550373;14038
550381;14136
550390;14143
550398;14124
550406;14109
550414;14079
550422;14049
550430;14019
550439;14007
550447;13907
550455;13817
550463;14301
550471;12851
550480;9091
550488;6160
550496;7388
550504;15122
550512;16381
550521;15609
550529;14876
550537;14435
550545;14281
550553;14022
550562;13880
550570;13790
550578;13729
550586;13617
550594;13539
550605;13493
550613;13466
550621;13368
550629;13242
550637;13069
550646;12896
550654;12713
550662;12464
550670;12202
550678;12010
550686;11883
550695;11892
550703;11961
550711;12087
550719;12250
550727;12458
550736;12798
550744;13169
550752;13562
550760;13925
550768;14189
550777;14371
550785;14472
550793;14520
550801;14511
550809;14461
550818;14403
550826;14329
550834;14285
550842;14194
550850;14111
550858;14053
550867;13987
550875;13942
550883;13914
550891;13851
550903;13836
550911;13880
550919;13857
550927;13767
550935;13755
550943;13793
550952;13839
550960;13860
550968;13874
550976;13805
550984;13709
550993;13503
551001;13405
551009;13375
551017;13430
551025;13422
551034;13434
551042;13506
551050;13622
551058;13733
551066;13785
551075;13736
551083;13684
551091;13649
551099;13644
551107;13598
551116;13559
551124;13511
551132;14081
551140;12686
551148;8841
551156;5225
551165;6519
551173;14203
551181;15790
551189;15243
551197;14660
551209;14430
551217;14223
551225;13999
551233;13886
551241;13793
551250;13720
551258;13646
551266;13601
551274;13563
551282;13453
551291;13353
551299;13219
551307;13045
551315;12851
551323;12692
551332;12525
551340;12342
551348;12141
551356;11962
551364;11909
551373;11951
551381;12048
551389;12180
551397;12341
551405;12615
551414;13017
551422;13416
551430;13820
551438;14074
551446;14257
551454;14357
551463;14435
551471;14503
551479;14545
551487;14505
551495;14466
551507;14459
551515;14443
551523;14369
551531;14305
551539;14236
551548;14213
551556;14153
551564;14133
551572;14069
551580;14062
551589;14041
551597;14059
551605;13986
551613;13899
551621;13769
551630;13609
551638;13499
551646;13515
551654;13505
551662;13549
551671;13625
551679;13733
551687;13803
551695;13848
551703;13809
551711;13850
551720;13869
551728;13877
551736;13864
551744;13820
551752;13728
551761;13621
551769;14030
551777;13804
551785;11208
551793;6842
551802;4910
551813;13573
551821;16006
551829;15426
551837;14704
551846;14477
551854;14216
551862;13980
551870;13882
551878;13813
551887;13749
551895;13666
551903;13574
551911;13475
551919;13413
551928;13346
551936;13269
551944;13137
551952;12964
551960;12798
551969;12604
551977;12373
551985;12116
551993;11914
552001;11813
552009;11858
552018;11963
552026;12090
552034;12336
552042;12623
552050;13011
552059;13393
552067;13780
552075;14099
552083;14361
552091;14555
552100;14652
552108;14696
552119;14792
552127;14852
552135;14766
552144;14633
552152;14598
552160;14537
552168;14445
552176;14401
552185;14327
552193;14259
552201;14240
552209;14250
552217;14212
552226;14183
552234;14204
552242;14203
552250;14170
552258;14131
552266;14059
552275;13973
552283;13916
552291;13865
552299;13770
552307;13598
552316;13392
552324;13316
552332;13287
552340;13336
552348;13316
552357;13376
552365;13451
552373;13533
552381;13653
552389;13673
552398;13621
552406;13557
552417;13587
552425;13627
552433;13561
552442;13435
552450;13775
552458;13703
552466;11292
552474;7128
552483;5126
552491;10090
552499;15719
552507;15761
552515;15032
552524;14588
552532;14428
552540;14092
552548;13939
552556;13876
552564;13800
552573;13727
552581;13688
552589;13614
552597;13514
552605;13422
552614;13321
552622;13202
552630;13093
552638;12985
552646;12825
552655;12615
552663;12424
552671;12155
552679;11956
552687;11854
552696;11851
552704;11956
552712;12057
552722;12426
552730;12841
552739;13185
552747;13533
552755;13840
552763;14055
552771;14195
552780;14285
552788;14309
552796;14326
552804;14321
552812;14279
552820;14167
552829;14101
552837;14054
552845;14060
552853;14018
552861;13937
552870;13912
552878;13896
552887;13786
552895;13886
552903;13902
552912;13929
552920;13941
552928;14004
552936;14045
552944;14014
552953;14001
552961;13873
552969;13729
552977;13633
552985;13604
552994;13536
553002;13595
553010;13677
553018;13769
553028;13966
553037;14051
553045;14001
553053;13941
553061;13900
553069;13851
553078;13835
553086;13780
553094;13735
553102;13679
553110;14250
553118;13125
553127;9578
553135;6434
553143;7034
553151;14689
553159;16383
553168;15726
553176;14971
553184;14465
553192;14303
553200;14064
553209;13867
553217;13749
553225;13646
553233;13575
553241;13505
553250;13440
553258;13333
553266;13243
553274;13144
553282;13037
553290;12881
553299;12734
553307;12540
553315;12366
553326;12138
553335;12066
553343;11960
553351;11980
553359;12064
553367;12225
553375;12409
553384;12757
553392;13145
553400;13551
553408;13944
553416;14266
553425;14424
553433;14539
553441;14565
553449;14599
553457;14595
553466;14574
553474;14504
553482;14440
553490;14401
553498;14321
553507;14224
553515;14191
553523;14128
553531;14114
553539;14090
553548;14052
553556;14003
553564;13970
553572;13989
553580;14011
553588;14058
553597;14051
553605;14009
553613;13880
553621;13730
553633;13688
553641;13674
553649;13655
553657;13701
553665;13788
553673;13870
553682;13982
553690;14006
553698;13998
553706;14003
553714;13990
553723;13984
553731;13978
553739;13932
553747;13850
553755;13874
553764;14284
553772;12507
553780;8531
553788;5482
553796;7942
553805;15332
553813;16045
553821;15372
553829;14683
553837;14415
553846;14153
553854;13882
553862;13758
553870;13662
553878;13618
553886;13518
553895;13403
553903;13317
553911;13282
553919;13190
553927;13101
553939;13009
553947;12864
553955;12616
553963;12400
553971;12123
553980;11896
553988;11733
553996;11708
554004;11709
554012;11780
554021;11935
554029;12188
554037;12558
554045;13021
554053;13429
554062;13776
554070;14034
554078;14210
554086;14268
554094;14302
554103;14304
554111;14289
554119;14268
554127;14227
554135;14201
554143;14178
554152;14089
554160;13998
554168;13940
554176;13849
554184;13744
554193;13668
554201;13658
554209;13632
554217;13602
554225;13601
554237;13640
554245;13650
554253;13610
554261;13613
554269;13599
554278;13615
554286;13541
554294;13440
554302;13264
554310;13184
554319;13257
554327;13339
554335;13376
554343;13437
554351;13525
554360;13635
554368;13760
554376;13789
554384;13787
554392;13760
554401;13745
554409;13699
554417;13708
554425;13668
554433;13848
554441;14103
554450;12218
554458;8152
554466;5295
554474;8417
554482;15410
554491;16037
554499;15383
554507;14862
554515;14694
554523;14396
554532;14231
554543;14152
554551;14163
554559;14083
554567;13932
554576;13799
554584;13726
554592;13599
554600;13476
554608;13327
554617;13195
554625;12997
554633;12804
554641;12545
554649;12297
554658;12078
554666;11915
554674;11809
554682;11803
554690;11831
554698;11949
554707;12159
554715;12540
554723;12945
554731;13376
554739;13727
554748;14040
554756;14223
554764;14363
554772;14375
554780;14404
554789;14410
554797;14457
554805;14428
554813;14374
554821;14340
554830;14368
554838;14338
554848;14419
554856;14406
554864;14366
554873;14329
554881;14364
554889;14301
554897;14291
554905;14275
554914;14285
554922;14283
554930;14236
554938;14153
554946;13992
554954;13793
554963;13721
554971;13700
554980;13675
554988;13685
554996;13764
555005;13830
555013;13941
555021;13952
555029;13931
555037;13960
555046;13927
555054;13872
555062;13849
555070;13790
555078;13730
555087;13779
555095;14215
555103;12530
555111;8465
555119;4994
555128;7283
555136;14761
555146;15545
555154;14794
555162;14383
555171;14135
555179;13824
555187;13660
555195;13596
555203;13527
555212;13439
555220;13355
555228;13281
555236;13203
555244;13134
555252;13070
555261;12994
555269;12896
555277;12738
555285;12526
555293;12331
555302;12129
555310;11891
555318;11718
555326;11639
555334;11705
555343;11785
555351;11917
555359;12134
555367;12515
555375;12905
555384;13321
555392;13668
555400;13916
555408;14143
555416;14245
555425;14320
555433;14366
555441;14357
555452;14453
555460;14523
555469;14497
555477;14458
555485;14407
555493;14317
555501;14262
555510;14218
555518;14169
555526;14157
555534;14172
555542;14174
555550;14165
555559;14198
555567;14189
555575;14187
555583;14247
555591;14244
555600;14236
555608;14251
555616;14147
555624;14020
555632;14000
555641;13976
555649;13972
555657;14026
555665;14096
555673;14169
555682;14230
555690;14231
555698;14187
555706;14197
555714;14243
555722;14234
555731;14239
555739;14213
555747;14124
555758;14647
555767;13179
555775;9402
555783;6811
555791;8838
555799;16205
555807;16867
555816;16158
555824;15416
555832;15033
555840;14865
555848;14605
555857;14522
555865;14514
555873;14458
555881;14438
555889;14379
555898;14397
555906;14283
555914;14231
555922;14084
555930;13893
555939;13692
555947;13489
555955;13214
555963;12992
555971;12724
555980;12451
555988;12240
555996;12163
556004;12232
556012;12350
556020;12536
556029;12833
556037;13229
556045;13648
556056;14203
556065;14539
556073;14712
556081;14771
556089;14737
556097;14733
556105;14713
556114;14687
556122;14635
556130;14589
556138;14487
556146;14401
556155;14331
556163;14284
556171;14210
556179;14173
556187;14139
556196;14160
556204;14135
556212;14176
556220;14261
556228;14230
556237;14223
556245;14134
556253;14061
556261;14008
556269;13936
556278;13944
556286;13965
556294;13998
556302;14034
556310;14059
556318;14008
556327;14008
556335;13972
556343;13924
556351;13880
556362;13834
556371;13808
556379;13703
556387;14177
556395;12924
556403;9427
556412;6442
556420;7002
556428;14569
556436;16180
556444;15534
556453;14833
556461;14336
556469;14146
556477;13830
556485;13676
556494;13616
556502;13538
556510;13478
556518;13461
556526;13439
556535;13421
556543;13393
556551;13300
556559;13164
556567;12989
556575;12792
556584;12608
556592;12406
556600;12162
556608;11957
556616;11826
556625;11805
556633;11828
556641;11937
556649;12137
556657;12426
556669;13017
556677;13459
556685;13809
556693;14125
556701;14305
556710;14419
556718;14430
556726;14435
556734;14457
556742;14453
556751;14407
556759;14329
556767;14240
556775;14155
556783;14063
556792;13960
556800;13906
556808;13843
556816;13792
556824;13773
556833;13727
556841;13714
556849;13701
556857;13580
556865;13490
556873;13436
556882;13450
556890;13450
556898;13504
556906;13552
556914;13664
556923;13771
556931;13852
556939;13872
556947;13876
556955;13818
556967;13881
556975;13869
556983;13826
556991;13746
556999;13924
557008;13915
557016;11747
557024;8037
557032;5854
557040;9718
557049;15887
557057;15934
557065;15336
557073;14727
557081;14394
557090;14101
557098;13834
557106;13706
557114;13590
557122;13483
557130;13331
557139;13247
557147;13141
557155;13036
557163;12925
557171;12765
557180;12655
557188;12537
557196;12335
557204;12084
557212;11868
557221;11658
557229;11523
557237;11445
557245;11444
557253;11564
557262;11725
557273;12172
557281;12626
557289;13005
557297;13404
557306;13687
557314;13870
557322;14003
557330;14099
557338;14145
557347;14173
557355;14117
557363;14122
557371;14107
557379;14038
557388;13996
557396;13951
557404;13882
557412;13858
557420;13807
557428;13793
557437;13794
557445;13803
557453;13823
557461;13800
557469;13749
557478;13709
557486;13590
557494;13488
557502;13473
557510;13440
557519;13472
557527;13505
557535;13550
557543;13630
557551;13699
557560;13743
557568;13760
557579;13864
557587;13912
557595;13853
557604;13777
557612;13719
557620;13696
557628;14231
557636;13135
557645;9620
557653;6095
557661;6096
557669;13598
557677;15977
557686;15604
557694;14974
557702;14548
557710;14337
557718;14038
557726;13850
557735;13743
557743;13622
557751;13547
557759;13509
557767;13451
557776;13401
557784;13300
557792;13188
557800;13067
557808;12970
557817;12851
557825;12676
557833;12457
557841;12230
557849;12079
557858;11926
557866;11889
557877;12031
557885;12247
557893;12487
557902;12825
557910;13245
557918;13600
557926;13953
557934;14168
557943;14300
557951;14408
557959;14416
557967;14440
557975;14429
557983;14431
557992;14428
558000;14386
558008;14343
558016;14336
558024;14327
558033;14281
558041;14218
558049;14198
558057;14129
558065;14108
558074;14092
558082;14108
558090;14093
558098;14098
558106;14128
558115;14081
558123;14048
558131;13951
558139;13801
558147;13687
558156;13672
558164;13661
558172;13675
558182;13807
558190;13928
558199;13983
558207;14009
558215;13982
558223;13952
558231;13954
558239;13946
558248;13875
558256;13782
558264;13676
558272;13928
558280;13898
558289;11412
558297;7223
558305;4736
558313;8882
558321;15272
558331;15669
558339;15113
558347;14555
558355;14257
558363;13916
558372;13686
558380;13549
558388;13517
558396;13488
558404;13435
558413;13379
558421;13296
558429;13199
558437;13117
558445;13038
558454;12915
558462;12727
558470;12561
558478;12363
558488;12099
558497;11958
558505;11777
558513;11734
558521;11749
558529;11857
558537;12009
558546;12292
558554;12675
558562;13110
558570;13487
558578;13817
558587;14058
558595;14186
558603;14232
558611;14274
558619;14269
558628;14245
558636;14239
558644;14213
558652;14171
558660;14159
558669;14131
558677;14080
558685;13990
558693;13940
558701;13934
558710;13938
558718;13954
558726;13975
558734;13963
558742;13985
558750;13979
558759;13968
558767;13927
558775;13971
558786;14029
558794;14095
558803;14034
558811;13963
558819;13811
558827;13711
558835;13668
558844;13640
558852;13621
558860;13584
558868;13654
558876;13728
558885;13821
558893;13811
558901;13783
558909;13773
558917;13758
558926;13755
558934;13714
558942;13644
558950;13499
558958;13941
558967;13587
558975;10714
558983;6447
558991;4671
558999;9943
559007;15347
559016;15604
559024;14983
559032;14582
559040;14381
559048;14071
559057;13862
559065;13776
559073;13755
559081;13730
559092;13721
559101;13736
559109;13667
559117;13552
559125;13443
559133;13329
559142;13225
559150;13094
559158;12887
559166;12644
559174;12410
559183;12181
559191;12042
559199;12001
559207;12017
559215;12065
559224;12209
559232;12480
559240;12852
559248;13254
559256;13630
559265;13855
559273;14070
559281;14231
559289;14288
559297;14332
559305;14315
559314;14306
559322;14273
559330;14267
559338;14250
559346;14219
559355;14193
559363;14119
559371;14029
559379;13993
559387;13966
559399;13939
559407;13984
559415;13941
559423;13839
559431;13818
559440;13799
559448;13788
559456;13769
559464;13758
559472;13750
559481;13740
559489;13706
559497;13714
559505;13652
559513;13571
559522;13410
559530;13339
559538;13316
559546;13337
559554;13323
559562;13343
559571;13405
559579;13458
559587;13529
559595;13549
559603;13588
559612;13575
559620;13568
559628;13548
559636;13498
559644;13510
559653;13462
559661;13901
559669;13661
559677;10994
559685;6738
559705;12869
559713;15874
559721;15521
559729;14836
559738;14475
559746;14185
559754;13885
559762;13746
559770;13638
559779;13563
559787;13502
559795;13446
559803;13380
559811;13302
559820;13197
559828;13087
559836;12961
559844;12827
559852;12628
559860;12402
559869;12125
559877;11884
559885;11621
559893;11470
559901;11415
559910;11442
559918;11540
559926;11678
559934;11923
559942;12282
559951;12735
559959;13129
559967;13410
559975;13654
559983;13845
559992;13989
560000;14047
560011;14126
560019;14133
560027;14119
560036;14062
560044;14019
560052;13971
560060;13974
560068;13930
560077;13922
560085;13875
560093;13845
560101;13783
560109;13730
560118;13673
560126;13628
560134;13584
560142;13577
560150;13583
560158;13592
560167;13581
560175;13577
560183;13572
560191;13569
560199;13516
560208;13515
560216;13540
560224;13532
560232;13416
560240;13286
560249;13245
560257;13288
560265;13324
560273;13408
560281;13443
560290;13503
560298;13609
560306;13661
560317;13778
560325;13846
560334;13806
560342;13754
560350;13670
560358;13599
560366;13477
560375;13385
560383;13960
560391;12797
560399;9286
560407;5701
560415;6201
560424;13614
560432;15838
560440;15356
560448;14643
560456;14426
560465;14166
560473;13941
560481;13842
560489;13811
560497;13775
560506;13700
560514;13646
560522;13590
560530;13515
560538;13464
560547;13368
560555;13277
560563;13189
560571;13023
560579;12824
560588;12588
560596;12346
560604;12160
560615;12044
560623;12090
560632;12176
560640;12261
560648;12425
560656;12724
560664;13139
560673;13563
560681;13971
560689;14275
560697;14519
560705;14674
560713;14788
560722;14839
560730;14852
560738;14829
560746;14768
560754;14702
560763;14652
560771;14592
560779;14532
560787;14433
560795;14374
560804;14326
560812;14299
560820;14296
560828;14239
560836;14184
560845;14192
560853;14197
560861;14179
560869;14137
560877;14114
560886;14066
560894;14050
560902;14072
560910;14101
560921;14223
560930;14282
560938;14161
560946;13945
560954;13799
560962;13765
560970;13760
560979;13754
560987;13782
560995;13849
561003;13918
561011;13997
561020;14020
561028;14014
561036;13985
561044;13994
561052;13990
561061;13951
561069;13848
561077;13735
561085;14234
561093;13556
561102;10573
561110;6658
561118;5579
561126;12031
561134;15865
561143;15450
561151;14653
561159;14267
561167;14094
561175;13819
561183;13673
561192;13580
561200;13472
561208;13405
561216;13324
561228;13322
561236;13270
561244;13214
561252;13065
561260;12927
561268;12801
561277;12659
561285;12462
561293;12282
561301;12092
561309;11936
561318;11807
561326;11774
561334;11870
561342;11940
561350;12141
561359;12369
561367;12685
561375;13104
561383;13508
561391;13873
561400;14101
561408;14289
561416;14438
561424;14526
561432;14556
561441;14537
561449;14509
561457;14502
561465;14484
561473;14481
561481;14448
561490;14399
561498;14395
561506;14354
561514;14356
561524;14452
561533;14489
561541;14463
561549;14381
561557;14350
561565;14302
561574;14284
561582;14253
561590;14208
561598;14162
561606;14151
561615;14154
561623;14082
561631;13963
561639;13763
561647;13648
561656;13631
561664;13634
561672;13624
561680;13629
561688;13731
561697;13863
561705;13968
561713;13993
561721;13975
561729;13922
561738;13900
561747;13846
561755;13782
561763;13741
561771;13668
561779;14227
561788;13066
561796;9665
561804;6814
561812;7271
561820;14683
561831;16276
561839;15525
561847;14811
561855;14475
561863;14249
561872;13945
561880;13793
561888;13665
561896;13570
561904;13515
561913;13456
561921;13339
561929;13219
561937;13137
561945;13045
561954;12894
561962;12795
561970;12601
561978;12416
561986;12175
561994;11936
562003;11662
562011;11566
562019;11575
562027;11664
562035;11812
562044;11989
562052;12315
562060;12707
562068;13128
562076;13511
562085;13800
562093;14053
562101;14195
562109;14309
562117;14386
562126;14416
562137;14442
562145;14443
562153;14321
562161;14258
562170;14149
562178;14071
562186;13968
562194;13899
562202;13815
562211;13798
562219;13776
562227;13788
562235;13741
562243;13726
562252;13733
562260;13754
562268;13754
562276;13705
562284;13656
562292;13507
562301;13346
562309;13285
562317;13241
562325;13248
562333;13322
562342;13427
562350;13521
562358;13635
562366;13659
562374;13665
562383;13651
562391;13658
562399;13657
562407;13655
562415;13630
562424;13564
562435;14091
562443;13684
562451;10751
562459;6728
562468;5502
562476;11974
562484;16096
562492;15740
562500;14990
562509;14575
562517;14348
562525;14059
562533;13918
562541;13824
562550;13735
562558;13678
562566;13603
562574;13528
562582;13453
562590;13366
562599;13239
562607;13137
562615;13020
562623;12860
562631;12683
562640;12454
562648;12219
562656;11965
562664;11797
562672;11712
562681;11730
562689;11779
562697;11910
562705;12135
562713;12479
562722;12880
562730;13308
562741;13867
562749;14151
562757;14303
562766;14395
562774;14417
562782;14442
562790;14409
562798;14341
562807;14300
562815;14263
562823;14218
562831;14152
562839;14080
562847;14022
562856;13992
562864;13974
562872;13996
562880;13990
562888;14000
562897;14008
562905;13981
562913;13946
562921;13897
562929;13889
562938;13877
562946;13871
562954;13892
562962;13861
562970;13763
562979;13574
562987;13539
562995;13611
563003;13635
563011;13675
563020;13661
563028;13735
563039;13963
563047;14084
563055;14091
563064;14102
563072;14099
563080;14101
563088;14105
563096;14074
563105;13998
563113;14320
563121;14300
563129;11920
563137;7705
563145;5497
563154;10011
563162;15959
563170;16092
563178;15390
563186;14890
563195;14671
563203;14339
563211;14149
563219;14020
563227;13955
563236;13835
563244;13777
563252;13683
563260;13601
563268;13495
563277;13346
563285;13154
563293;13000
563301;12818
563309;12659
563318;12454
563326;12245
563334;11986
563345;11763
563353;11766
563362;11764
563370;11849
563378;12023
563386;12223
563394;12555
563402;12917
563411;13317
563419;13666
563427;13944
563435;14143
563443;14270
563452;14307
563460;14329
563468;14343
563476;14349
563484;14332
563493;14280
563501;14202
563509;14147
563517;14152
563525;14136
563534;14116
563542;14073
563550;14078
563558;14081
563566;14037
563575;14024
563583;14026
563591;14038
563599;14036
563607;14004
563615;13947
563624;13840
563632;13666
563640;13546
563650;13600
563658;13608
563667;13627
563675;13691
563683;13814
563691;13918
563699;13979
563708;14033
563716;14013
563724;13957
563732;13936
563740;13921
563749;13911
563757;13834
563766;13720
563774;14274
563782;13516
563791;10338
563798;6328
563807;5632
563815;12729
563823;15976
563832;15511
563840;14769
563848;14449
563856;14252
563864;13999
563873;13868
563881;13802
563889;13725
563897;13649
563905;13587
563913;13491
563922;13431
563930;13353
563938;13261
563948;13213
563956;13154
563965;12983
563973;12794
563981;12543
563989;12275
563997;12038
564006;11933
564014;11964
564022;12028
564030;12131
564038;12353
564047;12625
564055;13001
564063;13391
564071;13836
564079;14076
564088;14227
564096;14364
564104;14457
564112;14544
564120;14535
564129;14473
564137;14397
564145;14316
564153;14272
564161;14217
564169;14174
564178;14120
564186;14065
564194;14035
564202;14016
564210;13981
564219;13940
564227;13950
564235;13958
564243;13989
564254;14095
564263;14199
564271;14188
564279;14147
564287;14057
564295;13894
564304;13780
564312;13752
564320;13733
564328;13786
564336;13873
564345;13950
564353;14055
564361;14094
564369;14087
564377;14094
564386;14068
564394;14057
564402;13987
564410;13912
564418;13852
564426;13802
564435;14257
564443;12731
564451;9026
564459;6210
564467;8140
564476;15578
564484;16274
564492;15447
564500;14696
564508;14303
564517;14085
564525;13840
564533;13681
564541;13602
564549;13588
564561;13537
564569;13504
564577;13433
564585;13340
564593;13238
564602;13137
564610;12993
564618;12867
564626;12655
564634;12421
564643;12162
564651;11945
564659;11775
564667;11732
564675;11761
564684;11851
564692;11991
564700;12199
564708;12474
564716;12855
564724;13232
564733;13550
564741;13829
564749;14009
564757;14127
564765;14210
564774;14291
564782;14279
564790;14223
564798;14172
564806;14090
564815;14007
564823;13954
564831;13898
564839;13836
564847;13837
564859;13893
564867;13910
564875;13809
564883;13794
564891;13811
564900;13834
564908;13818
564916;13800
564924;13693
564932;13559
564941;13500
564949;13511
564957;13505
564965;13537
564973;13592
564982;13672
564990;13816
564998;13877
565006;13862
565014;13837
565022;13792
565031;13754
565039;13747
565047;13708
565055;13669
565063;13560
565072;13876
565080;13727
565088;11250
565096;7242
565104;5190
565113;10479
565121;16080
565129;15855
565137;15152
565145;14619
565154;14423
565165;14120
565173;13987
565181;13846
565189;13730
565198;13657
565206;13600
565214;13577
565222;13516
565230;13405
565239;13281
565247;13192
565255;13067
565263;12874
565271;12694
565279;12437
565288;12250
565296;12011
565304;11912
565312;11883
565320;11973
565329;12091
565337;12305
565345;12580
565353;12939
565361;13322
565370;13703
565378;13975
565386;14187
565394;14323
565402;14381
565411;14438
565419;14480
565427;14432
565435;14369
565443;14285
565452;14239
565460;14199
565471;14198
565479;14191
565487;14121
565496;14071
565504;14041
565512;14003
565520;13939
565528;13904
565537;13888
565545;13898
565553;13944
565561;13971
565569;13910
565577;13865
565586;13698
565594;13594
565602;13518
565610;13491
565618;13458
565627;13552
565635;13634
565643;13694
565651;13801
565659;13808
565668;13792
565676;13773
565684;13757
565692;13749
565700;13752
565709;13700
565717;13657
565725;14024
565733;14093
565741;11767
565750;7521
565758;5078
565769;12825
565777;16166
565785;15793
565794;15120
565802;14849
565810;14594
565818;14287
565826;14119
565834;14019
565843;13894
565851;13828
565859;13771
565867;13727
565875;13643
565884;13572
565892;13467
565900;13375
565908;13248
565916;13105
565925;12937
565933;12753
565941;12505
565949;12255
565957;12100
565966;12043
565974;12056
565982;12148
565990;12271
565998;12505
566007;12870
566015;13284
566023;13651
566031;13971
566039;14209
566047;14349
566056;14461
566064;14471
566075;14562
566083;14536
566092;14435
566100;14351
566108;14228
566116;14153
566124;14084
566132;14062
566141;14052
566149;14041
566157;14069
566165;14044
566173;14006
566182;13939
566190;13892
566198;13873
566206;13970
566214;13934
566223;13941
566231;13762
566239;13655
566247;13575
566255;13546
566264;13505
566272;13544
566280;13609
566288;13687
566296;13787
566305;13859
566313;13811
566321;13821
566329;13807
566337;13791
566345;13747
566354;13741
566362;13731
566373;14152
566381;14058
566390;11652
566398;7433
566406;5289
566414;10494
566422;15907
566430;15804
566439;15035
566447;14599
566455;14393
566463;14113
566471;13938
566480;13824
566488;13752
566496;13670
566504;13559
566512;13508
566521;13486
566529;13412
566537;13331
566545;13202
566553;13081
566562;12902
566570;12733
566578;12485
566586;12227
566594;12014
566602;11850
566611;11818
566619;11880
566627;11995
566635;12161
566643;12390
566652;12725
566660;13107
566668;13517
566679;14006
566687;14263
566696;14357
566704;14413
566712;14416
566720;14434
566728;14393
566737;14399
566745;14341
566753;14291
566761;14213
566769;14212
566778;14117
566786;14019
566794;13963
566802;13989
566810;13923
566819;13872
566827;13848
566835;13850
566843;13867
566851;13890
566860;13861
566868;13829
566876;13791
566884;13659
566892;13472
566900;13408
566909;13398
566917;13435
566925;13524
566933;13658
566941;13817
566950;13867
566958;13904
566966;13911
566974;13896
566985;13898
566994;13955
567002;13930
567010;13851
567018;13715
567026;14228
567035;13327
567043;10125
567051;6639
567059;6339
567067;13712
567076;16270
567084;15548
567092;14771
567100;14346
567108;14214
567117;13969
567125;13848
567133;13751
567141;13710
567149;13692
567158;13659
567166;13567
567174;13523
567182;13418
567190;13342
567198;13184
567207;13085
567215;12923
567223;12766
567231;12478
567239;12231
567248;12000
567256;11901
567264;11896
567272;11998
567283;12262
567292;12511
567300;12796
567308;13079
567316;13396
567324;13769
567333;14079
567341;14273
567349;14383
567357;14448
567365;14461
567374;14392
567382;14320
567390;14275
567398;14222
567406;14165
567415;14153
567423;14138
567431;14055
567439;14031
567447;14004
567455;14049
567464;14027
567472;14038
567480;14068
567488;14075
567496;14044
567505;14057
567513;13924
567521;13808
567529;13660
567537;13637
567546;13595
567554;13663
567562;13705
567570;13806
567578;13951
567590;14064
567598;14156
567606;14117
567614;14071
567622;14043
567631;14015
567639;13999
567647;13943
567655;13779
567663;14389
567672;13487
567680;10254
567688;6723
567696;6327
567704;13715
567713;16490
567721;15827
567729;15058
567737;14557
567745;14342
567753;14107
567762;13941
567770;13859
567778;13789
567786;13732
567794;13655
567803;13600
567811;13498
567819;13398
567827;13285
567835;13136
567844;12954
567852;12794
567860;12563
567868;12300
567876;12022
567885;11846
567895;11762
567903;11873
567911;11928
567919;12073
567928;12275
567936;12593
567944;12959
567952;13355
567960;13704
567969;13973
567977;14165
567985;14291
567993;14322
568001;14336
568009;14335
568018;14270
568026;14172
568034;14059
568042;13954
568050;13857
568059;13785
568067;13735
568076;13710
568084;13687
568092;13694
568101;13655
568109;13640
568117;13647
568125;13664
568133;13690
568142;13743
568150;13687
568158;13667
568166;13532
568174;13432
568183;13385
568193;13454
568201;13512
568209;13519
568217;13591
568226;13672
568234;13772
568242;13819
568250;13841
568258;13832
568266;13789
568275;13733
568283;13678
568291;13655
568299;13581
568307;13925
568316;13866
568324;11480
568332;7078
568340;4732
568348;9416
568357;15507
568365;15785
568373;15158
568381;14723
568389;14508
568398;14209
568406;14047
568414;13954
568422;13891
568430;13840
568439;13787
568447;13701
568455;13620
568463;13565
568471;13442
568479;13337
568488;13216
568499;13097
568507;13004
568515;12787
568524;12588
568532;12392
568540;12246
568548;12223
568556;12292
568564;12381
568573;12527
568581;12792
568589;13126
568597;13572
568605;13999
568614;14338
568622;14527
568630;14647
568638;14694
568646;14684
568655;14664
568663;14580
568671;14528
568679;14430
568687;14318
568696;14187
568704;14109
568712;14108
568720;14193
568728;14215
568737;14213
568745;14198
568753;14181
568761;14157
568769;13982
568777;13517
568786;13329
568794;13330
568805;14179
568813;14513
568822;14478
568830;14389
568838;14272
568846;14257
568854;14229
568862;14264
568871;14303
568879;14293
568887;14366
568895;14430
568903;14536
568912;14503
568920;14510
568928;14502
568936;14553
568944;14574
568953;14620
568961;14546
568969;14476
568977;15068
568985;13619
568994;9374
569002;5642
569010;6787
569018;14393
569026;16943
569034;16668
569043;16034
569051;15700
569059;15238
569067;14862
569075;14826
569084;14980
569092;14927
569103;14826
569111;14760
569119;14728
569128;14669
569136;14576
569144;14458
569152;14343
569160;14110
569169;13947
569177;13698
569185;13443
569193;13198
569201;12983
569210;12811
569218;12856
569226;12878
569234;13008
569242;13238
569251;13576
569259;14019
569267;14458
569275;14794
569283;15041
569292;15227
569300;15274
569308;15315
569316;15283
569324;15220
569332;15187
569341;15131
569349;15062
569357;14990
569365;14910
569373;14836
569382;14754
569390;14672
569398;14614
569409;14650
569417;14668
569426;14596
569434;14515
569442;14519
569450;14477
569458;14405
569467;14340
569475;14317
569483;14197
569491;13984
569499;13684
569508;13528
569516;13381
569524;13284
569532;13174
569540;13075
569549;12811
569557;12717
569565;12974
569573;12854
569581;12658
569590;12563
569598;12346
569606;12561
569614;12469
569622;12391
569630;12287
569639;13012
569647;12284
569655;8864
569663;4729
569671;4119
569680;10626
569688;14580
569696;14327
569704;13583
569715;13121
569724;12899
569732;12616
569740;12539
569748;12449
569756;12360
569765;12274
569773;12243
569781;12191
569789;12087
569797;12025
569806;11974
569814;11849
569822;11764
569830;11617
569838;11429
569847;11209
569855;11063
569863;10856
569871;10765
569879;10748
569887;10812
569896;10921
569904;11151
569912;11455
569920;11910
569928;12349
569937;12769
569945;13048
569953;13299
569961;13412
569969;13520
569978;13520
569986;13549
569994;13534
570002;13512
570013;13525
570022;13594
570030;13562
570038;13579
570046;13570
570054;13562
570063;13575
570071;13572
570079;13540
570087;13559
570095;13526
570104;13568
570112;13610
570120;13694
570128;13634
570136;13639
570145;13555
570153;13560
570161;13591
570169;13603
570177;13627
570185;13709
570194;13828
570202;13974
570210;14038
570218;14092
570226;14092
570235;14151
570243;14120
570251;14139
570259;14149
570267;14160
570276;14174
570284;14266
570292;14438
570300;12521
570308;8818
570320;6691
570328;13025
570336;16956
570344;16267
570352;15515
570361;14790
570369;14451
570377;14159
570385;13915
570393;13831
570402;13783
570410;13681
570418;13624
570426;13618
570434;13588
570442;13524
570451;13426
570459;13320
570467;13223
570475;13109
570483;12977
570492;12834
570500;12687
570508;12568
570516;12460
570524;12394
570533;12404
570541;12503
570549;12593
570557;12715
570565;13045
570574;13456
570582;13824
570590;14128
570598;14379
570606;14562
570615;14641
570625;14798
570633;14850
570641;14839
570649;14761
570658;14706
570666;14699
570674;14721
570682;14713
570690;14687
570698;14626
570707;14617
570715;14553
570723;14530
570731;14433
570739;14450
570748;14347
570757;14369
570765;14232
570773;14156
570781;14016
570790;13954
570798;13825
570806;13872
570814;13897
570822;13985
570831;13982
570839;14032
570847;13943
570855;13918
570863;13737
570872;13659
570880;13430
570888;13393
570896;13353
570904;13325
570913;13795
570923;12192
570931;8456
570939;5996
570947;8166
570956;15476
570964;16103
570972;15584
570980;14926
570988;14645
570996;14403
571005;14168
571013;13994
571021;13885
571029;13748
571037;13728
571046;13627
571054;13563
571062;13425
571070;13328
571078;13157
571087;13020
571095;12787
571103;12608
571111;12394
571119;12209
571128;11948
571136;11772
571144;11685
571152;11758
571160;11856
571169;12011
571177;12198
571185;12536
571193;12945
571201;13327
571209;13700
571218;13963
571229;14153
571237;14291
571245;14320
571254;14341
571262;14361
571270;14378
571278;14271
571286;14337
571294;14308
571303;14349
571311;14224
571319;14161
571327;14005
571335;14015
571344;13951
571352;13972
571360;13895
571368;13913
571376;13930
571385;13991
571393;13983
571401;14042
571409;14033
571417;14012
571426;13897
571434;13832
571442;13785
571450;13773
571458;13852
571466;13943
571475;14008
571483;14159
571491;14251
571499;14301
571507;14300
571516;14219
571524;14224
571535;14221
571543;14108
571551;14032
571560;14358
571568;14013
571576;10945
571584;6618
571592;4912
571601;10706
571609;15549
571617;15533
571625;14782
571633;14247
571642;13944
571650;13466
571658;13256
571666;13068
571674;13077
571683;12956
571691;13034
571699;12972
571707;12976
571715;12850
571724;12835
571732;12661
571740;12673
571748;12466
571756;12448
571764;12182
571773;12109
571781;11837
571789;11803
571797;11696
571805;11845
571814;11911
571822;12188
571833;12569
571841;13020
571849;13417
571858;13834
571866;14073
571874;14250
571882;14323
571890;14417
571899;14381
571907;14371
571915;13741
571923;13646
571931;13900
571940;13941
571948;13686
571956;13960
571964;14053
571972;14069
571981;14027
571989;13997
571997;13889
572005;13874
572013;13819
572022;13816
572030;13777
572038;13878
572046;13816
572054;13796
572062;13616
572071;13507
572079;13369
572087;13359
572095;13258
572103;13327
572112;13296
572120;13242
572128;13286
572139;13602
572147;13613
572156;13650
572164;13473
572172;13511
572180;13506
572188;13608
572197;13519
572205;13820
572213;13930
572221;11991
572229;7202
572238;3910
572246;7241
572254;14002
572262;14347
572270;13520
572279;12958
572287;13048
572295;12787
572303;13495
572311;14018
572319;14138
572328;13964
572336;14012
572344;13854
572352;13932
572360;13779
572369;13227
572377;12165
572385;12072
572393;11874
572401;11837
572410;11792
572418;11760
572426;11536
572434;11539
572445;12270
572454;12745
572462;12717
572470;12925
572478;12984
572486;13417
572495;13720
572503;14260
572511;14524
572519;14822
572527;14865
572536;14548
572544;13762
572552;13854
572560;13520
572568;13546
572577;13666
572585;14695
572593;14953
572601;15056
572609;15048
572617;15067
572626;14978
572634;14989
572642;14882
572650;14892
572658;14951
572667;14962
572675;14953
572683;14933
572691;14868
572699;14777
572708;14689
572716;14564
572724;14409
572732;14210
572742;14219
572751;14319
572759;14229
572767;14226
572775;14217
572783;14318
572792;14310
572800;14248
572808;14166
572816;14159
572824;14089
572833;14078
572841;14015
572849;13942
572857;13792
572865;14352
572873;13352
572882;10004
572890;6548
572898;6677
572907;14164
572915;16347
572924;15779
572932;14989
572940;14618
572948;14350
572956;14101
572965;13898
572973;13856
572981;13709
572989;13650
572997;13626
573006;13709
573014;13741
573022;13801
573030;13753
573038;13704
573049;13546
573057;13376
573065;13060
573073;12657
573081;12246
573090;12019
573098;11848
573106;11751
573114;11762
573122;11827
573130;11963
573139;12208
573147;12467
573155;12859
573163;13170
573171;13421
573180;13598
573188;13759
573196;13840
573204;13915
573212;13972
573221;13996
573229;13856
573237;13807
573245;13784
573253;13737
573262;13638
573270;13538
573278;13446
573286;13478
573294;13538
573303;13576
573311;13611
573319;13676
573327;13721
573335;13684
573343;13551
573355;13514
573363;13418
573371;13283
573379;13250
573388;13317
573396;13388
573404;13540
573412;13689
573420;13813
573428;13699
573437;13870
573445;13954
573453;14056
573461;14078
573469;14188
573478;14061
573486;14511
573494;13916
573502;11187
573510;7709
573519;6755
573527;13355
573535;17059
573543;16528
573551;15837
573560;15031
573568;14802
573576;14429
573584;14093
573592;13941
573601;13795
573609;13671
573617;13731
573625;14032
573633;13997
573641;13168
573653;12934
573661;12811
573669;12727
573677;12611
573686;12618
573694;12969
573702;13215
573710;12486
573718;11575
573726;11578
573735;11582
573743;11945
573751;12457
573759;12919
573767;13364
573776;13765
573784;14190
573792;14450
573800;14616
573808;14623
573817;14549
573825;14506
573833;14477
573841;14384
573849;14359
573858;14299
573866;14217
573874;14161
573882;14132
573890;14113
573898;14131
573907;14228
573915;14254
573923;14297
573931;14279
573939;14218
573948;14176
573959;14231
573967;14170
573975;13995
573983;13923
573992;13932
574000;13916
574008;13976
574016;13972
574024;14026
574033;14010
574041;13962
574049;13818
574057;13766
574065;13630
574074;13649
574082;13612
574090;13791
574098;13664
574106;13396
574115;13948
574123;12938
574131;9392
574139;5540
574147;5684
574156;13269
574164;15614
574172;15136
574180;14411
574188;14158
574196;13869
574205;13626
574213;13442
574221;13252
574229;13218
574237;13144
574246;13004
574254;12888
574265;12755
574273;12722
574281;12533
574290;12363
574298;12042
574306;11969
574314;11801
574322;11696
574331;11659
574339;11573
574347;11431
574355;11551
574363;11398
574372;11278
574380;11791
574388;12206
574396;12453
574404;13073
574413;13530
574421;13835
574429;14012
574437;14105
574445;14199
574454;13997
574462;13945
574470;14006
574478;13949
574486;13772
574494;13596
574503;13558
574511;13701
574519;13712
574527;13530
574535;13564
574544;13612
574552;13409
574563;13311
574571;13463
574579;13583
574588;13579
574596;13468
574604;13247
574612;13078
574620;13056
574629;13144
574637;13201
574645;13397
574653;13672
574661;14013
574670;14303
574678;14551
574686;14701
574694;14319
574702;13663
574711;13347
574719;13459
574727;13413
574735;13413
574743;13193
574751;14638
574760;14061
574768;10544
574776;6152
574784;5838
574792;13189
574801;15717
574809;15912
574817;15625
574825;15184
574833;14995
574842;14713
574850;14496
574858;14740
574869;14968
574877;14894
574886;14771
574894;14649
574902;14648
574910;14468
574918;14268
574927;14170
574935;13238
574943;12757
574951;12543
574959;12956
574968;12968
574976;12799
574984;12657
574992;12657
575000;12664
575009;12733
575017;12824
575025;13106
575033;13428
575041;13765
575049;14049
575058;14313
575066;14459
575074;14518
575082;14578
575090;14604
575099;14528
575107;14403
575115;14384
575123;14344
575131;14334
575140;14282
575148;14265
575156;14307
575167;14395
575175;14407
575184;14340
575192;14402
575200;14387
575208;14337
575216;14381
575225;14408
575233;14380
575241;14254
575249;14178
575257;14142
575266;14092
575274;14059
575282;13970
575290;13931
575298;13989
575306;14166
575315;14502
575323;14499
575331;14338
575339;14339
575347;14348
575356;14404
575364;14428
575372;14404
575380;14345
575388;14223
575397;14568
575405;14336
575413;11421
575421;7115
575429;5486
575438;10742
575446;15948
575454;15963
575462;15120
575473;14535
575482;14385
575490;14117
575498;13871
575506;13619
575514;13327
575523;13046
575531;12740
575539;12624
575547;12565
575555;12519
575564;12429
575572;12363
575580;12204
575588;12004
575596;11927
575604;11808
575613;11585
575621;11490
575629;11448
575637;11514
575645;11533
575654;11688
575662;11862
575670;12195
575678;12547
575686;13029
575695;13445
575703;13775
575711;13984
575719;14165
575727;14251
575736;14349
575744;14381
575752;14448
575760;14483
575768;14549
575780;14636
575788;14766
575796;14702
575804;14632
575812;14565
575821;14530
575829;14460
575837;14430
575845;14408
575853;14422
575862;14425
575870;14395
575878;14361
575886;14219
575894;14087
575902;13986
575911;13942
575919;13917
575927;13888
575935;13964
575943;13962
575952;14047
575960;14074
575968;14075
575976;13995
575984;13965
575993;13877
576001;13805
576009;13657
576017;13550
576025;13404
576034;13994
576042;12951
576050;9515
576058;6055
576066;6371
576074;14112
576086;15934
576094;15288
576102;14568
576110;14254
576119;14075
576127;13839
576135;13705
576143;13610
576151;13558
576159;13490
576168;13432
576176;13382
576184;13364
576192;13237
576200;13147
576209;13004
576217;12913
576225;12745
576233;12556
576241;12314
576250;12107
576258;11903
576266;11869
576274;11913
576282;11995
576291;12084
576299;12305
576307;12601
576315;12987
576323;13380
576332;13705
576340;13995
576348;14211
576356;14312
576364;14364
576372;14463
576384;14575
576392;14581
576400;14532
576408;14487
576417;14506
576425;14452
576433;14411
576441;14363
576449;14333
576457;14336
576466;14358
576474;14322
576482;14289
576490;14240
576498;14073
576507;13939
576515;13898
576523;13906
576531;13920
576539;13958
576548;14033
576556;14036
576564;14051
576572;14044
576580;13998
576589;14009
576597;14007
576605;14053
576613;14049
576621;14024
576630;13968
576638;13890
576646;14402
576654;13319
576662;9907
576670;6907
576679;6914
576690;16084
576698;16492
576706;15764
576714;15032
576723;14562
576731;14248
576739;13974
576747;13781
576755;13683
576764;13603
576772;13564
576780;13497
576788;13405
576796;13280
576805;13208
576813;13072
576821;12872
576829;12706
576837;12589
576846;12386
576854;12187
576862;12009
576870;11924
576878;11877
576887;11928
576895;12009
576903;12210
576911;12441
576919;12701
576927;13058
576936;13497
576944;13859
576952;14078
576960;14222
576968;14290
576977;14336
576987;14471
576995;14465
577003;14413
577011;14421
577020;14416
577028;14386
577036;14333
577044;14256
577052;14216
577061;14183
577069;14150
577077;14057
577085;14084
577093;13986
577102;13961
577110;13828
577118;13740
577126;13661
577134;13652
577143;13624
577151;13602
577159;13603
577167;13628
577175;13699
577183;13731
577192;13676
577200;13598
577208;13538
577216;13510
577225;13490
577234;13457
577242;13400
577250;13500
577258;13764
577266;12050
577275;8545
577283;6253
577293;11649
577301;16339
577309;15940
577318;15275
577326;14649
577334;14310
577342;14029
577350;13860
577359;13712
577367;13635
577375;13538
577383;13471
577391;13388
577400;13302
577408;13217
577416;13107
577424;12966
577432;12908
577441;12755
577449;12650
577457;12457
577465;12244
577473;12070
577481;11957
577490;11867
577498;11938
577506;11993
577514;12184
577522;12439
577531;12793
577539;13212
577547;13600
577555;13898
577563;14125
577572;14263
577580;14312
577588;14324
577599;14367
577607;14438
577616;14411
577624;14334
577632;14275
577640;14168
577648;14143
577657;14057
577665;14006
577673;13926
577681;13907
577689;13861
577698;13866
577706;13839
577714;13828
577722;13707
577730;13637
577738;13654
577747;13674
577755;13697
577763;13763
577771;13825
577779;13879
577788;13978
577796;14058
577804;14138
577812;14147
577820;14150
577829;14140
577837;14091
577845;14023
577853;13931
577861;14020
577870;14209
577878;12405
577886;8651
577897;6067
577905;11861
577914;16224
577922;15916
577930;15218
577938;14623
577946;14346
577955;14000
577963;13766
577971;13701
577979;13646
577987;13615
577996;13615
578004;13564
578012;13467
578020;13379
578028;13308
578036;13197
578045;13048
578053;12921
578061;12733
578069;12468
578077;12220
578086;12014
578094;11866
578102;11833
578110;11941
578118;12069
578127;12234
578135;12543
578143;12935
578151;13373
578159;13715
578168;13993
578176;14200
578184;14336
578192;14374
578203;14512
578212;14558
578220;14546
578228;14486
578236;14450
578244;14363
578253;14273
578261;14202
578269;14179
578277;14149
578285;14145
578294;14131
578302;14087
578310;14021
578318;14066
578326;14085
578334;14147
578343;14181
578351;14122
578359;14042
578367;13949
578375;13842
578384;13782
578392;13713
578400;13704
578408;13734
578416;13748
578425;13797
578433;13903
578441;13872
578449;13877
578457;13833
578466;13833
578474;13769
578482;13745
578490;13668
578498;13647
578510;14205
578518;13568
578526;10593
578534;6856
578542;5794
578551;11976
578559;15868
578567;15711
578575;15021
578583;14550
578591;14281
578600;13982
578608;13817
578616;13744
578624;13599
578632;13548
578641;13435
578649;13427
578657;13350
578665;13278
578673;13141
578682;13064
578690;12920
578698;12782
578706;12591
578714;12374
578723;12077
578731;11896
578739;11796
578747;11780
578755;11819
578764;11929
578772;12132
578780;12459
578788;12830
578796;13267
578808;13872
578816;14185
578824;14332
578832;14409
578840;14431
578849;14439
578857;14360
578865;14311
578873;14248
578881;14167
578889;14033
578898;13981
578906;13922
578914;13861
578922;13822
578930;13791
578939;13780
578947;13742
578955;13707
578963;13708
578971;13744
578980;13770
578988;13839
578996;13830
579004;13859
579012;13847
579021;13855
579029;13738
579037;13594
579045;13481
579053;13503
579062;13509
579070;13513
579078;13492
579086;13612
579094;13629
579102;13754
579122;14024
579130;14016
579138;13872
579146;13769
579155;13684
579163;13567
579171;13493
579179;13938
579187;12526
579196;8999
579204;5835
579212;6922
579220;14203
579228;15738
579237;15283
579245;14555
579253;14204
579261;13958
579269;13759
579278;13640
579286;13572
579294;13509
579302;13512
579310;13444
579319;13404
579327;13338
579335;13299
579343;13196
579351;13134
579359;12952
579368;12836
579376;12644
579384;12440
579392;12130
579400;11957
579409;11834
579417;11819
579427;11929
579435;12165
579443;12397
579452;12775
579460;13181
579468;13615
579476;13918
579484;14171
579493;14343
579501;14457
579509;14482
579517;14532
579525;14499
579534;14450
579542;14360
579551;14376
579559;14290
579567;14224
579576;14177
579584;14133
579592;14095
579600;14085
579608;14057
579617;14058
579625;14048
579633;14037
579641;13977
579649;13979
579657;13943
579666;13981
579674;13951
579682;14008
579690;13951
579698;13940
579707;13881
579715;13885
579725;13761
579733;13712
579741;13641
579750;13624
579758;13582
579766;13596
579774;13590
579782;13657
579791;13730
579799;13798
579807;13748
579815;13713
579823;13644
579832;13640
579840;13590
579848;13554
579856;13460
579864;13856
579873;13576
579881;11113
579889;7175
579897;5430
579905;10240
579913;15579
579922;15690
579930;15029
579938;14445
579946;14241
579954;13972
579963;13793
579971;13698
579979;13605
579987;13578
579995;13534
580004;13516
580012;13491
580020;13438
580031;13361
580039;13289
580048;13142
580056;12933
580064;12737
580072;12500
580080;12296
580089;12019
580097;11874
580105;11807
580113;11877
580121;11994
580130;12200
580138;12443
580146;12853
580154;13310
580162;13714
580170;14075
580179;14316
580187;14426
580195;14500
580203;14559
580211;14559
580220;14551
580228;14512
580236;14464
580244;14410
580252;14352
580261;14280
580269;14253
580277;14215
580285;14172
580293;14151
580302;14125
580310;14108
580318;14089
580326;14073
580337;14176
580346;14237
580354;14199
580362;14175
580370;14163
580378;14131
580387;14139
580395;14109
580403;14066
580411;13997
580419;13880
580428;13727
580436;13626
580444;13595
580452;13611
580460;13608
580468;13586
580477;13589
580485;13623
580493;13669
580501;13719
580509;13647
580518;13617
580526;13600
580534;13545
580542;13458
580550;13403
580559;13327
580567;13847
580575;12902
580583;9766
580591;6166
580600;5818
580608;12562
580616;15574
580624;15277
580635;14501
580644;14270
580652;13981
580660;13751
580668;13687
580676;13604
580685;13550
580693;13511
580701;13458
580709;13389
580717;13321
580726;13219
580734;13101
580742;12938
580750;12788
580758;12614
580766;12446
580775;12225
580783;11996
580791;11717
580799;11645
580807;11658
580816;11783
580824;11870
580832;12071
580840;12411
580848;12898
580857;13316
580865;13706
580873;13975
580881;14173
580889;14283
580898;14385
580906;14358
580914;14362
580922;14319
580930;14306
580942;14303
580950;14342
580958;14298
580966;14293
580974;14236
580983;14195
580991;14135
580999;14165
581007;14109
581015;14094
581023;13982
581032;13969
581040;13925
581048;13911
581056;13891
581064;13899
581073;13959
581081;13998
581089;13944
581097;13964
581105;13979
581114;13936
581122;13887
581130;13759
581138;13680
581146;13673
581155;13684
581163;13672
581171;13681
581179;13747
581187;13810
581196;13879
581204;13857
581212;13860
581220;13859
581228;13844
581240;13902
581248;13942
581256;13839
581264;14086
581272;13980
581281;11856
581289;8073
581297;6053
581305;10150
581313;15886
581321;16022
581330;15344
581338;14756
581346;14512
581354;14186
581362;13933
581371;13868
581379;13757
581387;13649
581395;13559
581403;13473
581412;13407
581420;13356
581428;13293
581436;13214
581444;13079
581453;12918
581461;12726
581469;12521
581477;12277
581485;12021
581494;11781
581502;11709
581510;11714
581518;11817
581526;11994
581534;12251
581545;12809
581553;13302
581561;13682
581569;13960
581577;14203
581586;14337
581594;14429
581602;14499
581610;14468
581618;14436
581627;14399
581636;14352
581644;14294
581652;14261
581660;14201
581669;14141
581677;14069
581685;14033
581693;13973
581701;13969
581710;13949
581718;13939
581726;13900
581734;13946
581742;13974
581751;13975
581759;13985
581767;13983
581775;13965
581783;13975
581791;13861
581800;13765
581808;13658
581816;13606
581824;13555
581832;13522
581841;13543
581851;13742
581859;13890
581867;13991
581875;14034
581884;14030
581892;14011
581900;14017
581908;13986
581916;13942
581925;13859
581933;13795
581941;13816
581949;14387
581957;13184
581966;9839
581974;6967
581982;7657
581990;14894
581998;16473
582007;15822
582015;15082
582023;14601
582031;14370
582039;14073
582047;13930
582056;13800
582064;13727
582072;13593
582080;13521
582088;13425
582097;13344
582105;13223
582113;13121
582121;13023
582129;12942
582138;12752
582146;12544
582157;12268
582165;12067
582173;11805
582182;11687
582190;11656
582198;11747
582206;11887
582214;12113
582223;12414
582231;12812
582239;13208
582247;13575
582255;13851
582264;14032
582272;14118
582280;14161
582288;14159
582296;14155
582305;14107
582313;14049
582321;14013
582329;13947
582337;13883
582345;13875
582354;13836
582362;13846
582370;13850
582378;13866
582386;13871
582395;13873
582403;13881
582411;13903
582419;13920
582427;13918
582436;13943
582444;13916
582455;13949
582463;14013
582471;13959
582480;13935
582488;13889
582496;13850
582504;13789
582512;13735
582521;13594
582529;13452
582537;13280
582545;13234
582553;13268
582562;13277
582570;13313
582578;13375
582586;13457
582594;13517
582602;13568
582611;13524
582619;13491
582627;13523
582635;13547
582643;13504
582652;13460
582660;13461
582668;13891
582676;12585
582684;9173
582693;6169
582701;7208
582709;14399
582717;15842
582725;15277
582734;14556
582742;14278
582750;14029
582761;13786
582769;13739
582778;13644
582786;13594
582794;13533
582802;13532
582810;13469
582819;13386
582827;13321
582835;13250
582843;13149
582851;13028
582860;12840
582868;12621
582876;12363
582884;12135
582892;11890
582900;11821
582909;11865
582917;11950
582925;12088
582933;12307
582941;12607
582950;13016
582958;13366
582966;13776
582974;14026
582982;14176
582991;14268
582999;14282
583007;14306
583015;14325
583023;14254
583032;14206
583040;14175
583048;14148
583059;14159
583067;14189
583076;14132
583084;14115
583092;14104
583100;14122
583108;14015
583117;13986
583125;13929
583133;13894
583141;13857
583149;13862
583158;13821
583166;13834
583174;13795
583182;13770
583190;13777
583198;13803
583207;13809
583215;13825
583223;13725
583231;13681
583239;13584
583248;13565
583256;13561
583264;13620
583272;13619
583280;13653
583289;13676
583297;13775
583305;13783
583313;13793
583321;13759
583330;13723
583338;13733
583346;13705
583354;13612
583365;13635
583374;14221
583382;12968
583390;9398
583398;6210
583406;6952
583415;14282
583423;16000
583431;15495
583439;14790
583447;14469
583455;14168
583464;13961
583472;13794
583480;13732
583488;13664
583496;13634
583505;13608
583513;13584
583521;13451
583529;13357
583537;13237
583546;13176
583554;13083
583562;12943
583570;12755
583578;12563
583587;12344
583595;12143
583603;11976
583611;11939
583619;11992
583628;12086
583636;12255
583644;12513
583652;12891
583660;13272
583672;13817
583680;14117
583688;14216
583696;14333
583704;14377
583713;14426
583721;14423
583729;14399
583737;14316
583745;14277
583753;14273
583762;14213
583770;14142
583778;14077
583786;14040
583794;14011
583803;13925
583811;13848
583819;13822
583827;13824
583835;13834
583844;13807
583852;13818
583860;13827
583868;13806
583876;13770
583885;13771
583893;13697
583901;13636
583909;13562
583917;13506
583926;13415
583934;13431
583942;13437
583950;13486
583958;13552
583970;13747
583978;13860
583986;13840
583994;13781
584002;13738
584010;13671
584019;13658
584027;13675
584035;13629
584043;13552
584051;14008
584060;13577
584068;10839
584076;6999
584084;5532
584092;11355
584101;15777
584109;15602
584117;14937
584125;14480
584133;14283
584142;14031
584150;13863
584158;13722
584166;13670
584174;13578
584183;13504
584191;13398
584199;13315
584207;13245
584215;13159
584223;13025
584232;12922
584240;12758
584248;12593
584256;12371
584264;12194
584275;11966
584283;11887
584291;11839
584299;11883
584307;11989
584316;12204
584324;12464
584332;12875
584340;13279
584348;13692
584357;14008
584365;14269
584373;14370
584381;14507
584389;14530
584398;14546
584406;14518
584414;14493
584422;14430
584430;14396
584439;14298
584447;14277
584455;14200
584463;14179
584471;14096
584479;14082
584488;14027
584496;14028
584504;14016
584512;14044
584520;13981
584529;13972
584537;13968
584545;13988
584553;13976
584561;14025
584570;13988
584581;14010
584589;13895
584597;13772
584605;13622
584614;13588
584622;13555
584630;13632
584638;13671
584646;13745
584655;13796
584663;13838
584671;13815
584679;13804
584687;13794
584696;13759
584704;13743
584712;13741
584720;13644
584728;14157
584737;13501
584745;10736
584753;7251
584761;6237
584769;12728
584777;16209
584786;15744
584794;14961
584802;14443
584810;14217
584818;13948
584827;13788
584835;13642
584843;13555
584851;13513
584859;13484
584868;13437
584879;13355
584887;13285
584895;13165
584903;13032
584912;12874
584920;12673
584928;12532
584936;12264
584944;12025
584953;11790
584961;11665
584969;11666
584977;11766
584985;11931
584994;12118
585002;12390
585010;12798
585018;13194
585026;13623
585034;13992
585043;14221
585051;14397
585059;14514
585067;14564
585075;14541
585084;14491
585092;14426
585100;14351
585108;14291
585116;14283
585125;14195
585133;14145
585141;14101
585149;14084
585157;14048
585166;14038
585174;14025
585185;14102
585193;14150
585201;14162
585210;14144
585218;14071
585226;14030
585234;13921
585242;13804
585251;13697
585259;13671
585267;13680
585275;13680
585283;13717
585292;13746
585300;13866
585308;13917
585316;13902
585324;13857
585332;13865
585341;13844
585349;13822
585357;13746
585365;13709
585373;13627
585382;14047
585390;13481
585398;10717
585406;7397
585414;6450
585423;12804
585431;16620
585439;15990
585447;15272
585455;14582
585464;14266
585472;13941
585480;13716
585491;13632
585499;13605
585508;13518
585516;13422
585524;13341
585532;13251
585540;13120
585549;12970
585557;12843
585565;12718
585573;12553
585581;12361
585590;12118
585598;11899
585606;11673
585614;11565
585622;11569
585630;11715
585639;11835
585647;12107
585655;12426
585663;12897
585671;13280
585680;13623
585688;13884
585696;14105
585704;14189
585712;14247
585721;14224
585729;14265
585737;14255
585745;14240
585753;14175
585762;14147
585770;14076
585778;13992
585789;13992
585797;14010
585806;13932
585814;13873
585822;13843
585830;13846
585838;13779
585847;13784
585855;13754
585863;13767
585871;13747
585879;13807
585887;13790
585896;13749
585904;13690
585912;13629
585920;13566
585928;13535
585937;13479
585945;13505
585953;13583
585961;13690
585969;13794
585978;13916
585986;13951
585994;13960
586002;13960
586010;13922
586019;13907
586027;13855
586035;13763
586043;13727
586051;14277
586060;13048
586068;9512
586076;6006
586084;6586
586095;15516
586104;15927
586112;15254
586120;14589
586128;14326
586136;14022
586145;13838
586153;13709
586161;13616
586169;13517
586177;13446
586185;13356
586194;13321
586202;13262
586210;13158
586218;13076
586226;12925
586235;12782
586243;12619
586251;12426
586259;12171
586267;11956
586276;11760
586284;11710
586292;11712
586300;11837
586308;11999
586317;12235
586325;12526
586333;12942
586341;13352
586349;13745
586358;13990
586366;14229
586374;14340
586382;14384
586390;14379
586401;14468
586409;14489
586417;14434
586425;14370
586433;14320
586441;14295
586450;14266
586458;14214
586466;14201
586474;14191
586482;14193
586491;14165
586499;14146
586507;14114
586515;14145
586523;14138
586532;14191
586540;14169
586548;14141
586556;14061
586564;13952
586573;13837
586581;13802
586589;13739
586597;13750
586605;13747
586614;13805
586623;13854
586631;13935
586639;13925
586647;13924
586655;13897
586664;13928
586672;13891
586680;13883
586688;13809
586698;13846
586707;14496
586715;13688
586723;10361
586731;6365
586739;5708
586748;12851
586756;16059
586764;15727
586772;14972
586780;14597
586789;14282
586797;14051
586805;13917
586813;13841
586821;13736
586830;13685
586838;13598
586846;13562
586854;13470
586862;13380
586871;13252
586879;13177
586887;12990
586895;12878
586903;12704
586911;12482
586920;12225
586928;12019
586936;11883
586944;11869
586952;11882
586961;12021
586969;12127
586977;12343
586985;12709
586993;13137
587005;13679
587013;14012
587021;14176
587029;14297
587037;14278
587046;14325
587054;14298
587062;14265
587070;14157
587078;14154
587087;14111
587095;14066
587103;14036
587111;14025
587119;13947
587128;13934
587136;13907
587144;13899
587152;13860
587160;13839
587169;13843
587177;13831
587185;13783
587193;13783
587201;13755
587209;13708
587218;13632
587226;13492
587234;13392
587242;13326
587250;13291
587259;13305
587267;13377
587275;13429
587283;13503
587291;13632
587303;13799
587311;13858
587319;13791
587327;13787
587335;13787
587344;13789
587352;13723
587360;13680
587368;14282
587376;13274
587385;9827
587393;6030
587401;6110
587409;13635
587417;16071
587426;15596
587434;14932
587442;14623
587450;14382
587458;14090
587466;13998
587475;13905
587483;13845
587491;13769
587499;13717
587507;13641
587516;13555
587524;13431
587532;13348
587540;13234
587548;13094
587557;12891
587565;12692
587573;12459
587581;12216
587589;11997
587598;11855
587609;11935
587617;12133
587625;12250
587633;12442
587642;12746
587650;13142
587658;13531
587666;13924
587674;14196
587683;14397
587691;14504
587699;14563
587707;14587
587715;14612
587724;14578
587732;14583
587740;14583
587748;14558
587756;14500
587764;14448
587773;14357
587781;14297
587789;14223
587797;14149
587805;14082
587814;14104
587822;14099
587830;14175
587838;14156
587846;14157
587855;14085
587863;14015
587871;13881
587879;13753
587887;13649
587896;13636
587904;13564
587915;13659
587923;13756
587931;13807
587940;13885
587948;13891
587956;13867
587964;13857
587972;13848
587981;13869
587989;13851
587997;13804
588005;13740
588013;13754
588022;14178
588030;12831
588038;9373
588046;6645
588054;7871
588062;15494
588071;16564
588079;15821
588087;15018
588095;14577
588103;14336
588112;14079
588120;13943
588128;13883
588136;13762
588144;13683
588153;13583
588161;13483
588169;13401
588177;13302
588185;13179
588194;13063
588202;12876
588210;12690
588221;12460
588229;12268
588238;12013
588246;11840
588254;11761
588262;11799
588270;11835
588279;12013
588287;12261
588295;12636
588303;13073
588311;13505
588319;13858
588328;14151
588336;14384
588344;14464
588352;14489
588360;14543
588369;14551
588377;14523
588385;14438
588393;14367
588401;14309
588410;14239
588418;14136
588426;14054
588434;14030
588442;13971
588451;13940
588459;13907
588467;13952
588475;13951
588483;13903
588492;13903
588500;13800
588508;13690
588519;13675
588527;13754
588536;13759
588544;13802
588552;13864
588560;13930
588568;13947
588577;13968
588585;13991
588593;13960
588601;13917
588609;13889
588617;13852
588626;13808
588634;13751
588642;13719
588650;14170
588658;12840
588667;9385
588675;6686
588683;7484
588691;14983
588699;16505
588708;15785
588716;15052
588724;14489
588732;14228
588740;13932
588749;13742
588757;13659
588765;13642
588773;13572
588781;13493
588790;13415
588798;13327
588806;13220
588814;13116
588825;12965
588834;12836
588842;12607
588850;12384
588858;12111
588866;11881
588874;11705
588883;11669
588891;11714
588899;11854
588907;12004
588915;12283
588924;12639
588932;13060
588940;13460
588948;13858
588956;14110
588965;14320
588973;14442
588981;14529
588989;14531
588997;14575
589006;14511
589014;14459
589022;14389
589030;14345
589038;14207
589047;14118
589055;14059
589063;14009
589071;13946
589079;13936
589087;13877
589096;13847
589104;13808
589112;13803
589120;13811
589130;13913
589139;13925
589147;13926
589155;13857
589163;13794
589171;13711
589180;13702
589188;13633
589196;13702
589204;13771
589212;13819
589221;13862
589229;13922
589237;13861
589245;13842
589253;13791
589262;13757
589270;13770
589278;13756
589286;13656
589294;13590
589303;14111
589312;12971
589319;9437
589327;5889
589336;6304
589345;13836
589353;16063
589361;15604
589369;14843
589377;14443
589385;14189
589394;13918
589402;13754
589410;13694
589418;13593
589428;13532
589437;13488
589445;13405
589453;13263
589461;13182
589469;13051
589478;12931
589486;12814
589494;12669
589502;12444
589510;12232
589519;11952
589527;11789
589535;11663
589543;11674
589551;11722
589560;11892
589568;12091
589576;12483
589584;12909
589592;13348
589601;13684
589609;13920
589617;14110
589625;14235
589633;14295
589641;14252
589650;14263
589658;14281
589666;14259
589674;14168
589682;14118
589691;14085
589699;14026
589707;13968
589715;13946
589723;13924
589735;13955
589743;13992
589751;13877
589759;13847
589767;13821
589776;13805
589784;13798
589792;13795
589800;13782
589808;13804
589817;13817
589825;13874
589833;13835
589841;13770
589849;13584
589858;13475
589866;13478
589874;13478
589882;13506
589890;13523
589898;13562
589907;13644
589915;13749
589923;13727
589931;13700
589939;13679
589948;13733
589956;13708
589964;13651
589972;13614
589980;13577
589989;14086
589997;12780
590005;9044
590013;5419
590021;6167
590030;13605
590041;15778
590049;15195
590057;14586
590065;14355
590074;14032
590082;13875
590090;13766
590098;13659
590106;13575
590115;13417
590123;13135
590131;13398
590139;13553
590147;13461
590156;13233
590164;13169
590172;13025
590180;12858
590188;12613
590196;12400
590205;12132
590213;11945
590221;11801
590229;11850
590237;11758
590246;11914
590254;12053
590262;12447
590270;12738
590278;13391
590287;13737
590295;14089
590303;14158
590311;14388
590319;14332
590328;14445
590339;14280
590347;14398
590355;14147
590363;14254
590372;13963
590380;14069
590388;13779
590396;13874
590404;13593
590413;13744
590421;13523
590429;13691
590437;13538
590445;13708
590454;13503
590462;13646
590470;13505
590478;13633
590486;13422
590494;13484
590503;13258
590511;13312
590519;13188
590527;13301
590535;13284
590544;13356
590552;13290
590560;13226
590568;13171
590576;13259
590585;13340
590593;13558
590601;13680
590609;13803
590617;14162
590626;14447
590634;14468
590645;14106
590653;13676
590661;13683
590670;13687
590678;14059
590686;14059
590694;14441
590702;14369
590711;12645
590719;8559
590727;6267
590735;9392
590743;15763
590751;16205
590760;15375
590768;14858
590776;14624
590784;14302
590792;14059
590801;13869
590809;13537
590817;13484
590825;13561
590833;13768
590842;13800
590850;14006
590858;13992
590866;14003
590874;13824
590883;13772
590891;13516
590899;13496
590907;13153
590915;13123
590924;13022
590932;13211
590940;12992
590951;13177
590959;13331
590968;13528
590976;13914
590984;14425
590992;14939
591000;15445
591009;15774
591017;16054
591025;15950
591033;16031
591041;15970
591049;16070
591058;16067
591066;15937
591074;15663
591082;15527
591090;15405
591099;15576
591107;15353
591115;15396
591123;15323
591131;15512
591140;15358
591148;15653
591156;15448
591164;15576
591172;15241
591181;15311
591189;14947
591197;15003
591205;14740
591213;14777
591222;14404
591230;14496
591238;14119
591249;14145
591257;14041
591266;14136
591274;13977
591282;14118
591290;14248
591298;14496
591306;14411
591315;14679
591323;14557
591331;14874
591339;14701
591347;14996
591356;14819
591364;15086
591372;14863
591380;15502
591388;14223
591397;11456
591405;8627
591413;9313
591421;16399
591429;18990
591438;17902
591446;16986
591454;15871
591462;15546
591470;14845
591479;14611
591487;14254
591495;14450
591503;14235
591511;14237
591519;14031
591528;14047
591536;13831
591544;13818
591555;13439
591564;13477
591572;12942
591580;12824
591588;12329
591596;12270
591604;11822
591613;11863
591621;11559
591629;11648
591637;11586
591645;11981
591654;12109
591662;12613
591670;12820
591678;13364
591686;13522
591695;13880
591703;13884
591711;14132
591719;14049
591727;14156
591736;14013
591744;14010
591752;13777
591760;13778
591768;13628
591777;13663
591785;13555
591793;13585
591801;13465
591809;13453
591817;13368
591826;13408
591834;13477
591842;13470
591852;13483
591860;13647
591869;13438
591877;13583
591885;13432
591893;13645
591901;13637
591910;13857
591918;13861
591926;13930
591934;13914
591942;13994
591951;13844
591959;13976
591967;14023
591976;14033
591984;13940
591993;13825
592001;13660
592009;14079
592017;12956
592025;9271
592034;6475
592042;6998
592050;14927
592058;17066
592066;16642
592074;15824
592083;15025
592091;14422
592099;14150
592107;13747
592115;13812
592124;13487
592132;13620
592140;13357
592148;13405
592158;13273
592167;13214
592175;13100
592183;12938
592191;12730
592199;12553
592208;12379
592216;12190
592224;11911
592232;11871
592240;11650
592249;11739
592257;11794
592265;12111
592273;12270
592281;12692
592290;13083
592298;13718
592306;13895
592314;14344
592322;14370
592330;14573
592339;14448
592347;14656
592355;14418
592363;14569
592371;14378
592380;14431
592388;14119
592396;14176
592404;13876
592412;13955
592421;13695
592429;13800
592437;13536
592445;13615
592453;13504
592465;13813
592473;13794
592481;13790
592489;13667
592497;13720
592506;13450
592514;13443
592522;13285
592530;13452
592538;13377
592547;13603
592555;13449
592563;13769
592571;13690
592579;13922
592588;13786
592596;14019
592604;13820
592612;13995
592620;13790
592628;13939
592637;13841
592645;14423
592653;12506
592661;8741
592669;5433
592678;7155
592686;14867
592694;16615
592702;15943
592710;15275
592719;14551
592727;14250
592735;13790
592743;13772
592751;13491
592760;13486
592771;13297
592779;13451
592787;13201
592795;13360
592804;13012
592812;13049
592820;12764
592828;12861
592836;12461
592845;12384
592853;11981
592861;11964
592869;11529
592877;11678
592886;11574
592894;11838
592902;11776
592910;12228
592918;12472
592926;13058
592935;13317
592943;13848
592951;13990
592959;14303
592967;14312
592976;14505
592984;14394
592992;14476
593000;14335
593008;14414
593017;14320
593025;14230
593033;14180
593041;14144
593049;14025
593058;13979
593069;13910
593077;14058
593085;13820
593093;13957
593102;13777
593110;13968
593118;13858
593126;13970
593134;13874
593143;13898
593151;13758
593159;13777
593167;13594
593175;13611
593183;13448
593192;13542
593200;13547
593208;13665
593216;13741
593224;13872
593233;13842
593241;13857
593249;13884
593257;13803
593265;13829
593274;13711
593282;13747
593290;13587
593298;13792
593306;13852
593315;11845
593323;7524
593331;5043
593339;7852
593347;15498
593356;16324
593364;15864
593375;14838
593383;14556
593391;14234
593400;13960
593408;13851
593416;13840
593424;13761
593432;13717
593441;13635
593449;13679
593457;13535
593465;13464
593473;13275
593481;13260
593490;12968
593498;12883
593506;12461
593514;12321
593522;11882
593531;11781
593539;11551
593547;11703
593555;11632
593563;11934
593572;11965
593580;12559
593588;12819
593596;13474
593604;13619
593613;14075
593621;14058
593629;14299
593637;14107
593645;14332
593654;14137
593662;14275
593670;13983
593681;14124
593689;14092
593698;14185
593706;13982
593714;14067
593722;13847
593730;13994
593738;13845
593747;13950
593755;13779
593763;13941
593771;13751
593779;13940
593788;13720
593796;13979
593804;13739
593812;13905
593820;13706
593829;13886
593837;13639
593845;13821
593853;13545
593861;13623
593870;13309
593878;13449
593886;13241
593894;13456
593902;13302
593911;13524
593919;13390
593927;13657
593935;13523
593943;13659
593951;13555
593960;13746
593968;13603
593979;13810
593987;13601
593996;13760
594004;13714
594012;13903
594020;11384
594028;7454
594036;5008
594045;8513
594053;15321
594061;16214
594069;15206
594077;14717
594086;14202
594094;14010
594102;13636
594110;13718
594118;13469
594127;13617
594135;13416
594143;13506
594151;13299
594159;13365
594168;13148
594176;13206
594184;12963
594192;12891
594200;12597
594209;12452
594217;12173
594225;11989
594233;11747
594241;11629
594249;11640
594258;11698
594266;11778
594274;11969
594284;12495
594292;13139
594301;13380
594309;13938
594317;14065
594325;14311
594333;14306
594342;14484
594350;14416
594358;14537
594366;14344
594374;14405
594383;14311
594391;14339
594399;14203
594408;14269
594416;14208
594425;14315
594433;14319
594441;14366
594449;14392
594457;14435
594466;14375
594474;14326
594482;14331
594490;14289
594498;14297
594506;14216
594515;14280
594523;14213
594531;14228
594539;14120
594547;14231
594556;14124
594564;14174
594572;14066
594582;14017
594590;13998
594599;13841
594607;13828
594615;13795
594623;13918
594631;13985
594640;14021
594648;14108
594656;14192
594664;14348
594672;14288
594681;14254
594689;14169
594697;14245
594705;14094
594713;13974
594722;13755
594730;14055
594738;13492
594746;11317
594754;7508
594762;6440
594771;11037
594779;16404
594787;16142
594795;15293
594803;14494
594812;14369
594820;13869
594828;13899
594836;13553
594844;13618
594853;13277
594861;13381
594869;13148
594877;13246
594888;12928
594897;13033
594905;12725
594913;12650
594921;12291
594929;12249
594938;11816
594946;11764
594954;11393
594962;11400
594970;11170
594979;11425
594987;11282
594995;11642
595003;11728
595011;12282
595020;12520
595028;13219
595036;13447
595044;13976
595052;13946
595060;14284
595069;14131
595077;14314
595085;14157
595093;14342
595101;14061
595110;14296
595118;14025
595126;14156
595134;13919
595142;14008
595151;13848
595159;14042
595167;13868
595175;14029
595183;13923
595195;14232
595203;14143
595211;14279
595219;14041
595227;14242
595236;14039
595244;14247
595252;14083
595260;14289
595268;14150
595277;14401
595285;14259
595293;14459
595301;14296
595309;14420
595318;14079
595326;14066
595334;13883
595342;14059
595350;13870
595358;14028
595367;13939
595375;14216
595383;14182
595391;14253
595399;14090
595408;14116
595416;13980
595424;13906
595432;13785
595440;13753
595449;13565
595457;13810
595465;12541
595473;9504
595481;6914
595493;10366
595501;16552
595509;16686
595517;15339
595525;14661
595534;14203
595542;13989
595550;13563
595558;13631
595566;13481
595575;13507
595583;13335
595591;13374
595599;13222
595607;13197
595615;13003
595624;12876
595632;12667
595640;12481
595648;12246
595656;11988
595665;11748
595673;11511
595681;11378
595689;11303
595697;11395
595706;11424
595714;11615
595722;11776
595730;12122
595738;12417
595747;13001
595755;13293
595763;13735
595771;13877
595779;14108
595788;14082
595799;14096
595807;14080
595815;13996
595823;13928
595832;13864
595840;13888
595848;13787
595856;13732
595864;13712
595873;13614
595881;13582
595889;13498
595897;13584
595905;13478
595913;13596
595922;13567
595930;13676
595938;13550
595946;13670
595954;13510
595963;13676
595971;13535
595979;13661
595987;13405
595995;13453
596004;13204
596012;13338
596020;13075
596028;13338
596036;13300
596045;13527
596053;13473
596061;13779
596069;13532
596077;13661
596086;13558
596094;13715
596105;13568
596113;13732
596121;13509
596130;13936
596138;13231
596146;10854
596154;7439
596162;6685
596170;12365
596179;16919
596187;16124
596195;15337
596203;14301
596211;14126
596220;13626
596228;13623
596236;13325
596244;13420
596252;13142
596261;13297
596269;13036
596277;13157
596285;12955
596293;13009
596302;12789
596310;12904
596318;12557
596326;12569
596334;12248
596343;12069
596351;11720
596359;11722
596367;11526
596375;11704
596383;11725
596392;12144
596403;12278
596411;12931
596419;13227
596428;13809
596436;14041
596444;14513
596452;14518
596460;14843
596468;14595
596477;14747
596485;14549
596493;14724
596501;14485
596509;14653
596518;14405
596526;14497
596534;14164
596542;14273
596550;14018
596559;14124
596567;13983
596575;14167
596583;13991
596591;14164
596600;14156
596608;14193
596616;14070
596624;14158
596632;13954
596641;13927
596649;13838
596657;13829
596665;13820
596673;13939
596681;14017
596690;14109
596698;14199
596709;14368
596717;14281
596726;14454
596734;14212
596742;14202
596750;14085
596758;14148
596766;13897
596775;14367
596783;13100
596791;9877
596799;7240
596807;7942
596816;15157
596824;17118
596832;16269
596840;15447
596848;14847
596857;14506
596865;14164
596873;13925
596881;13846
596889;13761
596898;13637
596906;13506
596914;13521
596922;13319
596930;13279
596938;13140
596947;13067
596955;12898
596963;12804
596971;12512
596979;12309
596988;11945
596996;11855
597004;11560
597014;11777
597022;12001
597031;12078
597039;12229
597047;12602
597055;12935
597063;13368
597072;13659
597080;13981
597088;14052
597096;14218
597104;14228
597113;14300
597121;14249
597129;14354
597137;14191
597145;14243
597154;14055
597162;14146
597170;13984
597178;14051
597187;13867
597196;14007
597204;13929
597212;14120
597220;13920
597228;14022
597236;13917
597245;14028
597253;13675
597261;13748
597269;13497
597277;13579
597286;13385
597294;13537
597302;13387
597312;13742
597320;13746
597329;13973
597337;13786
597345;13927
597353;13800
597361;14001
597370;13821
597378;13958
597386;13707
597394;13831
597402;13619
597411;14039
597419;12784
597427;9882
597435;7023
597443;7492
597452;14396
597460;16817
597468;15990
597476;15293
597484;14500
597492;14389
597501;13810
597509;13737
597517;13449
597525;13509
597533;13262
597542;13308
597550;13063
597558;13207
597566;13000
597574;13115
597583;12861
597591;12851
597599;12468
597607;12405
597618;12111
597627;12085
597635;11619
597643;11727
597651;11582
597659;11865
597668;11737
597676;12166
597684;12285
597692;12852
597700;13100
597709;13626
597717;13661
597725;13956
597733;14007
597741;14282
597750;14043
597758;14200
597766;14120
597774;14217
597782;14166
597790;14101
597799;13936
597807;14023
597815;13803
597823;13876
597831;13822
597840;13844
597848;13726
597856;13810
597864;13781
597872;13771
597881;13833
597889;13907
597897;13831
597905;13709
597913;13640
597925;13668
597933;13522
597941;13575
597949;13363
597957;13533
597966;13425
597974;13644
597982;13596
597990;13685
597998;13635
598007;13727
598015;13575
598023;13586
598031;13552
598039;13538
598047;13437
598056;13392
598064;13700
598072;12224
598080;8691
598088;5871
598097;7096
598105;14325
598113;15979
598121;15373
598129;14566
598138;14048
598146;13765
598154;13454
598162;13451
598170;13303
598179;13340
598187;13000
598195;13156
598203;12969
598211;13033
598223;12987
598231;12873
598239;12686
598247;12611
598255;12459
598264;12300
598272;12041
598280;11880
598288;11664
598296;11652
598305;11577
598313;11804
598321;11876
598329;12205
598337;12420
598345;12924
598354;13250
598362;13698
598370;13801
598378;14100
598386;13988
598395;14185
598403;14061
598411;14046
598419;13863
598427;14077
598436;13867
598444;13953
598452;13784
598460;13926
598468;13645
598477;13774
598485;13597
598493;13790
598501;13556
598509;13622
598518;13410
598537;13811
598545;13951
598553;13775
598562;13877
598570;13755
598578;13777
598586;13499
598594;13568
598602;13248
598611;13394
598619;13309
598627;13437
598635;13229
598643;13418
598652;13400
598660;13717
598668;13541
598676;13759
598684;13595
598693;13774
598701;13613
598709;13667
598717;13451
598725;13581
598734;13423
598742;13329
598750;11024
598758;7694
598766;6034
598775;9885
598783;15477
598791;15991
598799;15033
598807;14594
598815;14135
598824;13978
598832;13739
598843;13813
598851;13629
598860;13701
598868;13447
598876;13585
598884;13313
598892;13519
598900;13245
598909;13289
598917;12965
598925;12995
598933;12604
598941;12541
598950;12189
598958;12170
598966;11948
598974;12000
598982;11904
598991;12133
598999;12121
599007;12501
599015;12676
599023;13082
599032;13442
599040;13818
599048;14117
599056;14180
599064;14165
599073;14183
599081;14216
599089;14148
599097;14122
599105;14134
599113;14011
599122;13957
599130;14023
599140;14157
599148;14000
599156;14099
599165;14001
599173;14076
599181;14010
599189;14111
599197;14004
599206;14116
599214;13974
599222;14081
599230;14086
599238;14108
599247;14091
599255;14074
599263;14050
599271;13963
599279;13885
599288;13692
599296;13650
599304;13603
599312;13690
599320;13605
599329;13649
599337;13641
599345;13873
599353;13870
599362;14024
599370;13837
599379;13886
599387;13695
599395;13903
599403;13690
599411;13683
599420;13539
599428;13627
599436;11677
599446;7312
599454;6645
599463;12116
599471;16047
599479;15806
599487;14812
599495;14403
599504;14062
599512;13834
599520;13542
599528;13638
599536;13450
599545;13396
599553;13203
599561;13325
599569;13162
599577;13146
599586;12927
599594;12943
599602;12734
599610;12773
599618;12298
599626;12297
599635;11961
599643;11912
599651;11576
599659;11716
599667;11626
599676;11921
599684;11864
599692;12383
599700;12525
599708;13066
599717;13399
599725;13765
599733;13784
599741;14217
599752;14328
599761;14479
599769;14382
599777;14620
599785;14245
599793;14316
599802;14127
599810;14285
599818;14086
599826;14309
599834;14124
599843;14172
599851;14025
599859;14294
599867;14062
599875;14236
599884;14131
599892;14284
599900;13978
599908;14203
599916;14020
599924;14209
599933;14038
599941;14194
599949;14001
599957;14077
599965;13958
599974;14065
599982;13695
599990;13701
599998;13533
600006;13719
600015;13665
600023;13703
600031;13575
600039;13747
600050;13829
600059;14156
600067;13826
600075;14049
600083;13917
600091;14072
600100;13783
600108;13968
600116;13699
600124;14317
600132;13188
600141;10559
600149;7354
600157;7444
600165;13511
600173;16508
600182;15824
600190;15069
600198;14543
600206;14249
600214;13827
600222;13839
600231;13667
600239;13706
600247;13551
600255;13498
600263;13310
600272;13285
600280;13221
600288;13167
600296;13033
