Tempo (ms);Valor
60039;26310
60047;26309
60055;26308
60063;26310
60072;26312
60080;26313
60088;26308
60096;26313
60104;26315
60113;26314
60121;26316
60129;26313
60137;26316
60145;26317
60154;26312
60162;26311
60170;26310
60178;26312
60186;26313
60195;26311
60203;26311
60211;26311
60219;26310
60227;26313
60236;26315
60244;26310
60252;26313
60260;26309
60268;26309
60276;26310
60285;26311
60293;26305
60301;26311
60309;26309
60317;26309
60326;26310
60334;26309
60342;26312
60350;26308
60361;26308
60370;26308
60378;26313
60386;26313
60394;26314
60402;26315
60411;26313
60419;26315
60427;26315
60435;26313
60443;26315
60452;26312
60460;26310
60468;26311
60476;26310
60484;26312
60493;26315
60501;26314
60509;26313
60517;26310
60525;26311
60534;26313
60542;26314
60550;26314
60558;26314
60566;26313
60574;26313
60583;26311
60591;26311
60599;26311
60607;26314
60615;26314
60624;26312
60632;26311
60640;26311
60648;26313
60656;26311
60665;26310
60673;26310
60684;26312
60692;26311
60700;26308
60709;26308
60717;26311
60725;26310
60733;26308
60741;26310
60750;26311
60758;26310
60766;26310
60774;26307
60782;26307
60791;26305
60799;26308
60807;26309
60815;26308
60823;26308
60831;26312
60840;26309
60848;26312
60856;26313
60864;26313
60872;26311
60881;26310
60889;26310
60897;26310
60905;26309
60913;26308
60922;26313
60930;26312
60938;26312
60946;26310
60954;26309
60963;26312
60971;26314
60979;26315
60987;26312
60995;26313
61007;26312
61015;26311
61023;26310
61031;26310
61039;26313
61048;26314
61056;26314
61064;26317
61072;26311
61080;26310
61089;26309
61097;26314
61105;26315
61113;26312
61121;26312
61129;26315
61138;26316
61146;26311
61154;26310
61162;26313
61170;26312
61179;26313
61187;26314
61195;26316
61203;26314
61211;26317
61220;26313
61228;26315
61236;26313
61244;26315
61252;26314
61261;26313
61269;26313
61277;26313
61285;26315
61293;26316
61302;26316
61310;26315
61318;26309
61326;26311
61337;26312
61346;26314
61354;26314
61362;26315
61370;26314
61378;26315
61386;26313
61395;26314
61403;26309
61411;26310
61419;26310
61427;26310
61436;26311
61444;26310
61452;26309
61460;26310
61468;26312
61477;26310
61485;26310
61493;26308
61501;26311
61509;26309
61518;26312
61526;26311
61534;26308
61542;26306
61550;26307
61559;26312
61567;26315
61575;26311
61583;26313
61591;26311
61599;26312
61608;26313
61616;26312
61624;26312
61632;26313
61640;26312
61649;26315
61660;26316
61668;26312
61676;26313
61684;26311
61693;26311
61701;26313
61709;26313
61717;26320
61725;26318
61734;26312
61742;26314
61750;26315
61758;26316
61766;26314
61775;26312
61783;26310
61791;26316
61799;26318
61807;26314
61816;26316
61824;26314
61832;26315
61840;26312
61848;26312
61857;26310
61865;26310
61873;26316
61881;26316
61889;26316
61897;26313
61906;26315
61914;26312
61922;26316
61930;26314
61938;26312
61947;26313
61955;26313
61963;26314
61971;26312
61982;26314
61991;26314
61999;26314
62007;26313
62015;26314
62023;26314
62032;26314
62040;26315
62048;26313
62056;26314
62064;26315
62073;26314
62081;26316
62089;26317
62097;26316
62105;26314
62114;26314
62122;26313
62130;26314
62138;26316
62146;26314
62154;26308
62163;26309
62171;26311
62179;26310
62187;26310
62195;26311
62204;26314
62212;26316
62220;26309
62228;26314
62236;26316
62245;26316
62253;26317
62261;26319
62269;26315
62277;26317
62286;26315
62294;26316
62302;26318
62313;26315
62321;26315
62330;26310
62338;26314
62346;26311
62354;26313
62362;26317
62371;26312
62379;26314
62387;26312
62395;26309
62403;26311
62412;26309
62420;26314
62428;26312
62436;26310
62444;26312
62452;26313
62461;26311
62469;26310
62477;26313
62485;26311
62493;26310
62502;26314
62510;26312
62518;26311
62526;26312
62534;26310
62543;26312
62551;26310
62559;26315
62567;26315
62575;26312
62584;26313
62592;26311
62600;26315
62608;26313
62616;26313
62625;26314
62636;26314
62644;26312
62652;26314
62660;26310
62669;26313
62677;26316
62685;26314
62693;26313
62701;26311
62710;26313
62718;26310
62726;26309
62734;26312
62742;26308
62750;26312
62759;26314
62767;26312
62775;26310
62783;26311
62791;26313
62800;26315
62808;26314
62816;26314
62824;26312
62832;26314
62841;26313
62849;26314
62857;26316
62865;26314
62873;26315
62882;26313
62890;26314
62898;26314
62906;26312
62914;26311
62922;26312
62931;26312
62939;26311
62947;26311
62955;26310
62967;26314
62975;26312
62983;26311
62991;26310
62999;26310
63007;26311
63016;26309
63024;26313
63032;26311
63040;26315
63048;26310
63057;26314
63065;26315
63073;26315
63081;26312
63089;26313
63098;26314
63106;26318
63114;26315
63122;26317
63130;26312
63139;26316
63147;26313
63155;26316
63163;26316
63171;26319
63180;26317
63188;26316
63196;26316
63204;26314
63212;26316
63220;26315
63229;26314
63237;26314
63245;26313
63253;26313
63261;26315
63270;26316
63278;26310
63289;26314
63297;26317
63305;26312
63314;26312
63322;26311
63330;26310
63338;26310
63346;26310
63355;26313
63363;26314
63371;26315
63379;26314
63387;26308
63396;26309
63404;26313
63412;26318
63420;26317
63428;26316
63437;26316
63445;26315
63453;26312
63461;26313
63469;26312
63478;26312
63486;26310
63494;26311
63502;26313
63510;26310
63518;26315
63527;26307
63535;26309
63543;26313
63551;26314
63559;26314
63568;26315
63576;26315
63584;26316
63592;26314
63600;26314
63612;26313
63620;26314
63628;26314
63636;26314
63644;26317
63653;26315
63661;26309
63669;26311
63677;26311
63685;26309
63694;26312
63702;26314
63710;26312
63718;26315
63726;26318
63735;26316
63743;26316
63751;26314
63759;26313
63767;26314
63775;26313
63784;26314
63792;26314
63800;26313
63808;26313
63816;26306
63825;26311
63833;26313
63841;26314
63849;26312
63857;26312
63866;26313
63874;26312
63882;26310
63890;26314
63898;26311
63907;26313
63915;26307
63923;26312
63931;26310
63942;26313
63951;26313
63959;26313
63967;26310
63975;26313
63983;26308
63992;26310
64000;26311
64008;26314
64016;26311
64024;26313
64033;26313
64041;26311
64049;26312
64057;26310
64065;26304
64073;26309
64082;26304
64090;26306
64098;26311
64106;26311
64114;26308
64123;26306
64131;26308
64139;26308
64147;26312
64155;26312
64164;26310
64172;26310
64180;26312
64188;26311
64196;26312
64205;26313
64213;26312
64221;26311
64229;26310
64237;26310
64246;26313
64254;26316
64265;26313
64273;26316
64281;26311
64290;26309
64298;26309
64306;26309
64314;26314
64322;26316
64330;26312
64339;26317
64347;26320
64355;26316
64363;26318
64371;26314
64380;26312
64388;26312
64396;26313
64404;26311
64412;26314
64421;26316
64429;26316
64437;26316
64445;26318
64453;26317
64462;26316
64470;26317
64478;26317
64486;26319
64494;26320
64503;26317
64511;26316
64519;26315
64527;26315
64535;26314
64543;26317
64552;26317
64560;26314
64568;26316
64576;26313
64584;26309
64596;26314
64604;26314
64612;26312
64620;26312
64628;26313
64637;26313
64645;26317
64653;26315
64661;26318
64669;26303
64678;26314
64686;26089
64694;26315
64702;22061
64710;26319
64719;20123
64727;26319
64735;19033
64743;26315
64751;15696
64760;26161
64768;13066
64776;23280
64784;8096
64792;14644
64801;5491
64809;5683
64817;4486
64825;2122
64833;5723
64841;1084
64850;9815
64858;268
64866;9750
64874;9
64882;9124
64891;4
64899;8865
64907;3
64915;10902
64923;5
64934;5
64942;5
64950;4
64958;7
64966;5
64975;4
64983;4
64991;6
64999;3
65007;4
65016;3
65024;5
65032;2559
65039;4
65047;4870
65055;4
65064;3100
65072;5
65080;3098
65088;6
65096;10269
65105;5
65113;13077
65121;5
65129;11490
65137;4
65146;10188
65154;4
65162;6212
65170;4
65178;3745
65187;5
65195;1582
65202;5
65210;523
65218;6
65226;220
65235;6
65243;102
65251;3
65259;23
65267;5
65276;10
65284;5
65292;6
65300;4
65308;5
65317;21
65324;5
65332;6
65340;4
65348;7
65360;13
65368;7
65376;4
65384;3
65392;4
65401;6
65409;5
65416;4
65424;5
65432;6
65441;5
65449;7
65457;5
65465;10
65473;3
65481;15
65490;6
65498;57
65506;3
65514;428
65522;6
65530;1525
65538;4
65546;453
65554;4
65562;1182
65571;5
65579;2088
65587;3
65595;704
65603;4
65612;300
65620;6
65628;720
65636;4
65644;257
65652;5
65661;99
65668;5
65676;5
65684;3
65692;6
65701;4
65709;4
65717;4
65725;3
65733;6
65742;5
65750;4
65758;5
65766;3
65774;5
65782;5
65790;6
65801;6
65809;3
65817;4
65826;4
65834;5
65842;5
65850;5
65858;4
65866;7
65875;3
65882;6
65890;7
65898;5
65906;5
65915;4
65923;6
65931;6
65939;4
65947;6
65956;4
65964;4
65972;4
65980;4
65988;3
65996;7
66004;3
66012;4
66020;4
66028;4
66036;6
66045;4
66053;1
66061;7
66069;1
66077;6
66086;5
66094;3
66102;3
66110;3
66117;4
66126;7
66134;3
66142;5
66150;3
66158;6
66167;2
66175;5
66183;6
66191;4
66199;5
66207;4
66216;5
66224;5
66232;5
66239;5
66247;2
66256;6
66267;4
66275;4
66283;7
66291;4
66300;4
66308;5
66316;2
66324;4
66332;7
66340;4
66348;5
66356;5
66364;5
66372;4
66381;5
66389;4
66397;5
66405;6
66413;2
66422;2
66430;7
66438;4
66446;2
66453;7
66461;5
66470;7
66478;5
66486;5
66494;4
66502;5
66511;5
66519;2
66527;1
66535;4
66543;3
66552;5
66560;5
66568;5
66575;6
66583;2
66591;6
66600;6
66608;3
66616;8
66624;4
66632;4
66641;2
66649;3
66657;5
66665;7
66673;4
66682;5
66689;5
66697;5
66705;6
66713;6
66722;4
66733;5
66741;5
66749;3
66757;3
66766;7
66774;5
66781;7
66789;6
66797;7
66806;6
66814;5
66822;4
66830;4
66838;7
66846;2
66855;5
66863;5
66871;4
66879;3
66887;4
66895;4
66903;5
66911;4
66919;4
66927;7
66936;4
66944;4
66952;7
66960;4
66968;5
66977;6
66985;5
66993;6
67001;5
67009;4
67016;4
67025;5
67033;5
67041;3
67049;3
67057;5
67066;6
67074;3
67082;4
67090;4
67098;3
67107;5
67115;4
67123;5
67130;5
67138;2
67146;6
67155;4
67163;5
67171;4
67179;0
67191;4
67199;6
67207;4
67215;5
67223;6
67230;4
67239;2
67247;4
67255;5
67263;3
67271;6
67280;3
67288;4
67296;7
67304;5
67312;7
67321;4
67329;5
67337;5
67344;3
67352;5
67361;5
67369;4
67377;5
67385;3
67393;5
67401;3
67410;5
67418;4
67426;5
67434;4
67442;5
67451;5
67459;5
67466;7
67474;7
67482;5
67491;5
67499;7
67507;4
67515;4
67523;6
67532;4
67540;4
67548;5
67556;3
67564;6
67572;5
67580;5
67588;5
67596;6
67604;6
67612;1
67621;5
67629;6
67637;5
67645;3
67656;3
67665;6
67673;4
67680;4
67688;2
67696;6
67705;4
67713;3
67721;7
67729;3
67737;6
67746;2
67754;3
67762;4
67770;7
67778;6
67786;5
67794;4
67802;1
67810;5
67818;5
67826;3
67835;9
67843;6
67851;4
67859;4
67867;6
67876;4
67884;5
67892;5
67900;3
67907;4
67916;3
67924;4
67932;5
67940;7
67948;6
67956;4
67965;4
67973;5
67981;7
67989;6
67997;4
68006;8
68014;3
68022;3
68029;6
68037;4
68046;5
68054;3
68062;2
68070;3
68078;5
68087;4
68095;5
68103;5
68111;4
68122;3
68130;3
68138;5
68146;8
68154;4
68162;3
68170;6
68179;5
68187;4
68195;4
68203;5
68211;6
68220;6
68228;5
68236;4
68244;4
68251;4
68260;8
68268;4
68276;4
68284;5
68292;6
68301;3
68309;3
68317;15928
68325;26314
68333;26309
68342;26094
68350;17385
68358;13244
68366;12705
68374;12763
68382;12825
68391;12873
68399;12910
68407;12944
68415;12978
68423;12983
68432;12994
68440;13014
68448;13020
68456;13020
68464;13042
68473;13078
68481;13129
68489;13107
68497;4123
68508;5
68517;6
68525;4
68532;3
68540;6
68548;5
68557;11
68565;8255
68573;12607
68581;13126
68589;13134
68598;13150
68606;13163
68614;13170
68622;13182
68630;13194
68638;13206
68647;13212
68655;13221
68663;13225
68671;13232
68679;11668
68688;68
68696;5
68704;6
68712;3
68720;4
68729;4
68737;4
68745;4
68753;5
68761;6
68770;4
68777;6
68785;5
68793;6
68801;4131
68809;11622
68818;13074
68826;13176
68834;13197
68842;13216
68850;13235
68859;13242
68867;13256
68875;13261
68886;13270
68894;13271
68903;13278
68911;11755
68919;3540
68927;6
68935;5
68944;6
68952;5
68960;3
68968;5
68976;4
68985;4
68993;6
69000;3
69008;4
69016;5
69025;5
69033;9
69041;4
69049;4
69057;5
69065;4
69074;4
69082;2
69090;6
69098;6
69106;4
69114;4
69122;6
69130;5
69138;7
69146;6
69155;5
69163;4
69171;5
69179;3
69187;4
69196;5
69204;2
69212;5
69220;5
69228;4
69235;7
69244;3
69252;5
69260;4
69268;6
69276;1
69285;1
69293;4
69301;6
69309;3
69317;3
69326;8
69336;3
69344;6
69352;6
69360;4
69369;6
69377;7
69385;4
69393;3
69401;2
69410;4
69418;4
69426;3
69434;5
69442;5
69449;5
69458;5
69466;3
69474;6
69482;5
69490;2
69499;5
69507;4
69515;3
69523;7670
69531;26303
69540;26314
69548;26319
69556;26314
69564;26315
69572;26318
69581;26315
69589;26315
69597;26312
69605;26313
69613;26314
69622;26298
69630;26139
69638;18178
69646;14024
69654;13536
69662;13489
69671;13478
69679;13420
69687;13446
69695;13442
69703;13474
69715;13403
69723;13411
69731;13402
69739;13428
69747;15102
69756;24866
69764;26269
69772;26307
69780;26306
69788;26310
69797;26311
69805;26310
69813;26311
69821;26310
69829;26308
69838;26309
69846;26308
69854;26304
69862;26308
69870;26308
69879;26309
69887;26312
69895;26309
69903;26312
69911;26312
69919;26311
69928;26311
69936;26312
69944;26311
69952;26311
69960;26312
69969;26310
69977;26312
69985;26317
69993;26309
70001;26313
70010;26313
70018;26312
70026;26313
70034;26311
70045;26313
70054;26310
70062;26316
70070;26313
70078;26315
70086;26312
70095;26311
70103;26311
70111;26312
70119;26310
70127;26311
70136;26313
70144;26310
70152;26312
70160;26312
70168;26313
70177;26307
70185;26309
70193;26309
70201;26314
70209;26318
70217;26311
70226;26316
70234;26311
70242;26312
70250;26311
70258;26313
70267;26313
70275;26313
70283;26315
70291;26315
70299;26311
70308;26312
70316;26312
70324;26313
70332;26313
70340;26312
70349;26311
70357;26313
70367;26315
70375;26315
70383;26315
70392;26316
70400;26313
70408;26315
70416;26313
70424;26314
70433;26312
70441;26312
70449;26314
70457;26315
70466;26313
70474;26313
70483;26312
70491;26314
70499;26314
70507;26312
70515;26313
70524;26312
70532;26314
70540;26314
70548;26314
70556;26314
70565;26313
70573;26311
70581;26311
70589;26312
70597;26311
70606;26312
70614;26311
70622;26314
70630;26309
70638;26314
70647;26310
70655;26312
70663;26311
70671;26310
70679;26310
70687;26308
70698;26310
70706;26306
70714;26307
70722;26308
70730;26312
70739;26309
70747;26310
70755;26307
70763;26305
70771;26309
70780;26305
70788;26302
70796;26295
70804;26289
70812;26267
70821;26247
70829;26231
70837;26235
70845;26230
70853;26239
70862;26211
70870;25313
70878;20929
70886;22040
70894;26249
70903;26281
70911;26299
70919;26307
70927;26312
70935;26307
70943;26310
70952;26310
70960;26314
70968;26314
70976;26308
70984;26308
70993;26312
71001;26309
71009;26308
71020;26306
71028;26308
71037;26311
71045;26307
71053;26306
71061;26312
71069;26307
71078;26307
71086;26313
71094;26308
71102;26314
71110;26311
71119;26312
71127;26308
71135;26313
71143;26310
71151;26311
71160;26311
71168;26306
71176;21511
71184;274
71192;4
71201;5
71209;6
71217;4
71225;4
71233;3
71241;2
71250;3
71258;6
71266;5
71274;4
71281;4
71290;6
71298;4
71306;6
71314;7
71322;5
71331;6
71339;13757
71347;5
71355;25897
71363;3
71372;26233
71380;4
71388;26303
71399;1319
71407;26312
71416;6341
71424;26309
71432;16620
71440;26312
71448;24734
71457;26306
71465;26296
71473;26307
71481;26302
71489;26302
71497;26306
71506;26307
71514;26305
71522;26310
71530;26310
71538;26305
71547;26305
71555;26308
71563;26308
71571;26312
71579;26246
71588;26308
71596;26309
71604;26307
71612;26243
71620;6
71629;5
71636;4
71644;3170
71652;11566
71660;13239
71668;13326
71677;13280
71685;13307
71693;13290
71701;13314
71709;13304
71718;13320
71729;13295
71737;13328
71745;13299
71753;13335
71762;13308
71770;13342
71778;12861
71786;8515
71794;2915
71803;4
71811;5
71819;3
71827;3
71835;2
71844;4
71852;4
71860;5
71867;5
71875;4
71884;3
71892;6
71900;3
71908;6
71916;4
71924;4
71933;5
71941;6
71949;3
71957;4
71965;4
71974;6
71982;4
71989;5
71997;3
72005;4
72014;2
72022;6
72030;5
72038;5
72046;4
72055;5
72063;4
72071;3
72079;3
72087;91
72095;2
72104;17898
72112;61
72119;26151
72127;14863
72135;26310
72144;25277
72155;26307
72163;26252
72171;26308
72179;26307
72188;26310
72196;26310
72204;26309
72212;26308
72220;26309
72229;26309
72237;26310
72245;26308
72253;26308
72261;26294
72270;26138
72278;18012
72286;13802
72294;13260
72302;13268
72311;13237
72319;13250
72327;13230
72335;13245
72343;13235
72351;13251
72360;13247
72368;13258
72376;13252
72384;13258
72392;13252
72401;13258
72409;13247
72417;5696
72425;5
72433;6
72442;5
72450;6
72458;3
72466;4
72474;5
72483;4
72494;4
72501;4
72509;5
72517;157
72526;9292
72534;12835
72542;13209
72550;13226
72558;13245
72567;13263
72575;13277
72583;13284
72591;13298
72599;13297
72607;13310
72616;13309
72624;13320
72632;12766
72640;11664
72648;7481
72657;5659
72665;315
72673;543
72681;3058
72689;17273
72698;26143
72706;26290
72714;26309
72722;26310
72730;26312
72739;26313
72747;26312
72755;26312
72763;26312
72771;26313
72780;26301
72788;6
72796;3
72804;5
72812;5
72820;5
72829;3
72837;3
72845;5
72855;5
72863;5
72872;5
72880;5
72888;7265
72896;4
72904;11759
72913;572
72921;4
72929;6
72937;4
72945;2
72954;6
72962;8
72970;8156
72978;12754
72986;13322
72995;13300
73003;13318
73011;13304
73019;13322
73027;13315
73036;13330
73044;13324
73052;13335
73060;13329
73068;13330
73076;13327
73085;13330
73093;13319
73101;10497
73109;8651
73117;1834
73126;14
73133;7
73141;6
73149;4
73157;5
73166;3
73174;4
73182;3
73190;6
73198;7
73207;5
73215;6
73223;4
73231;4
73241;4
73250;4
73258;4
73266;5
73274;2
73282;6
73290;6
73299;6
73307;5
73315;5
73323;3
73331;7
73340;6
73347;6
73355;4
73363;5
73371;4
73380;3
73388;2007
73396;26229
73404;4
73412;6
73421;4
73429;2
73437;4
73445;6
73453;4
73462;2
73470;28
73477;5
73485;4363
73493;7701
73501;24669
73510;25813
73518;26311
73526;26309
73534;26310
73542;26311
73551;26307
73559;26294
73567;26106
73575;17609
73583;13550
73592;13117
73600;13120
73608;13140
73616;13157
73624;13166
73633;13177
73644;13189
73652;13203
73660;13207
73668;13218
73677;13223
73685;13234
73693;13232
73701;5777
73709;5
73718;5
73726;7
73734;1
73742;6
73750;6
73758;5
73767;4
73775;5
73782;5
73790;5
73798;30
73807;8615
73815;12725
73823;13203
73831;13221
73839;13220
73848;13227
73856;13252
73864;13293
73872;13312
73880;13292
73889;13292
73897;13295
73905;13299
73913;12586
73921;6165
73929;9
73938;4
73946;6
73954;1
73962;4
73970;3
73979;6
73987;3
73995;4
74003;9
74011;5
74022;4
74030;4
74038;3
74046;5
74054;6
74063;7
74071;6
74079;3
74087;6
74095;5
74104;4
74112;5
74120;3
74127;4
74135;4
74143;7
74152;5
74160;6
74168;5
74176;5
74184;4
74193;7
74201;2
74209;5
74217;2
74225;4
74234;5
74241;4
74249;7
74257;3
74265;4
74274;4
74282;5
74290;4
74298;3
74306;4
74314;5
74323;5
74331;5
74339;5
74347;5
74355;5
74363;2
74371;4
74379;4
74387;5
74395;6
74404;5
74412;5
74420;0
74428;5
74436;5
74445;2
74453;5
74461;6
74469;3
74476;6
74488;4
74496;5
74504;6
74512;5
74520;4
74529;5
74537;7
74545;4
74553;2
74561;5
74569;4
74577;5
74585;3
74593;5
74601;6
74609;5
74618;4
74626;6
74634;5
74642;6
74650;4
74659;6
74667;4
74675;4
74683;3
74691;5
74698;5
74707;234
74715;3172
74723;5110
74731;6389
74739;7814
74748;8858
74756;10042
74764;11009
74772;12162
74780;12930
74789;14089
74797;14777
74805;15791
74813;16542
74821;17561
74830;18277
74838;19114
74846;19727
74854;20566
74862;21233
74871;22049
74882;23094
74890;23961
74898;24542
74906;25392
74915;25876
74923;26076
74931;26128
74939;26174
74947;26200
74956;26222
74964;26233
74972;26244
74980;26252
74988;26261
74996;26263
75005;26271
75013;26274
75021;26278
75029;26281
75037;26286
75046;26287
75054;26288
75062;26291
75070;26289
75078;26294
75087;26289
75095;26277
75103;26240
75111;26211
75119;26269
75128;26282
75136;26295
75144;26298
75152;26303
75160;26299
75169;26302
75177;26304
75185;26304
75193;26303
75201;26301
75213;26302
75221;26302
75229;26303
75237;26303
75245;26304
75254;26299
75262;26299
75270;26295
75278;26296
75286;26297
75294;26298
75303;26298
75311;26305
75319;26304
75327;26305
75335;26303
75344;26306
75352;26304
75360;26306
75368;26301
75376;26304
75385;26301
75393;26295
75401;26293
75409;26291
75417;26291
75426;26292
75434;26287
75442;26290
75450;26289
75458;26288
75466;26288
75475;26288
75483;26288
75491;26286
75499;26288
75507;26288
75516;26288
75524;26290
75535;26295
75543;26293
75551;26294
75560;26292
75568;26295
75576;26290
75584;26293
75592;26291
75601;26291
75609;26291
75617;26289
75625;26288
75633;26283
75642;26280
75650;26273
75658;26270
75666;26259
75674;26252
75683;26243
75691;26233
75699;26218
75707;26207
75715;26189
75724;26162
75732;26117
75740;26048
75748;25809
75756;25950
75764;23639
75773;18028
75781;13680
75789;15353
75797;22882
75805;24800
75814;24229
75822;23689
75830;23085
75838;22590
75846;21999
75855;21810
75866;21357
75874;21181
75882;20805
75890;20724
75899;20431
75907;20200
75915;19799
75923;19658
75931;19120
75940;18934
75948;18717
75956;18525
75964;18202
75972;17962
75981;17597
75989;17597
75997;17464
76005;17574
76013;17440
76022;17550
76030;17575
76038;17996
76046;18169
76054;18512
76062;18622
76071;18578
76079;18246
76087;18215
76095;18014
76103;18033
76112;17810
76120;17806
76128;17649
76136;17544
76144;17348
76153;17400
76161;17287
76169;17399
76177;17343
76188;17534
76197;17478
76205;17688
76213;17604
76221;17708
76229;17463
76238;17428
76246;17240
76254;17223
76262;16889
76270;16967
76279;16691
76287;16484
76295;15964
76303;15726
76311;15366
76319;15234
76328;14928
76336;14894
76344;14738
76352;14700
76360;14518
76369;14375
76377;14187
76385;14291
76393;14343
76401;14457
76410;14509
76418;14872
76426;15353
76434;12824
76442;8262
76451;5875
76459;9438
76467;16032
76475;16460
76483;15892
76492;15195
76500;14308
76508;13783
76519;13694
76527;13820
76536;13834
76544;13545
76552;13362
76560;13298
76568;13349
76577;13333
76585;13346
76593;13465
76601;13631
76609;13697
76617;13651
76626;13964
76634;14326
76642;14716
76650;14732
76658;14795
76667;14710
76675;14684
76683;14570
76691;14699
76699;14794
76708;15076
76716;15189
76724;15410
76732;15417
76740;15601
76749;15451
76757;15685
76765;15848
76773;16238
76781;16271
76790;16291
76798;16212
76806;16426
76814;16232
76822;16003
76830;15533
76842;15360
76850;15159
76858;14935
76866;14668
76874;14524
76883;14277
76891;14082
76899;13657
76907;13386
76915;13055
76924;12931
76932;12582
76940;12471
76948;12158
76956;12022
76965;11708
76973;11530
76981;11115
76989;10988
76997;10625
77006;10578
77014;10276
77022;10212
77030;9838
77038;10127
77047;9827
77055;6787
77063;2566
77071;1392
77079;6928
77087;12845
77096;13192
77104;13408
77112;13214
77120;13377
77128;13711
77137;14079
77145;14241
77153;14447
77161;14424
77172;14756
77181;14714
77189;15164
77197;15313
77205;15523
77213;15620
77222;16156
77230;16242
77238;16388
77246;16099
77254;16015
77263;15775
77271;15998
77279;16125
77287;16321
77295;16094
77304;15859
77312;15332
77320;14875
77328;14364
77336;14008
77345;13452
77353;13175
77361;13301
77369;13856
77377;14213
77385;14676
77394;14962
77402;15039
77410;15041
77418;15129
77426;15264
77435;15381
77443;15653
77451;15885
77459;16121
77467;16075
77476;15920
77484;15850
77495;15769
77503;15743
77511;15444
77520;15435
77528;15304
77536;15287
77544;15260
77552;15262
77561;15018
77569;15015
77577;15271
77585;15707
77593;16124
77602;16596
77610;17220
77618;17420
77626;17589
77634;17661
77642;17778
77651;17862
77659;18593
77667;18559
77675;15615
77683;11581
77692;10292
77700;15355
77708;19750
77716;19454
77724;18770
77733;17710
77741;16919
77749;16114
77757;15796
77765;15536
77774;15691
77782;15627
77790;15816
77798;15728
77806;15826
77815;15649
77826;15659
77834;15638
77842;15596
77850;15284
77859;14966
77867;14494
77875;14218
77883;13886
77891;13821
77900;13752
77908;14005
77916;14008
77924;14267
77932;14409
77940;14831
77949;15077
77957;15579
77965;15868
77973;16369
77981;16466
77990;16740
77998;16807
78006;17090
78014;17108
78022;17281
78031;17006
78039;16954
78047;16672
78055;16342
78063;15106
78072;14688
78080;14385
78088;14301
78096;14088
78104;14195
78113;14073
78121;14003
78129;13688
78137;13526
78148;13283
78157;13095
78165;12502
78173;12435
78181;12228
78189;12464
78198;12664
78206;13172
78214;13498
78222;14066
78230;14395
78238;14868
78247;14898
78255;15020
78263;14797
78271;14672
78279;14320
78288;14987
78296;13707
78304;9581
78312;5946
78320;6173
78329;12768
78337;15537
78345;15519
78353;15221
78361;14810
78370;14433
78378;13645
78386;13188
78394;13332
78402;13660
78410;13761
78419;13765
78427;13714
78435;13424
78443;12900
78451;12171
78460;11755
78468;11394
78478;12198
78486;11715
78494;11628
78503;12747
78511;13508
78519;14261
78527;14856
78535;15330
78544;15501
78552;15777
78560;16097
78568;16383
78576;16460
78585;16493
78593;16392
78601;16031
78609;15548
78617;15048
78626;14211
78634;13111
78642;12041
78650;11363
78658;11249
78666;11419
78675;11725
78683;11799
78691;12061
78699;12177
78707;12510
78716;12738
78724;13083
78732;13318
78740;13986
78748;14596
78757;15544
78765;16245
78773;17239
78781;17972
78789;18653
78801;19256
78809;19492
78817;19414
78825;19440
78833;19323
78842;18767
78850;18240
78858;18033
78866;17371
78874;16836
78883;16124
78891;15731
78899;15231
78907;14971
78915;14462
78924;14232
78932;14516
78940;13545
78948;9194
78956;5109
78964;4581
78973;10879
78981;14225
78989;14401
78997;13650
79005;13319
79014;12759
79022;12424
79030;12068
79038;12233
79046;12252
79055;12431
79063;12801
79071;13588
79079;13945
79087;14520
79096;14713
79104;14829
79112;14272
79120;13224
79131;12111
79140;11559
79148;10790
79156;10435
79164;10108
79172;10176
79181;9965
79189;9861
79197;9403
79205;9048
79213;8440
79222;7997
79230;7624
79238;7629
79246;7306
79254;7334
79262;7406
79271;7755
79279;8097
79287;8888
79295;9630
79303;10328
79312;10633
79320;10986
79328;11283
79336;11571
79344;11620
79353;11751
79361;11714
79369;11903
79377;12270
79385;12518
79394;12560
79402;12697
79410;12968
79418;13108
79426;13341
79434;13555
79443;13743
79451;13762
79461;13943
79469;14133
79478;14166
79486;14266
79494;14317
79502;14484
79510;14580
79518;14885
79527;14976
79535;15145
79543;15176
79552;15336
79560;15515
79569;15773
79577;16098
79585;16778
79593;17896
79601;16278
79610;12563
79618;10516
79626;13592
79634;20940
79642;23072
79651;23397
79659;22649
79667;21432
79675;20314
79683;19041
79692;17939
79700;16480
79708;15646
79716;14792
79724;13984
79732;13290
79741;13096
79749;12976
79757;13383
79765;13372
79773;13496
79784;13391
79792;13362
79800;13152
79808;13011
79816;12887
79825;13053
79833;13243
79841;13618
79849;13903
79857;14399
79866;14740
79874;15310
79882;15599
79890;15976
79898;16088
79907;16032
79915;15346
79923;14766
79931;14230
79939;14222
79948;14187
79956;14600
79964;14904
79972;15367
79980;15406
79988;15529
79997;15256
80005;15232
80013;15043
80021;15086
80029;14905
80038;14995
80046;14713
80054;14715
80062;14479
80070;14555
80079;14324
80087;14298
80095;13903
80103;13729
80114;13418
80123;13446
80131;13246
80139;13412
80147;13432
80155;13578
80164;13435
80172;13389
80180;13243
80188;13557
80196;13535
80205;13681
80213;13507
80221;13592
80229;14135
80237;13607
80246;9797
80254;6612
80262;6355
80270;13250
80278;16312
80286;16205
80295;15680
80303;15265
80311;14748
80319;14493
80327;14117
80336;14062
80344;13968
80352;13962
80360;13826
80368;13812
80377;13606
80385;13552
80393;13482
80401;13402
80409;13303
80418;13050
80426;12738
80437;12595
80445;12298
80453;12148
80462;11856
80470;11888
80478;11845
80486;12118
80494;12356
80503;12840
80511;13294
80519;13804
80527;13850
80535;14032
80543;14196
80552;14311
80560;14286
80568;14386
80576;14421
80584;14440
80593;14412
80601;14401
80609;14400
80617;14367
80625;14368
80634;14275
80642;14227
80650;14191
80658;14179
80666;14144
80675;14221
80683;14150
80691;14298
80699;14465
80707;14866
80716;15162
80724;15593
80732;15799
80740;16172
80748;16455
80756;16902
80768;17418
80776;17379
80784;16668
80792;15984
80801;15545
80809;15388
80817;15208
80825;15167
80833;15264
80841;15550
80850;15802
80858;15985
80866;15886
80874;15703
80882;15393
80891;15278
80899;14981
80907;14802
80915;14995
80923;14787
80932;11179
80940;6295
80948;4186
80956;8524
80964;13872
80973;14548
80981;14084
80989;13738
80997;13408
81005;13286
81014;13015
81022;13004
81030;12725
81038;12724
81046;12631
81054;12860
81063;12777
81071;13030
81079;12960
81090;12939
81098;12834
81107;12928
81115;12799
81123;12774
81131;12358
81139;12016
81148;11458
81156;11262
81164;10962
81172;10968
81180;10722
81189;10791
81197;10812
81205;11193
81213;11329
81221;11638
81230;11590
81238;11515
81246;11160
81254;10921
81262;11251
81271;11967
81279;12135
81287;12369
81295;12220
81303;12325
81311;12138
81320;12146
81328;12117
81336;12448
81344;12616
81352;13067
81361;13325
81369;13778
81377;14029
81385;14396
81393;14562
81402;14907
81410;15031
81421;15457
81429;15496
81437;15736
81446;15649
81454;15800
81462;15555
81470;15583
81478;15358
81487;15482
81495;15541
81503;15708
81511;15585
81519;15485
81528;15108
81536;15102
81544;15076
81552;15273
81560;15467
81569;15802
81577;15928
81585;16673
81593;14731
81601;10011
81609;6860
81618;9078
81626;16471
81634;18328
81642;18000
81650;17469
81659;17324
81667;17141
81675;16971
81683;16919
81691;17071
81700;17023
81708;17000
81716;16896
81724;16830
81732;16692
81744;16725
81752;16901
81760;16879
81768;16931
81776;16745
81785;16585
81793;16179
81801;15865
81809;15462
81817;15262
81826;15141
81834;15155
81842;15231
81850;15442
81858;15840
81866;16200
81875;16498
81883;16712
81891;16924
81899;16935
81907;16935
81916;16824
81924;16808
81932;16667
81940;16571
81948;16242
81957;16082
81965;15716
81973;15467
81981;15044
81989;14927
81998;14749
82006;14821
82014;14661
82022;14769
82030;14763
82039;14954
82047;14826
82055;14885
82063;14674
82074;14716
82083;14582
82091;14461
82099;14307
82107;14179
82115;13882
82124;13710
82132;13191
82140;12959
82148;12732
82156;12703
82164;12586
82173;12704
82181;12621
82189;12672
82197;12466
82205;12513
82214;12322
82222;12410
82230;12188
82238;12114
82246;11753
82255;12314
82263;11435
82271;7735
82279;3245
82287;3329
82296;9972
82304;14400
82312;14325
82320;13665
82328;12975
82337;12505
82345;11682
82353;11436
82361;11343
82369;11436
82377;11363
82386;11502
82397;11504
82405;11717
82413;11652
82422;11893
82430;11839
82438;12078
82446;12079
82454;12272
82462;12134
82471;12198
82479;12017
82487;12205
82495;12234
82503;12504
82512;12597
82520;12944
82528;13164
82536;13650
82544;13883
82553;14273
82561;14509
82569;14794
82577;14958
82585;15340
82594;15540
82602;15656
82610;15491
82618;15469
82626;15424
82634;15516
82643;15470
82651;15657
82659;15742
82667;16011
82675;16222
82684;16427
82692;16490
82700;16523
82708;16541
82716;16524
82736;17108
82744;17239
82752;17337
82760;17393
82769;17488
82777;17429
82785;17344
82793;17192
82801;17170
82810;17051
82818;17044
82826;16988
82834;16922
82842;16831
82851;17035
82859;17184
82867;17354
82875;17277
82883;17142
82892;17034
82900;16802
82908;16577
82916;16390
82924;16902
82932;14530
82941;9279
82949;5514
82957;8260
82965;15563
82973;16719
82982;16089
82990;15533
82998;15185
83006;14901
83014;14492
83023;14321
83031;13977
83039;13819
83047;13444
83058;13317
83067;13175
83075;12987
83083;12672
83091;12431
83099;12116
83108;11887
83116;11617
83124;11410
83132;11069
83140;10833
83149;10514
83157;10463
83165;10439
83173;10653
83181;10720
83190;10982
83198;11054
83206;11379
83214;11578
83222;11907
83230;11849
83239;11976
83247;11745
83255;11725
83263;11501
83271;11544
83280;11367
83288;11396
83296;11225
83304;11334
83312;11184
83321;11322
83329;11323
83337;11530
83345;11522
83353;11783
83362;11682
83370;11867
83378;11830
83388;12209
83396;12287
83405;12546
83413;12452
83421;12615
83429;12457
83437;12485
83446;12335
83454;12453
83462;12401
83470;12579
83478;12570
83486;12889
83495;12994
83503;13373
83511;13388
83519;13570
83527;13564
83536;13763
83544;13718
83552;13839
83560;13742
83568;13842
83578;14858
83586;13302
83594;7673
83601;3386
83609;5097
83618;13642
83626;15762
83634;15667
83642;15238
83650;15057
83658;14747
83667;14464
83675;14287
83683;14211
83691;14075
83699;13906
83711;13532
83719;13203
83727;12909
83735;13178
83743;13541
83752;13541
83760;13321
83768;13374
83776;13099
83784;13009
83793;12772
83801;12679
83809;12693
83817;12992
83825;13221
83834;13697
83842;14202
83850;14753
83858;15229
83866;15658
83875;16054
83883;16302
83891;16515
83899;16615
83907;16687
83916;16708
83924;16705
83932;16604
83940;16638
83948;16522
83956;16507
83965;16398
83973;16407
83981;16289
83989;16337
83997;16246
84006;16359
84014;16310
84022;16390
84030;16290
84041;16314
84050;16362
84058;16245
84066;16053
84074;15793
84082;15596
84091;15463
84099;15341
84107;15266
84115;15216
84123;15308
84132;15342
84140;15483
84148;15411
84156;15537
84164;15499
84173;15640
84181;15551
84189;15356
84197;14685
84205;14187
84214;14249
84222;11624
84230;5939
84238;2437
84246;4938
84254;12216
84263;12819
84271;12300
84279;11601
84287;11460
84295;11068
84304;11264
84312;11326
84320;11322
84328;11071
84336;11280
84345;11754
84353;12270
84364;11474
84372;11802
84380;12510
84389;13943
84397;15105
84405;15932
84413;16063
84421;15850
84430;15244
84438;14735
84446;13922
84454;13524
84462;13197
84471;13503
84479;13828
84487;14717
84495;15510
84503;16552
84511;17072
84520;17737
84528;17889
84536;18191
84544;18255
84552;18396
84561;18080
84569;17970
84577;17722
84585;17822
84593;17868
84602;18025
84610;18100
84618;18337
84626;18317
84634;18426
84643;18310
84651;18296
84659;18131
84667;18022
84675;17806
84684;17650
84695;17121
84703;16887
84711;16402
84719;16313
84728;16054
84736;16114
84744;15896
84752;15971
84760;15778
84769;15824
84777;15695
84785;15805
84793;15662
84801;15667
84809;15531
84818;15498
84826;15295
84834;16057
84842;15206
84850;11076
84859;6452
84867;6327
84875;13753
84883;16954
84891;16764
84900;16263
84908;15987
84916;15648
84924;15427
84932;15222
84941;15033
84949;14905
84957;14880
84965;14912
84973;14951
84982;14869
84990;14897
84998;14785
85006;14584
85017;14190
85026;14037
85034;13983
85042;13747
85050;13528
85058;13273
85066;13264
85075;13278
85083;13488
85091;13735
85099;14111
85107;14581
85116;15017
85124;15303
85132;15417
85140;16004
85148;16834
85157;16942
85165;16218
85173;16188
85181;16224
85189;16079
85198;15611
85206;15207
85214;14785
85222;14574
85230;14167
85239;13940
85247;13596
85255;13439
85263;13054
85271;12839
85279;12402
85288;12064
85296;11484
85304;10979
85312;10291
85320;10020
85329;9706
85337;9695
85348;9769
85356;9999
85364;10252
85373;10702
85381;10924
85389;11288
85397;11477
85405;11714
85414;11696
85422;11879
85430;11889
85438;12061
85446;12035
85455;12584
85463;13046
85471;10553
85479;5533
85487;3049
85496;7431
85504;14381
85512;15174
85520;15153
85528;14768
85537;14713
85545;14309
85553;14319
85561;14240
85569;14303
85577;14197
85586;14544
85594;14581
85602;14761
85610;14774
85618;14866
85627;14688
85635;14665
85643;14466
85651;14338
85659;14068
85668;13972
85679;13839
85687;14063
85695;14042
85703;14305
85712;14274
85720;14543
85728;14619
85736;14944
85744;15015
85753;15262
85761;15206
85769;15404
85777;15301
85785;15360
85794;15230
85802;15297
85810;15199
85818;15379
85826;15509
85834;15795
85843;15861
85851;15947
85859;16005
85867;16180
85875;16199
85884;16192
85892;16115
85900;16103
85908;16001
85916;15884
85925;15688
85933;15490
85941;15254
85949;15020
85957;14831
85966;14653
85974;14540
85982;14436
85990;14457
86001;14623
86010;14631
86018;14682
86026;14471
86034;14398
86042;14253
86051;14316
86059;14266
86067;14313
86075;14703
86083;14827
86092;11513
86100;6639
86108;4631
86116;10174
86124;16028
86132;16320
86141;15956
86149;15466
86157;15139
86165;14716
86173;14485
86182;14280
86190;14235
86198;14114
86206;14230
86214;14239
86223;14385
86231;14358
86239;14466
86247;14333
86255;14304
86264;14097
86272;13966
86280;13584
86288;13390
86296;13013
86305;12882
86313;12647
86321;12760
86331;12831
86339;13086
86348;13339
86356;13758
86364;14051
86372;14430
86380;14639
86388;14814
86398;14761
86406;14815
86414;14693
86422;14731
86430;14566
86439;14619
86447;14462
86455;14528
86463;14398
86471;14445
86480;14253
86488;14331
86496;14173
86504;14334
86512;14292
86521;14461
86529;14234
86537;14288
86545;14032
86553;14128
86562;13981
86570;14043
86578;13943
86586;14090
86594;14074
86602;14152
86611;14174
86619;14397
86627;14307
86635;14417
86643;14314
86654;14588
86662;14611
86670;14691
86678;14570
86686;15592
86695;13981
86703;9273
86711;5646
86719;6934
86727;14709
86736;16763
86744;16398
86752;16059
86760;15560
86768;15320
86777;14825
86785;14762
86793;14585
86801;14697
86809;14427
86818;14481
86826;14325
86834;14381
86842;14195
86850;14087
86858;13872
86867;13764
86875;13405
86883;13285
86891;13006
86899;12759
86908;12553
86916;12567
86924;12647
86932;12778
86940;12937
86949;13171
86957;13454
86965;13795
86973;14145
86984;14560
86993;14610
87001;14735
87009;14583
87017;14579
87025;14357
87034;14262
87042;14050
87050;13974
87058;13833
87066;13830
87075;13776
87083;13811
87091;13742
87099;13723
87107;13749
87116;13835
87124;13939
87132;14153
87140;14290
87148;14375
87156;14363
87165;14289
87173;14202
87181;14012
87189;13936
87197;13762
87206;13813
87214;13795
87222;13984
87230;13999
87238;14118
87247;14139
87255;14255
87263;14295
87271;14419
87279;14292
87288;14277
87296;14151
87307;14774
87315;12113
87323;7516
87332;5366
87340;9723
87348;15865
87356;16524
87364;16174
87373;15707
87381;15277
87389;14945
87397;14586
87405;14423
87414;14197
87422;14126
87430;13960
87438;14012
87446;13813
87454;13914
87463;13886
87471;14023
87479;13835
87487;13759
87495;13452
87504;13348
87512;13050
87520;13047
87528;12924
87536;13162
87545;13204
87553;13563
87561;13723
87569;14111
87577;14353
87586;14852
87594;15067
87602;15444
87610;15532
87618;15855
87626;15934
87638;16263
87646;16247
87654;16251
87662;16071
87671;16121
87679;15941
87687;15913
87695;15599
87703;15634
87711;15512
87720;15490
87728;15300
87736;15299
87744;15127
87752;15139
87761;14857
87769;14887
87777;14694
87785;14680
87793;14472
87802;14453
87810;14275
87818;14409
87826;14322
87834;14523
87843;14544
87851;14883
87859;14995
87867;15289
87875;15270
87884;15372
87892;15260
87900;15247
87908;15147
87916;15151
87924;14936
87933;15093
87941;15647
87949;13268
87960;6587
87969;5374
87977;11445
87985;16542
87993;16793
88001;16520
88009;16096
88018;15927
88026;15456
88034;15376
88042;15161
88050;15096
88059;14892
88067;14868
88075;14701
88083;14681
88091;14491
88100;14435
88108;14154
88116;13999
88124;13737
88132;13570
88141;13365
88149;13223
88157;13025
88165;12958
88173;12966
88182;12970
88190;13034
88198;13123
88206;13319
88214;13681
88222;14081
88231;14288
88239;14129
88247;14166
88255;14461
88263;14607
88272;14727
88280;14688
88291;14564
88299;14535
88307;14337
88316;14195
88324;13873
88332;13723
88340;13555
88348;13390
88357;13235
88365;13241
88373;13204
88381;13272
88389;13354
88398;13427
88406;13549
88414;13662
88422;13748
88430;13725
88439;13690
88447;13630
88455;13641
88463;13602
88471;13636
88479;13662
88488;13800
88496;13826
88504;14106
88512;14141
88520;14315
88529;14373
88537;14506
88545;14519
88553;14633
88561;14569
88570;14648
88578;15131
88586;15408
88594;12147
88602;7447
88614;6364
88622;13673
88630;16632
88638;16645
88646;16053
88655;15557
88663;15127
88671;14782
88679;14483
88687;14265
88696;13976
88704;13743
88712;13355
88720;12999
88728;12653
88737;12763
88745;12698
88753;12737
88761;12490
88769;12258
88777;11996
88786;12003
88794;11892
88802;12071
88810;12097
88818;12359
88827;12391
88835;12692
88843;12835
88851;13321
88859;13767
88868;14416
88876;14694
88884;15073
88892;15276
88900;15618
88909;15668
88917;15852
88925;15805
88936;15945
88944;15746
88953;15553
88961;15223
88969;15244
88977;15109
88985;15222
88994;15084
89002;15070
89010;14811
89018;14833
89026;14706
89034;14871
89043;14822
89051;15012
89059;14782
89067;14677
89075;14484
89084;14551
89092;14430
89100;14696
89108;14658
89116;14742
89125;14554
89133;14583
89141;14405
89149;14221
89157;14559
89166;15817
89174;16503
89182;17189
89190;18084
89198;20063
89207;21614
89215;21747
89223;20637
89231;19493
89239;18341
89247;17785
89256;18049
89267;17925
89275;13765
89283;8749
89292;7193
89300;13367
89308;16286
89316;15908
89324;14824
89332;14230
89341;13618
89349;13180
89357;12697
89365;12312
89373;11785
89382;11459
89390;11294
89398;11330
89406;11185
89414;10941
89423;10733
89431;10530
89439;10552
89447;10876
89455;10928
89464;10488
89472;10062
89480;9723
89488;9598
89496;9846
89505;10528
89513;11043
89521;11608
89529;12047
89537;13096
89545;15731
89554;19565
89562;22869
89570;25267
89578;25552
89586;24334
89597;22140
89605;20519
89613;19008
89621;17864
89629;16748
89638;15807
89646;14902
89654;14170
89662;13454
89670;12891
89679;12303
89687;11579
89695;10645
89703;9614
89711;8421
89720;7474
89728;6647
89736;6275
89744;5894
89752;5866
89761;5692
89769;5853
89777;5945
89785;6243
89793;6227
89801;6438
89810;6480
89818;6723
89826;6667
89834;6881
89842;6898
89851;7099
89859;7191
89867;7280
89875;7060
89883;6992
89892;6539
89900;6227
89908;5624
89915;5325
89923;5453
89935;6474
89943;3542
89951;20
89959;13
89967;7772
89976;14659
89984;16205
89992;16642
90000;17652
90008;18469
90017;19132
90025;19731
90033;20418
90041;20679
90049;21037
90057;21009
90066;21095
90074;21081
90082;21160
90090;21166
90098;21301
90107;21018
90115;21051
90123;20717
90131;20338
90139;19767
90148;19321
90156;18929
90164;18819
90172;18838
90180;19011
90189;19377
90197;19794
90205;20183
90213;20658
90221;21299
90230;21783
90238;22177
90246;22285
90254;22402
90265;22859
90274;23072
90282;23048
90290;22887
90298;22874
90306;22939
90314;23200
90323;23304
90331;23411
90339;23549
90347;23395
90355;23261
90364;23091
90372;22698
90380;22435
90388;22397
90396;22125
90405;21862
90413;21598
90421;21335
90429;20765
90437;20353
90446;19894
90454;19577
90462;19138
90470;18930
90478;18563
90487;18247
90495;17651
90503;17143
90511;16580
90519;16183
90527;15624
90536;15373
90544;14919
90552;14769
90560;14834
90568;15582
90577;12098
90585;6040
90596;2908
90604;11168
90612;15858
90621;15802
90629;15304
90637;15028
90645;14670
90653;14387
90662;14223
90670;14196
90678;14024
90686;14063
90694;13730
90703;13698
90711;13313
90719;13214
90727;12989
90735;12892
90744;12430
90752;12217
90760;11725
90768;11488
90776;11019
90785;10723
90793;10218
90801;10106
90809;9893
90816;10021
90824;9914
90833;10061
90841;10177
90849;10486
90857;10449
90865;10387
90874;10087
90882;10156
90890;9964
90898;9925
90906;9910
90915;10069
90926;10326
90934;10688
90942;10871
90950;11159
90959;11054
90967;11082
90975;10844
90983;10849
90991;10764
91000;10956
91008;10774
91016;10697
91024;10551
91032;10673
91041;10642
91049;10595
91057;10439
91065;10392
91073;9933
91081;9634
91090;9459
91098;9471
91106;9499
91114;9593
91122;9708
91131;9906
91139;10008
91147;9946
91155;9936
91163;9833
91172;9642
91180;9697
91188;9665
91196;9977
91204;11385
91213;8446
91221;1910
91229;7
91237;149
91245;8796
91252;11663
91264;11876
91272;11721
91280;11637
91288;11313
91297;11248
91305;11266
91313;11600
91321;12061
91329;12437
91337;12648
91346;12884
91354;13261
91362;13592
91370;13757
91378;13661
91387;13860
91395;14427
91403;14644
91411;14622
91419;14539
91428;14353
91436;14282
91444;14056
91452;13991
91460;13964
91469;14367
91477;14729
91485;15529
91493;16140
91501;16873
91510;17340
91518;17847
91526;18043
91534;18383
91542;18405
91550;18608
91559;18565
91567;18652
91575;18503
91586;18575
91594;18544
91603;18533
91611;18455
91619;18565
91627;18469
91635;18516
91644;18469
91652;18566
91660;18433
91668;18399
91676;18118
91685;17831
91693;17375
91701;17335
91709;17145
91717;17292
91726;17105
91734;16955
91742;16694
91750;16422
91758;15806
91767;15435
91775;15209
91783;15329
91791;15356
91799;15471
91807;15337
91816;15267
91824;16470
91832;15065
91840;8765
91848;2229
91857;2475
91865;12332
91873;15166
91881;15039
91889;14799
91898;14725
91906;14434
91917;14305
91925;14136
91933;14261
91942;14135
91950;14187
91958;13983
91966;14087
91974;13906
91983;13851
91991;13467
91999;13179
92007;12226
92015;11482
92024;11747
92032;11800
92040;11460
92048;11379
92056;11427
92065;11781
92073;11997
92081;12335
92089;12640
92097;13339
92105;13887
92114;14475
92122;15060
92130;15534
92138;15858
92146;16047
92155;16158
92163;16347
92171;16356
92179;16340
92187;16311
92196;16253
92204;16067
92212;15834
92220;15622
92228;15384
92240;15209
92248;15088
92256;14776
92264;14578
92272;14269
92281;14164
92289;13992
92297;13986
92305;13677
92313;13492
92322;13402
92330;13322
92338;13317
92346;13474
92354;13633
92362;13790
92371;13937
92379;13942
92387;14031
92395;13912
92403;13898
92412;13827
92420;13842
92428;13641
92436;14150
92444;15017
92453;11858
92461;5268
92469;485
92477;5159
92485;13296
92494;13814
92502;13701
92510;13624
92518;13918
92526;13801
92535;13902
92543;13795
92551;13950
92559;13831
92570;13957
92579;13948
92587;13945
92595;13786
92603;13753
92611;13570
92620;13524
92628;13265
92636;13100
92644;12738
92652;12535
92660;12220
92669;12206
92677;12160
92685;12321
92693;12338
92701;12531
92710;12614
92718;13056
92726;13289
92734;13770
92742;13845
92751;14097
92759;14075
92767;14262
92775;14189
92783;14422
92792;14399
92800;14561
92808;14457
92816;14533
92824;14338
92833;14379
92841;14334
92849;14574
92857;14583
92865;14838
92873;14805
92882;15125
92893;15465
92901;15723
92909;15607
92918;15596
92926;15425
92934;15522
92942;15268
92950;15316
92958;14999
92967;15280
92975;15460
92983;15751
92991;15778
92999;15804
93008;15749
93016;15975
93024;15873
93032;15934
93040;15855
93049;17179
93057;16840
93065;12439
93073;6148
93081;4656
93090;13122
93098;17567
93106;17164
93114;17028
93122;16790
93130;16708
93139;16318
93147;16093
93155;15911
93163;15809
93171;15560
93180;15502
93188;15657
93196;15933
93204;16140
93212;16204
93224;15776
93232;15390
93240;14600
93248;14360
93256;13577
93265;12915
93273;12434
93281;12586
93289;12583
93297;12309
93306;12007
93314;12161
93322;12683
93330;13474
93338;14213
93347;14854
93355;14987
93363;15049
93371;14817
93379;14251
93388;13738
93396;13277
93404;12710
93412;12241
93420;11994
93428;11978
93437;12199
93445;12454
93453;12785
93461;13264
93469;13629
93478;13829
93486;14215
93494;14294
93502;14563
93510;14455
93519;14191
93527;13816
93535;13886
93546;14237
93554;14836
93563;15421
93571;15764
93579;15993
93587;16111
93595;15982
93604;15713
93612;15354
93620;15093
93628;14894
93636;14758
93645;14684
93653;15253
93661;14054
93669;10509
93677;8477
93686;10156
93694;17137
93702;17870
93710;16710
93718;16141
93726;15704
93735;15644
93743;15526
93751;15259
93759;15078
93767;15088
93776;14955
93784;14878
93792;14697
93800;14680
93808;14440
93817;14290
93825;13992
93833;13821
93841;13480
93849;13367
93858;13070
93866;12858
93877;12755
93885;12775
93893;12794
93902;12888
93910;13105
93918;13437
93926;13753
93934;14202
93943;14663
93951;15020
93959;15152
93967;15321
93975;15196
93983;15130
93992;14842
94000;14604
94008;14306
94016;14094
94024;13716
94033;13627
94041;13329
94049;13108
94057;12917
94065;12912
94074;12918
94082;13029
94090;12967
94098;12809
94106;12522
94115;12358
94123;12136
94131;12006
94139;11857
94147;11990
94156;11838
94164;11716
94172;11578
94180;11593
94188;11631
94200;12212
94208;12580
94216;12987
94224;13095
94232;13250
94241;14001
94249;12939
94257;8744
94265;4656
94273;5489
94281;13633
94290;15808
94298;15239
94306;14525
94314;14506
94322;14180
94331;14102
94339;14126
94347;14221
94355;14238
94363;14039
94372;13896
94380;13926
94388;13666
94396;13667
94404;13420
94413;13120
94421;12700
94429;12357
94437;12030
94445;11832
94454;11592
94462;11428
94470;11272
94478;11316
94486;11556
94494;11836
94503;12455
94511;13075
94519;13652
94530;14366
94538;14588
94547;14920
94555;15250
94563;15450
94571;15492
94579;15532
94588;15520
94596;15441
94604;15338
94612;15540
94620;15499
94629;15414
94637;15392
94645;15465
94653;15626
94661;15784
94670;15945
94678;16223
94686;16260
94694;16322
94702;16391
94711;16419
94719;16263
94727;16053
94735;15905
94743;16017
94751;16167
94760;16353
94768;16444
94776;16620
94784;16618
94792;16513
94801;16445
94809;16478
94817;16437
94825;17524
94833;16718
94842;11474
94853;4234
94861;6895
94869;16235
94877;18867
94886;19148
94894;19147
94902;18986
94910;18751
94918;18451
94927;18126
94935;17676
94943;17355
94951;17074
94959;16819
94968;16485
94976;16116
94984;15826
94992;15548
95000;15242
95009;14744
95017;14322
95025;13974
95033;13744
95041;13580
95049;13473
95058;13394
95066;13364
95074;13285
95082;13176
95090;13143
95099;13199
95107;13336
95115;13428
95123;13498
95131;13683
95140;13713
95148;13723
95156;13950
95164;14124
95172;14393
95184;14498
95192;14474
95200;14343
95208;14249
95216;14119
95225;14075
95233;13879
95241;13655
95249;13796
95257;14005
95266;14054
95274;13743
95282;13274
95290;13073
95298;13136
95306;13356
95315;13740
95323;14103
95331;14420
95339;14607
95347;14746
95356;14817
95364;14907
95372;14797
95380;14478
95388;14232
95397;13857
95405;13437
95413;13476
95421;13249
95429;10564
95438;6001
95446;4294
95454;9467
95462;15317
95470;15224
95479;14462
95487;13814
95495;13592
95506;13171
95514;13063
95523;13003
95531;12964
95539;12920
95547;12870
95555;12773
95564;12617
95572;12471
95580;12340
95588;12168
95596;11901
95604;11577
95613;11325
95621;11163
95629;11019
95637;10894
95645;10887
95654;10994
95662;11191
95670;11413
95678;11770
95686;12119
95695;12572
95703;12984
95711;13406
95719;13638
95727;13894
95736;14039
95744;14144
95752;14150
95760;14223
95768;14257
95777;14276
95785;14231
95793;14238
95801;14169
95809;14138
95817;14207
95826;14278
95837;14372
95845;14443
95853;14476
95862;14303
95870;14090
95878;14041
95886;13897
95894;13599
95902;13408
95911;13376
95919;13447
95927;13541
95935;13601
95943;13552
95952;13484
95960;13552
95968;13597
95976;13642
95984;13720
95993;13750
96001;14384
96009;14476
96017;11310
96025;5907
96034;3909
96042;10187
96050;15823
96058;16008
96066;15434
96074;15159
96083;14891
96091;14443
96099;14247
96107;14229
96115;14031
96124;13985
96132;14045
96140;14021
96148;13654
96159;13073
96168;12980
96176;13789
96184;14277
96192;14358
96200;15051
96209;14783
96217;14233
96225;14141
96233;14023
96241;13819
96250;13586
96258;13943
96266;14216
96274;13865
96282;13779
96291;14879
96299;16172
96307;16645
96315;17049
96323;17166
96332;17465
96340;16537
96348;16400
96356;17881
96364;18173
96372;18924
96381;18577
96389;18184
96397;18124
96405;18132
96413;18157
96422;18230
96430;17924
96438;17956
96446;18007
96454;17618
96463;17245
96471;17115
96482;17154
96490;16770
96498;16341
96507;16909
96515;16837
96523;16712
96531;16616
96539;16296
96548;16117
96556;16135
96564;15926
96572;15511
96580;15852
96589;15638
96597;15909
96605;14855
96613;11064
96621;7192
96630;7706
96638;14850
96646;16638
96654;16104
96662;15159
96670;14809
96679;15164
96687;14888
96695;14439
96703;14254
96711;14040
96720;13828
96728;13707
96736;13537
96744;13384
96752;13127
96761;12845
96769;12596
96777;12388
96785;12102
96793;11793
96802;11481
96813;11297
96821;11230
96829;11182
96837;11157
96846;11160
96854;11237
96862;11413
96870;11693
96878;12192
96887;12552
96895;12773
96903;12759
96911;12710
96919;12565
96927;12593
96936;12772
96944;13006
96952;13090
96960;13175
96968;13192
96977;13258
96985;13298
96993;13426
97001;13569
97009;13758
97018;13963
97026;14183
97034;14395
97042;14629
97050;14880
97059;14952
97067;15109
97075;15235
97083;15372
97091;15283
97100;15020
97108;14696
97116;14492
97124;14526
97135;14824
97144;15004
97152;15057
97160;15238
97168;15381
97176;15511
97185;15620
97193;15990
97201;16512
97209;14118
97217;8855
97225;5018
97234;8306
97242;16264
97250;17083
97258;16772
97266;16459
97275;16431
97283;16242
97291;16126
97299;16056
97307;16078
97316;16076
97324;15967
97332;15780
97340;15507
97348;15299
97357;15014
97365;14757
97373;14493
97381;14280
97389;14051
97398;13821
97406;13568
97414;13293
97422;13093
97430;12949
97438;12945
97447;13033
97455;13189
97466;13614
97474;14038
97482;14447
97491;14765
97499;15004
97507;15171
97515;15262
97523;15293
97532;15297
97540;15331
97548;15393
97556;15429
97564;15490
97573;15505
97581;15527
97589;15554
97597;15554
97605;15499
97614;15459
97622;15376
97630;15254
97638;15023
97646;14912
97655;14706
97663;14595
97671;14509
97679;14496
97687;14417
97695;14505
97704;14643
97712;14813
97720;14853
97728;14864
97736;14791
97745;14689
97753;14691
97761;14921
97769;15179
97777;15492
97789;16168
97797;16362
97805;13605
97813;9179
97821;6883
97830;11242
97838;17391
97846;17364
97854;16688
97862;15972
97871;15574
97879;15254
97887;14783
97895;14465
97903;14231
97912;13988
97920;13761
97928;13564
97936;13348
97944;13143
97953;12923
97961;12761
97969;12542
97977;12298
97985;12031
97993;11801
98002;11460
98010;11217
98018;11163
98026;11199
98034;11273
98043;11454
98051;11707
98059;12206
98067;12915
98075;13619
98084;14225
98092;14604
98100;14760
98108;14666
98119;14440
98128;14234
98136;14029
98144;14017
98152;14069
98160;14115
98169;14102
98177;13951
98185;13665
98193;13327
98201;13032
98210;12851
98218;12657
98226;12493
98234;12369
98242;12230
98250;12227
98259;12312
98267;12389
98275;12495
98283;12625
98291;12615
98300;12525
98308;12386
98316;12221
98324;11991
98332;11743
98341;11546
98349;11608
98357;11673
98365;11708
98373;11839
98382;12485
98390;11138
98398;7150
98406;3970
98414;5091
98423;12412
98431;13911
98439;13433
98450;12775
98458;12802
98467;12661
98475;12497
98483;12583
98491;12759
98499;12928
98508;13138
98516;13500
98524;13828
98532;13929
98540;13915
98548;13797
98557;13574
98565;13413
98573;13149
98581;13068
98589;13062
98598;12963
98606;12962
98614;13167
98622;13336
98630;13596
98639;13856
98647;14235
98655;14696
98663;15229
98671;15631
98680;15924
98688;16187
98696;16451
98704;16749
98712;17186
98721;17537
98729;17743
98737;17924
98745;18084
98753;18373
98761;19038
98773;21121
98781;22588
98789;22996
98797;22872
98806;22515
98814;22083
98822;21536
98830;20901
98838;20180
98846;19532
98855;18958
98863;18288
98871;17496
98879;16526
98887;15268
98896;13547
98904;11210
98912;8874
98920;8122
98928;8251
98937;8348
98945;8612
98953;8908
98961;9261
98969;9674
98978;10573
98986;11089
98994;9106
99002;5326
99010;3772
99018;8592
99027;14879
99035;16094
99043;16683
99051;17772
99059;19086
99068;20064
99076;20675
99084;20769
99092;20428
99103;19130
99112;17680
99120;15551
99128;12914
99136;9688
99144;8056
99153;8118
99161;8225
99169;8360
99177;8441
99184;8570
99193;8813
99201;9165
99209;9699
99217;10277
99225;10912
99234;11586
99242;12279
99250;12783
99258;13039
99266;13297
99274;13404
99283;13459
99291;13507
99299;13459
99307;13429
99315;13477
99324;13431
99332;13381
99340;13311
99348;13297
99356;13283
99365;13268
99373;13295
99381;13378
99389;13433
99397;13630
99406;13798
99414;13899
99422;14085
99433;14395
99441;14563
99450;14621
99458;14588
99466;14673
99474;14705
99482;14895
99491;15032
99499;15262
99507;15438
99515;15551
99523;15650
99532;15615
99540;15377
99548;15194
99556;15123
99564;15042
99572;14959
99581;14878
99589;14813
99597;15499
99605;14332
99613;10345
99622;6527
99630;6996
99638;14312
99646;16585
99654;16261
99663;15509
99671;15058
99679;14667
99687;14354
99695;14248
99704;14189
99712;14208
99720;14284
99728;14397
99736;14445
99745;14373
99753;14336
99764;14336
99772;14266
99780;14086
99789;13852
99797;13643
99805;13404
99813;13205
99821;13066
99830;13069
99838;13091
99846;13156
99854;13308
99862;13471
99870;13672
99879;13956
99887;14193
99895;14368
99903;14432
99911;14424
99920;14387
99928;14384
99936;14321
99944;14315
99952;14375
99961;14404
99969;14434
99977;14444
99985;14482
99993;14512
100002;14530
100010;14582
100018;14709
100026;14900
100034;15040
100042;15128
100051;15214
100059;15305
100067;15374
100075;15473
100087;15593
100095;15619
100103;15428
100111;15379
100119;15337
100127;15285
100136;15240
100144;15106
100152;14995
100160;15012
100168;15243
100177;15636
100185;16114
100193;16567
100201;16987
100209;17730
100218;18881
100226;19851
100235;20713
100243;20730
100251;17951
100260;13415
100268;11132
100276;15267
100284;20690
100292;20725
100301;19829
100309;19081
100317;18623
100325;18065
100333;17572
100342;17130
100350;16760
100358;16439
100366;16166
100374;15892
100386;15670
100394;15540
100402;15261
100410;14987
100418;14680
100426;14340
100435;13913
100443;13459
100451;12958
100459;12502
100467;12162
100476;11923
100484;11862
100492;11828
100500;11906
100508;12034
100517;12187
100525;12389
100533;12627
100541;12753
100549;12853
100558;12874
100566;12936
100574;12947
100582;13183
100590;13319
100599;13468
100607;13496
100615;13619
100623;13648
100631;13615
100639;13306
100648;13264
100656;13226
100664;12926
100672;12458
100680;12186
100692;12201
100700;12518
100708;12254
100716;11957
100724;11391
100733;10974
100741;10338
100749;10114
100757;9857
100765;9736
100774;9501
100782;9666
100790;9994
100798;10502
100806;10854
100815;11196
100823;11407
100831;11635
100839;11756
100847;11983
100856;12120
100864;12204
100872;12399
100880;12949
100888;11322
100897;7423
100905;4559
100913;6598
100921;13883
100929;14893
100937;14434
100946;13845
100954;13498
100962;13175
100970;12898
100978;12790
100987;12685
100998;12732
101006;12815
101014;12889
101022;12781
101031;12769
101039;12699
101047;12667
101055;12446
101063;12155
101072;11954
101080;11813
101088;11758
101096;11508
101104;11467
101113;11487
101121;11789
101129;11943
101137;12366
101145;12658
101154;13203
101162;13544
101170;13974
101178;14122
101186;14422
101194;14358
101203;14517
101211;14412
101219;14580
101227;14482
101235;14643
101244;14497
101252;14636
101260;14530
101268;14714
101276;14513
101285;14733
101296;14867
101304;15093
101312;15130
101320;15152
101329;14934
101337;14947
101345;14845
101353;14982
101361;14905
101370;15125
101378;15154
101386;15515
101394;15600
101402;15844
101411;15741
101419;16001
101427;16005
101435;16184
101443;15966
101452;15989
101460;15690
101468;15691
101476;15579
101484;15100
101492;12192
101501;9139
101509;8277
101517;13127
101525;17856
101533;17538
101542;16813
101550;16191
101558;15525
101566;15330
101574;14880
101583;14765
101591;14568
101602;14668
101610;14430
101618;14413
101627;14203
101635;14272
101643;13869
101651;13709
101659;13254
101668;13190
101676;12826
101684;12760
101692;12435
101700;12390
101709;12203
101717;12430
101725;12477
101733;12766
101741;12852
101750;13231
101758;13543
101766;14155
101774;14379
101782;14717
101790;14767
101799;14982
101807;15035
101815;15267
101823;15319
101831;15505
101840;15605
101848;15754
101856;15781
101864;15880
101872;15985
101881;15971
101889;15996
101897;15981
101908;15846
101916;15930
101925;15548
101933;15293
101941;14953
101949;15088
101957;14816
101966;14827
101974;14749
101982;14880
101990;14803
101998;14880
102007;14686
102015;14698
102023;14637
102031;14622
102039;14486
102047;14378
102056;14181
102064;14114
102072;14096
102080;11943
102088;8854
102097;8501
102105;11501
102113;16853
102121;16824
102129;16083
102138;15405
102146;14703
102154;14427
102162;13987
102170;13809
102179;13541
102187;13476
102195;13408
102206;13345
102214;13275
102223;13093
102231;12899
102239;12751
102247;12508
102255;12289
102264;12136
102272;11977
102280;11821
102288;11824
102296;11800
102305;11975
102313;12155
102321;12404
102329;12648
102337;13121
102345;13523
102354;13969
102362;14256
102370;14567
102378;14643
102386;14836
102395;14821
102403;14949
102411;14770
102419;14706
102427;14553
102436;14598
102444;14337
102452;14405
102460;14181
102468;14191
102477;13969
102485;14007
102493;13797
102501;13887
102512;13757
102521;13837
102529;13820
102537;13919
102545;13822
102553;13843
102562;13796
102570;13851
102578;13832
102586;13962
102594;13893
102602;14057
102611;13974
102619;14211
102627;14227
102635;14405
102643;14401
102652;14599
102660;14550
102668;14746
102676;14577
102684;15266
102693;14543
102701;11341
102710;7300
102718;6917
102726;12419
102735;16908
102743;17150
102751;16738
102759;16073
102767;15821
102776;15300
102784;15246
102792;14976
102800;14970
102808;14728
102819;14807
102827;14728
102835;14770
102844;14524
102852;14558
102861;14253
102869;14243
102877;13885
102885;13753
102893;13327
102902;13203
102910;12822
102918;12871
102926;12753
102934;12972
102942;12909
102951;13199
102959;13278
102967;13680
102975;13764
102983;14029
102992;14015
103000;14181
103008;13962
103016;13988
103024;13799
103033;13818
103041;13632
103049;13632
103057;13533
103065;13601
103074;13464
103082;13497
103090;13413
103098;13453
103106;13435
103118;13705
103126;13710
103134;13959
103142;13837
103150;14045
103159;14019
103167;14211
103175;14028
103183;14149
103191;14002
103199;14122
103208;14006
103216;14130
103224;14089
103232;14238
103240;14221
103249;14434
103257;14429
103265;14473
103273;14396
103281;14457
103290;14361
103298;14269
103306;14248
103314;14795
103322;13187
103331;8955
103339;5511
103347;6631
103355;13981
103363;16196
103372;16002
103380;15408
103388;15258
103396;14901
103404;14730
103412;14492
103432;14822
103440;14683
103448;14535
103457;14313
103465;14181
103473;14002
103481;13883
103489;13708
103497;13560
103506;13406
103514;13182
103522;12948
103530;12699
103538;12597
103547;12600
103555;12765
103563;12863
103571;13110
103579;13332
103588;13745
103596;14092
103604;14542
103612;14682
103620;14950
103629;14937
103637;15121
103645;15018
103653;15076
103661;14921
103670;14998
103678;14780
103686;14818
103694;14597
103702;14734
103710;14574
103719;14673
103727;14521
103738;14813
103746;14789
103754;14793
103763;14679
103771;14715
103779;14570
103787;14630
103795;14447
103804;14473
103812;14308
103820;14303
103828;14101
103836;14180
103845;13980
103853;13944
103861;13696
103869;13715
103877;13524
103886;13597
103894;13428
103902;13596
103910;13484
103918;13659
103927;13582
103935;13775
103943;13601
103951;13763
103959;13605
103967;13794
103976;13628
103984;13734
103992;14163
104000;13441
104008;9847
104017;6147
104025;5931
104036;14581
104044;16024
104052;15737
104061;15036
104069;14890
104077;14381
104085;14325
104093;14055
104102;14167
104110;13976
104118;14099
104126;13942
104134;14059
104143;13840
104151;13947
104159;13731
104167;13854
104175;13618
104184;13587
104192;13240
104200;13131
104208;12810
104216;12818
104225;12672
104233;12784
104241;12747
104249;13005
104257;13099
104265;13463
104274;13712
104282;14135
104290;14403
104298;14687
104306;14773
104315;14894
104323;14909
104331;14973
104342;15019
104350;15260
104359;15096
104367;15282
104375;15181
104383;15368
104391;15271
104400;15371
104408;15217
104416;15284
104424;15108
104432;15138
104441;15050
104449;15102
104457;14897
104465;14747
104473;14735
104482;14797
104490;14700
104498;14644
104506;14547
104514;14452
104522;14336
104531;14261
104539;14243
104547;14275
104555;14258
104563;14127
104572;14037
104580;13977
104588;13995
104596;13941
104604;14015
104613;14061
104621;14215
104629;14193
104637;14318
104648;14384
104657;14898
104665;14632
104673;11634
104681;7274
104689;5777
104698;11498
104706;16008
104714;15949
104722;15299
104730;14964
104739;14810
104747;14528
104755;14474
104763;14411
104771;14392
104780;14271
104788;14256
104796;14096
104804;14087
104813;13890
104822;13874
104830;13703
104838;13649
104846;13407
104854;13291
104862;12945
104871;12814
104879;12490
104887;12435
104895;12285
104903;12341
104912;12276
104920;12490
104928;12540
104936;12913
104947;13412
104956;13778
104964;13946
104972;14080
104980;14049
104988;14087
104997;13969
105005;13950
105013;13811
105021;13851
105029;13824
105038;14003
105046;14055
105054;14272
105062;14237
105070;14410
105079;14363
105087;14505
105095;14403
105103;14569
105111;14411
105119;14506
105128;14365
105136;14409
105144;14205
105152;14330
105160;14125
105169;14260
105177;14145
105185;14345
105193;14208
105201;14465
105210;14394
105218;14562
105226;14456
105234;14661
105242;14587
105254;14869
105262;14833
105270;15572
105278;14433
105286;10987
105295;7701
105303;7858
105311;15121
105319;17370
105327;16628
105336;16042
105344;15387
105352;15299
105360;14930
105368;14915
105377;14786
105385;14945
105393;14847
105401;14943
105409;14736
105417;14711
105426;14491
105434;14497
105442;14252
105450;14188
105458;13884
105467;13719
105475;13331
105483;13126
105491;12812
105499;12717
105508;12596
105516;12688
105524;12699
105532;12899
105540;13080
105549;13462
105560;13917
105568;14385
105576;14433
105584;14643
105593;14562
105601;14730
105609;14590
105617;14685
105625;14490
105634;14489
105642;14317
105650;14419
105658;14262
105666;14254
105674;14110
105683;14227
105691;14160
105699;14230
105707;14145
105715;14232
105724;14122
105732;14006
105740;13866
105748;13887
105756;13792
105765;13790
105773;13870
105781;14009
105789;14156
105797;14227
105806;14256
105814;14250
105822;14356
105830;14315
105838;14331
105847;14212
105858;14176
105866;14801
105874;13426
105882;9902
105891;7568
105899;8379
105907;15593
105915;17253
105923;16483
105932;15829
105940;15162
105948;14873
105956;14620
105964;14428
105972;14338
105981;14225
105989;14243
105997;14139
106005;14111
106013;13965
106022;13922
106030;13714
106038;13647
106046;13454
106054;13340
106063;13051
106071;12896
106079;12548
106087;12493
106095;12343
106104;12468
106112;12452
106120;12750
106128;12847
106136;13262
106145;13514
106153;13970
106164;14400
106172;14713
106180;14793
106189;14884
106197;14867
106205;14906
106213;14819
106221;14868
106230;14701
106238;14655
106246;14483
106254;14490
106262;14287
106270;14344
106279;14191
106287;14294
106295;14210
106303;14366
106311;14264
106320;14353
106328;14085
106336;14087
106344;13901
106352;14001
106361;13822
106369;13982
106377;13894
106385;14085
106393;14085
106402;14250
106410;14110
106418;14224
106426;14125
106434;14207
106442;14069
106451;14181
106459;14119
106470;14400
106478;11700
106487;7530
106495;5613
106503;11024
106511;15929
106519;16201
106527;15499
106536;15166
106544;14740
106552;14579
106560;14345
106568;14426
106577;14215
106585;14279
106593;14089
106601;14148
106609;13904
106618;13978
106626;13734
106634;13736
106642;13448
106650;13386
106659;13045
106668;12936
106676;12600
106684;12497
106692;12236
106701;12353
106709;12322
106717;12536
106725;12652
106733;13038
106742;13312
106750;13767
106758;14012
106768;14611
106776;14691
106785;14841
106793;14710
106802;14821
106810;14630
106818;14676
106826;14511
106835;14590
106843;14433
106851;14487
106859;14342
106867;14482
106876;14381
106884;14454
106892;14373
106900;14467
106908;14360
106917;14523
106925;14391
106933;14393
106941;14162
106949;14084
106958;13879
106966;13895
106974;13774
106982;13842
106990;13803
106999;13914
107007;14065
107015;14156
107023;14160
107031;14173
107039;14155
107048;14085
107056;14046
107064;13936
107075;14212
107084;14577
107092;12106
107100;7500
107108;4774
107116;8921
107124;15348
107133;16099
107141;15523
107149;15211
107157;14947
107165;14742
107174;14529
107182;14435
107190;14361
107198;14299
107206;14241
107215;14126
107223;14055
107231;13912
107239;13755
107247;13569
107256;13452
107264;13228
107272;13044
107280;12733
107288;12586
107297;12359
107305;12312
107313;12205
107321;12393
107329;12411
107337;12680
107346;12847
107354;13328
107362;13570
107370;14013
107382;14419
107390;14660
107398;14718
107406;14768
107414;14750
107422;14738
107431;14672
107439;14725
107447;14715
107455;14716
107463;14580
107472;14631
107480;14574
107488;14633
107496;14559
107504;14676
107513;14622
107521;14799
107529;14673
107537;14779
107545;14691
107554;14802
107562;14695
107570;14785
107578;14503
107586;14459
107594;14163
107603;14224
107611;14044
107619;14144
107627;13994
107635;14223
107644;14130
107652;14414
107660;14365
107668;14515
107679;14442
107688;14541
107696;14416
107704;14433
107712;14116
107720;14806
107729;13980
107737;10675
107745;6026
107753;5387
107761;12060
107770;15917
107778;15585
107786;15084
107794;14720
107802;14596
107811;14226
107819;14271
107827;14062
107835;14173
107843;13995
107852;14067
107860;13884
107868;13960
107876;13747
107884;13808
107892;13541
107901;13572
107909;13288
107917;13223
107925;12929
107933;12859
107942;12622
107950;12663
107958;12607
107966;12798
107974;12839
107986;13331
107994;13587
108002;14138
108010;14328
108018;14782
108027;14845
108035;15163
108043;15132
108051;15307
108059;15132
108068;15215
108076;15028
108084;15117
108092;14929
108100;15010
108109;14850
108117;14957
108125;14803
108133;14875
108141;14740
108150;14793
108158;14674
108166;14744
108174;14628
108182;14645
108190;14493
108199;14462
108207;14398
108215;14415
108223;14337
108231;14231
108240;14030
108248;13841
108256;13696
108264;13626
108272;13660
108284;13810
108292;13794
108300;13929
108308;13933
108316;14185
108325;14115
108333;14201
108341;14070
108349;14105
108357;13987
108366;13991
108374;13879
108382;14601
108390;13498
108398;9785
108407;6043
108415;6630
108423;14218
108431;16162
108439;15615
108447;14874
108456;14604
108464;14312
108472;14137
108480;14024
108488;14093
108497;13976
108505;14046
108513;13924
108521;13988
108529;13858
108538;13912
108546;13738
108554;13776
108562;13490
108570;13448
108579;13056
108590;12807
108598;12592
108606;12389
108614;12232
108623;12213
108631;12300
108639;12527
108647;12722
108655;13071
108664;13426
108672;13890
108680;14107
108688;14358
108696;14445
108705;14651
108713;14632
108721;14716
108729;14617
108737;14757
108745;14622
108754;14720
108762;14582
108770;14669
108778;14516
108786;14606
108795;14445
108803;14582
108811;14329
108819;14217
108827;13929
108836;14029
108844;13883
108852;14054
108860;13919
108868;14069
108877;13880
108885;14015
108896;13902
108904;14085
108912;14081
108921;14355
108929;14304
108937;14495
108945;14424
108953;14648
108962;14645
108970;14839
108978;14719
108986;14763
108994;14563
109002;14636
109011;14417
109019;14470
109027;14571
109035;14742
109043;12308
109052;8312
109060;5989
109068;10853
109076;16407
109084;16413
109093;15511
109101;15010
109109;14689
109117;14565
109125;14225
109134;14243
109142;14073
109150;14183
109158;14078
109166;14110
109175;13952
109183;13968
109191;13813
109202;13869
109210;13634
109219;13609
109227;13263
109235;13167
109243;12734
109251;12705
109260;12457
109268;12617
109276;12588
109284;12895
109292;12915
109300;13301
109309;13483
109317;13968
109325;14167
109333;14567
109341;14683
109350;14888
109358;14846
109366;14950
109374;14826
109382;14832
109391;14669
109399;14692
109407;14623
109415;14605
109423;14508
109432;14546
109440;14513
109448;14527
109456;14544
109464;14586
109473;14560
109481;14495
109489;14512
109500;14417
109508;14269
109517;14341
109525;14100
109533;14173
109541;14144
109549;14316
109558;14367
109566;14494
109574;14454
109582;14533
109590;14474
109598;14493
109607;14414
109615;14409
109623;14331
109631;14315
109639;14818
109648;13424
109656;9606
109664;7061
109672;8341
109680;15850
109690;17193
109698;16406
109706;15781
109714;15107
109722;14892
109731;14452
109739;14244
109747;14059
109755;14096
109763;13937
109772;13921
109780;13765
109788;13803
109796;13644
109806;13662
109815;13604
109823;13407
109832;13204
109840;12938
109848;12696
109857;12527
109865;12402
109873;12484
109881;12527
109889;12695
109897;12891
109906;13197
109914;13489
109922;13951
109930;14255
109938;14566
109947;14657
109955;14839
109963;14760
109971;14862
109979;14794
109988;14866
109996;14657
110004;14740
110012;14535
110020;14573
110029;14366
110037;14377
110045;14196
110053;14269
110061;14121
110070;14260
110078;14088
110086;14195
110094;14000
110105;14179
110114;14140
110122;14206
110130;14011
110138;14035
110146;13726
110154;13725
110163;13522
110171;13560
110179;13492
110187;13712
110195;13751
110204;14011
110212;14013
110220;14205
110228;14063
110236;14172
110245;14076
110253;14231
110261;14159
110269;14236
110277;14787
110286;14406
110294;10844
110302;6298
110310;5182
110318;12058
110327;16081
110335;16081
110343;15370
110351;15213
110359;14874
110367;14722
110376;14499
110384;14534
110392;14352
110400;14298
110412;14146
110420;14174
110428;13967
110436;13988
110444;13758
110452;13694
110461;13432
110469;13392
110477;13086
110485;12976
110493;12640
110502;12640
110510;12441
110518;12557
110526;12586
110534;12913
110543;13065
110551;13476
110559;13760
110567;14206
110575;14365
110584;14591
110592;14652
110600;14785
110608;14696
110616;14728
110625;14577
110633;14501
110641;14389
110649;14353
110657;14209
110665;14126
110674;14084
110682;14054
110690;14020
110698;14027
110706;14019
110718;14123
110726;14118
110734;14204
110742;14141
110750;14236
110759;14087
110767;14032
110775;13769
110783;13629
110791;13421
110800;13434
110808;13383
110816;13492
110824;13533
110832;13646
110841;13776
110849;13890
110857;13891
110865;13953
110873;13975
110882;14006
110890;14061
110898;14023
110906;14076
110914;14773
110922;13190
110931;8771
110939;5012
110947;6926
110955;14819
110963;16106
110972;15708
110980;15103
110988;14980
110996;14585
111004;14479
111013;14282
111024;14300
111032;14287
111040;14156
111048;14058
111057;13925
111065;13829
111073;13726
111081;13596
111089;13500
111098;13295
111106;13153
111114;12929
111122;12751
111130;12479
111139;12400
111147;12310
111155;12468
111163;12569
111171;12807
111180;12960
111188;13365
111196;13640
111204;14124
111212;14290
111220;14625
111229;14663
111237;14856
111245;14725
111253;14832
111261;14716
111270;14809
111278;14635
111286;14749
111294;14596
111302;14748
111311;14578
111322;14724
111330;14713
111338;14740
111346;14623
111355;14718
111363;14633
111371;14724
111379;14558
111387;14598
111396;14421
111404;14370
111412;14104
111420;14228
111428;14109
111437;14298
111445;14267
111453;14506
111461;14515
111469;14717
111478;14605
111486;14732
111494;14579
111502;14711
111510;14571
111518;14690
111527;14523
111535;14923
111543;14543
111551;12190
111559;8302
111568;7052
111576;12536
111584;17336
111592;16704
111600;16039
111609;15185
111617;14967
111628;14533
111636;14469
111644;14206
111653;14293
111661;14105
111669;14166
111677;13994
111685;14041
111694;13840
111702;13852
111710;13602
111718;13610
111726;13300
111735;13207
111743;12815
111751;12689
111759;12385
111767;12450
111775;12394
111784;12567
111792;12579
111800;12876
111808;13102
111816;13571
111825;13879
111833;14288
111841;14520
111849;14825
111857;14900
111866;15075
111874;15076
111882;15162
111890;15142
111898;15203
111907;15091
111915;15022
111926;14922
111934;15020
111942;14857
111951;14895
111959;14750
111967;14777
111975;14679
111983;14780
111992;14733
112000;14760
112008;14590
112016;14546
112024;14264
112033;14222
112041;14120
112049;14163
112057;14130
112065;14226
112073;14310
112082;14496
112090;14574
112098;14639
112106;14651
112114;14644
112123;14640
112131;14644
112139;14623
112147;14532
112156;14562
112165;14927
112173;13382
112181;9613
112189;7314
112197;9251
112206;16520
112214;17111
112222;16535
112232;15646
112240;15242
112249;14948
112257;14610
112265;14509
112273;14365
112281;14301
112290;14187
112298;14143
112306;14036
112315;13894
112323;13800
112332;13622
112340;13445
112348;13180
112356;13011
112364;12724
112372;12522
112381;12245
112389;12198
112397;12162
112405;12313
112413;12366
112422;12653
112430;12886
112438;13318
112446;13614
112454;14089
112463;14253
112471;14540
112479;14552
112487;14708
112495;14616
112504;14771
112512;14613
112520;14722
112528;14561
112539;14635
112548;14627
112556;14530
112564;14415
112572;14391
112580;14272
112589;14342
112597;14255
112605;14317
112613;14233
112621;14312
112630;14213
112638;14374
112646;14293
112654;14302
112662;14120
112670;14114
112679;13904
112687;13970
112695;13812
112703;13895
112711;13833
112720;14040
112728;14000
112736;14188
112744;14085
112752;14203
112761;14016
112769;14113
112777;13933
112785;13997
112793;13797
112802;13910
112810;14359
112818;13024
112826;8785
112837;5044
112846;9201
112854;15617
112862;16018
112870;15533
112878;14855
112887;14730
112895;14320
112903;14235
112911;14012
112919;14029
112927;13830
112936;13916
112944;13714
112952;13780
112960;13576
112968;13605
112977;13349
112985;13353
112993;13053
113001;12985
113009;12601
113018;12433
113026;12064
113034;12048
113042;11932
113050;12099
113059;12141
113067;12458
113075;12665
113083;13185
113091;13485
113100;13882
113108;14106
113116;14408
113124;14438
113132;14534
113144;14532
113152;14705
113160;14480
113168;14519
113176;14326
113185;14375
113193;14236
113201;14347
113209;14214
113217;14291
113225;14156
113234;14193
113242;14019
113250;14095
113258;13978
113266;14050
113275;13975
113283;14046
113291;14004
113299;14071
113307;14009
113316;14022
113324;13962
113332;13921
113340;13791
113348;13621
113357;13492
113365;13494
113373;13563
113381;13599
113389;13649
113398;13686
113406;13797
113414;13824
113422;13863
113430;13835
113438;13868
113450;13977
113458;13929
113466;13948
113474;13792
113482;14429
113491;13682
113499;10473
113507;5942
113515;5349
113523;11766
113532;15876
113540;15790
113548;15158
113556;14886
113564;14602
113573;14355
113581;14240
113589;14218
113597;14134
113605;14145
113614;14005
113622;13997
113630;13874
113638;13843
113646;13639
113655;13594
113663;13419
113671;13376
113679;13079
113687;12948
113695;12623
113704;12565
113712;12364
113720;12464
113728;12419
113736;12658
113748;12938
113756;13311
113764;13640
113772;14066
113780;14431
113789;14797
113797;14929
113805;15062
113813;15057
113821;15134
113830;15032
113838;15052
113846;14939
113854;14982
113862;14852
113871;14923
113879;14749
113887;14853
113895;14739
113903;14824
113912;14687
113920;14821
113928;14738
113936;14828
113944;14662
113953;14749
113961;14592
113969;14683
113977;14489
113985;14599
113993;14409
114002;14490
114010;14342
114018;14448
114026;14347
114034;14389
114043;14137
114054;14137
114062;14025
114070;14085
114078;13958
114087;14019
114095;13954
114103;14151
114111;14119
114119;14268
114128;14129
114136;14261
114144;14105
114152;14189
114160;14051
114169;14100
114177;13905
114185;14606
114193;13369
114201;9854
114210;5822
114218;6413
114226;13471
114234;16072
114242;15513
114250;14980
114259;14611
114267;14459
114275;14150
114283;14164
114291;13976
114300;13983
114308;13860
114316;13910
114324;13765
114332;13762
114341;13645
114349;13613
114360;13447
114368;13471
114376;13133
114385;13026
114393;12639
114401;12516
114409;12162
114417;12205
114426;12095
114434;12295
114442;12319
114450;12711
114458;12999
114467;13563
114475;13885
114483;14341
114491;14537
114499;14770
114508;14769
114516;14906
114524;14875
114532;14921
114541;14815
114550;14824
114558;14753
114566;14789
114574;14683
114582;14662
114590;14630
114599;14629
114607;14599
114615;14575
114623;14563
114631;14511
114640;14442
114648;14390
114658;14321
114666;14444
114674;14281
114683;14306
114692;14151
114700;14212
114708;14143
114716;14212
114725;14148
114733;14252
114741;14220
114749;14259
114757;14108
114766;13995
114774;13879
114782;13903
114790;13883
114798;13914
114807;13905
114815;13940
114823;14030
114831;14123
114839;14188
114847;14169
114856;14221
114864;14128
114872;14162
114880;14082
114888;14033
114897;14278
114905;14351
114913;11998
114921;7844
114929;5860
114938;10321
114946;16019
114954;16385
114965;15458
114973;15203
114982;14914
114990;14625
114998;14525
115006;14450
115014;14328
115023;14292
115031;14157
115039;14097
115047;13925
115055;13839
115064;13677
115072;13642
115080;13422
115088;13309
115096;13020
115105;12867
115113;12546
115121;12404
115129;12186
115137;12295
115145;12268
115154;12487
115162;12530
115170;12939
115178;13169
115186;13641
115195;13897
115203;14290
115211;14392
115219;14678
115227;14617
115236;14767
115244;14640
115252;14728
115260;14537
115271;14650
115280;14620
115288;14601
115296;14437
115304;14482
115312;14323
115321;14383
115329;14247
115337;14339
115345;14244
115353;14348
115362;14225
115370;14343
115378;14242
115386;14344
115394;14234
115402;14372
115411;14239
115419;14387
115427;14230
115435;14352
115443;14223
115452;14328
115460;14240
115468;14339
115476;14108
115484;14092
115493;13909
115501;14012
115509;13921
115517;14018
115525;13977
115534;14151
115542;14125
115550;14309
115558;14275
115569;14432
115578;14339
115586;14412
115594;14249
115602;14301
115610;14175
115619;14726
115627;13065
115635;9314
115643;6288
115651;8467
115660;15440
115668;16536
115676;15776
115684;15183
115692;14793
115700;14550
115709;14198
115717;14195
115725;13997
115733;13978
115741;13820
115750;13883
115758;13720
115766;13665
115774;13497
115782;13441
115791;13253
115799;13131
115807;12896
115815;12744
115823;12484
115832;12273
115840;12064
115848;11997
115856;12045
115864;12160
115876;12427
115884;12884
115892;13147
115900;13670
115908;13929
115917;14367
115925;14492
115933;14723
115941;14750
115949;14882
115958;14853
115966;14932
115974;14845
115982;14872
115990;14765
115998;14731
116007;14631
116015;14571
116023;14512
116031;14493
116039;14462
116048;14437
116056;14448
116064;14410
116072;14434
116080;14415
116089;14453
116097;14396
116105;14443
116113;14389
116121;14456
116130;14348
116138;14401
116146;14359
116154;14455
116162;14355
116170;14478
116182;14469
116190;14323
116198;14097
116206;14038
116215;14104
116223;14169
116231;14166
116239;14194
116247;14255
116255;14400
116264;14451
116272;14497
116280;14465
116288;14523
116296;14451
116305;14476
116313;14334
116321;14303
116329;14763
116337;13911
116346;10406
116354;6835
116362;6864
116370;14060
116378;16456
116387;16066
116395;15167
116403;14961
116411;14600
116419;14440
116428;14181
116436;14173
116444;13980
116452;14056
116460;13867
116468;13892
116480;13774
116488;13768
116496;13517
116504;13443
116513;13189
116521;13065
116529;12729
116537;12559
116545;12254
116553;12217
116562;12058
116570;12185
116578;12238
116586;12506
116594;12622
116603;13033
116611;13307
116619;13793
116627;13973
116635;14348
116644;14393
116652;14636
116660;14607
116668;14780
116676;14693
116685;14813
116693;14680
116701;14768
116709;14625
116717;14678
116726;14526
116734;14620
116742;14487
116750;14568
116758;14432
116766;14527
116775;14377
116786;14509
116794;14446
116802;14513
116810;14373
116819;14446
116827;14280
116835;14327
116843;14167
116851;14238
116860;14088
116868;14159
116876;13981
116884;14079
116892;13940
116901;14055
116909;13890
116917;13887
116925;13649
116933;13709
116942;13627
116950;13805
116958;13698
116967;13814
116975;13794
116984;13991
116992;13981
117000;14067
117008;13956
117016;14030
117025;13936
117033;13981
117041;13855
117049;13930
117057;14504
117065;13171
117074;9328
117084;6103
117092;10359
117100;16263
117108;16303
117118;15700
117126;15044
117134;14906
117142;14532
117150;14428
117159;14209
117167;14191
117175;13973
117183;13924
117191;13888
117200;13923
117208;13848
117216;13853
117224;13760
117232;13611
117241;13349
117249;13131
117257;12804
117265;12587
117273;12402
117282;12271
117290;12231
117298;12359
117306;12537
117314;12709
117322;12968
117331;13314
117339;13722
117347;14049
117355;14323
117363;14415
117372;14599
117380;14602
117391;14752
117399;14839
117407;14601
117416;14501
117424;14310
117432;14255
117440;14069
117448;14083
117457;14075
117465;13979
117473;13873
117481;13888
117489;13880
117498;13907
117506;13909
117514;13871
117522;13921
117530;13961
117539;13984
117547;13869
117555;13836
117563;13772
117571;13776
117580;13741
117588;13723
117596;13544
117604;13581
117612;13459
117620;13394
117629;13195
117637;13217
117645;13095
117653;13168
117661;13052
117670;13101
117678;13033
117686;13187
117697;13323
117705;13411
117714;13389
117722;13403
117730;13305
117738;13360
117746;13395
117755;14106
117763;12491
117771;8654
117779;5638
117787;7755
117796;15248
117804;16377
117812;15669
117820;15051
117828;14693
117837;14545
117845;14254
117853;14328
117861;14213
117869;14305
117878;14275
117886;14400
117894;14332
117902;14430
117910;14360
117918;14351
117927;14195
117935;14191
117943;13945
117951;13889
117959;13593
117968;13426
117976;13144
117984;13133
117995;13173
118003;13426
118012;13433
118020;13697
118028;13980
118036;14501
118044;14845
118053;15284
118061;15496
118069;15807
118077;15814
118085;15952
118094;15850
118102;15947
118110;15800
118118;15905
118126;15787
118135;15803
118143;15639
118151;15720
118159;15571
118167;15578
118175;15415
118184;15458
118192;15367
118200;15542
118208;15529
118216;15478
118225;15328
118233;15157
118241;14877
118249;14792
118257;14702
118266;14650
118274;14619
118282;14775
118290;14812
118301;15007
118310;15015
118318;15061
118326;14831
118334;14857
118342;14748
118351;14742
118359;14565
118367;14572
118375;14542
118383;14692
118392;12206
118400;8414
118408;7351
118416;11440
118424;17431
118433;17194
118441;16437
118449;15693
118457;15016
118465;14746
118473;14387
118482;14166
118490;14023
118498;13942
118506;13792
118514;13652
118523;13584
118531;13507
118539;13372
118547;13185
118555;13085
118564;12860
118572;12574
118580;12285
118588;12136
118596;11852
118608;11746
118616;11914
118624;11946
118632;12131
118640;12325
118649;12670
118657;13055
118665;13484
118673;13804
118681;14079
118690;14297
118698;14445
118706;14570
118714;14642
118722;14662
118730;14593
118739;14533
118747;14411
118755;14349
118763;14227
118771;14190
118780;14048
118788;14016
118796;13952
118804;13985
118812;13904
118821;13976
118829;13941
118837;14033
118845;14019
118853;14133
118862;14044
118870;14094
118878;13934
118886;13894
118894;13744
118906;13790
118914;13805
118922;13830
118930;13842
118938;13896
118947;13952
118955;14041
118963;13980
118971;13984
118979;13913
118988;13958
118996;13901
119004;13942
119012;13831
119020;14547
119028;13700
119037;10276
119045;6566
119053;6270
119061;13222
119069;16438
119078;15939
119086;15387
119094;14776
119102;14639
119110;14251
119119;14159
119127;13984
119135;14035
119143;13888
119151;13912
119160;13732
119168;13755
119176;13625
119184;13639
119192;13418
119201;13349
119212;13118
119220;13038
119228;12751
119236;12617
119245;12369
119253;12404
119261;12380
119269;12600
119277;12695
119286;13065
119294;13307
119302;13770
119310;14052
119318;14464
119326;14591
119335;14841
119343;14854
119351;15016
119359;14898
119367;15011
119377;14853
119385;14935
119393;14787
119401;14827
119409;14579
119418;14564
119426;14391
119434;14419
119442;14241
119450;14279
119459;14177
119467;14216
119475;14099
119483;14177
119491;14100
119500;14194
119508;14157
119519;14331
119527;14274
119535;14306
119544;14005
119552;13940
119560;13738
119568;13767
119576;13618
119585;13775
119593;13749
119601;13944
119609;13889
119617;13980
119625;13889
119634;13942
119642;13820
119650;13902
119658;13801
119666;13828
119675;13916
119683;14373
119691;12128
119699;7837
119707;4963
119716;8078
119724;15116
119732;16042
119740;15528
119748;15039
119757;14780
119765;14522
119773;14289
119781;14206
119789;14090
119798;13980
119806;13869
119817;13855
119825;13711
119833;13688
119842;13484
119850;13480
119858;13234
119866;13149
119874;12815
119882;12643
119891;12356
119899;12147
119907;11928
119915;11937
119923;11950
119932;12177
119940;12349
119948;12694
119956;13152
119964;13591
119973;13965
119981;14305
119989;14506
119997;14644
120005;14769
120014;14787
120022;14784
120030;14714
120038;14733
