Tempo (ms);Valor
1500866;15021
1500874;14701
1500883;14747
1500891;14409
1500899;14504
1500907;14206
1500915;14307
1500924;13940
1500932;13955
1500940;13577
1500948;13693
1500956;13469
1500965;13691
1500973;13500
1500981;13704
1500989;13574
1500998;13851
1501007;13709
1501015;13895
1501023;13702
1501031;13844
1501039;13651
1501048;13790
1501056;13508
1501064;13521
1501072;13871
1501080;13326
1501089;10210
1501097;6558
1501105;5453
1501113;12260
1501121;15532
1501129;15204
1501138;14383
1501149;14227
1501157;13852
1501165;13791
1501174;13414
1501182;13497
1501190;13176
1501198;13297
1501206;13010
1501214;13150
1501223;12902
1501231;13001
1501239;12727
1501247;12810
1501255;12529
1501264;12613
1501272;12298
1501280;12265
1501288;11867
1501296;11792
1501305;11471
1501313;11584
1501321;11542
1501329;11815
1501338;11819
1501347;12184
1501355;12442
1501363;12946
1501371;13267
1501379;13763
1501388;13981
1501396;14243
1501404;14310
1501412;14475
1501420;14479
1501432;14612
1501440;14454
1501448;14586
1501456;14312
1501464;14429
1501473;14145
1501481;14281
1501489;14070
1501497;14200
1501505;13999
1501513;14130
1501522;13899
1501530;14047
1501538;13887
1501546;13978
1501554;13822
1501563;13932
1501571;13806
1501579;13926
1501587;13806
1501595;13891
1501604;13849
1501612;13938
1501620;13865
1501628;13893
1501636;13739
1501645;13635
1501653;13532
1501662;13597
1501670;13646
1501678;13643
1501687;13637
1501695;13695
1501703;13750
1501714;13993
1501722;13848
1501731;13978
1501739;13783
1501747;13894
1501755;13676
1501763;13772
1501772;13550
1501780;14036
1501788;13662
1501796;11324
1501804;7644
1501812;6222
1501821;11276
1501829;16349
1501837;15768
1501845;15041
1501853;14305
1501862;14152
1501870;13870
1501878;13724
1501886;13565
1501894;13519
1501903;13472
1501911;13444
1501919;13371
1501927;13321
1501935;13257
1501944;13130
1501952;13038
1501960;12896
1501968;12814
1501976;12605
1501986;12493
1501996;12263
1502004;11928
1502012;11828
1502020;11620
1502029;11749
1502038;11776
1502046;12043
1502054;12165
1502062;12630
1502071;12987
1502079;13467
1502087;13777
1502095;14151
1502103;14312
1502111;14465
1502120;14474
1502128;14521
1502136;14459
1502144;14465
1502152;14454
1502161;14393
1502169;14361
1502177;14249
1502185;14179
1502193;14089
1502202;14060
1502210;13941
1502218;13988
1502226;13914
1502234;13969
1502243;13879
1502251;13984
1502259;13861
1502267;13970
1502278;14006
1502287;13981
1502295;14065
1502303;13981
1502311;14000
1502319;13883
1502328;13848
1502336;13655
1502345;13586
1502353;13489
1502361;13493
1502370;13458
1502378;13497
1502386;13551
1502394;13669
1502402;13745
1502410;13721
1502419;13754
1502427;13694
1502435;13725
1502443;13664
1502451;13722
1502460;13578
1502468;13527
1502476;14084
1502484;13515
1502492;10200
1502501;6366
1502509;5198
1502517;12085
1502525;15670
1502533;15396
1502542;14544
1502550;14374
1502558;14049
1502569;13866
1502577;13830
1502586;13722
1502594;13644
1502602;13530
1502610;13424
1502618;13345
1502627;13248
1502635;13181
1502643;13027
1502651;12964
1502660;12789
1502669;12660
1502677;12409
1502685;12302
1502693;12016
1502701;11847
1502710;11603
1502718;11675
1502726;11609
1502734;11848
1502742;11892
1502750;12310
1502759;12583
1502767;13146
1502775;13431
1502783;13939
1502791;14041
1502800;14367
1502808;14261
1502816;14462
1502824;14294
1502832;14454
1502841;14256
1502852;14392
1502860;14402
1502868;14312
1502876;14203
1502885;14181
1502893;14041
1502901;14061
1502909;13992
1502917;14001
1502926;13922
1502934;13970
1502942;13826
1502950;13875
1502958;13736
1502967;13804
1502976;13654
1502984;13780
1502992;13660
1503000;13808
1503009;13682
1503017;13784
1503025;13576
1503033;13545
1503041;13252
1503049;13409
1503058;13255
1503066;13463
1503074;13341
1503082;13636
1503090;13538
1503099;13868
1503107;13732
1503115;13944
1503123;13799
1503134;14026
1503143;13963
1503151;13959
1503159;13753
1503167;14284
1503175;14025
1503184;11518
1503192;7045
1503200;4889
1503208;9816
1503216;15698
1503225;15623
1503233;15144
1503241;14650
1503249;14646
1503257;14236
1503266;14276
1503274;14041
1503282;14161
1503290;13896
1503298;14004
1503306;13760
1503316;13924
1503324;13660
1503332;13761
1503340;13431
1503348;13494
1503357;13099
1503365;13120
1503373;12743
1503381;12717
1503389;12222
1503398;12164
1503406;11806
1503417;12028
1503425;12051
1503433;12303
1503442;12378
1503450;12881
1503458;13164
1503466;13737
1503474;13964
1503483;14408
1503491;14429
1503499;14673
1503507;14505
1503515;14654
1503524;14450
1503532;14619
1503540;14359
1503548;14487
1503556;14272
1503565;14442
1503573;14182
1503581;14315
1503589;14069
1503597;14219
1503606;13983
1503614;14156
1503622;13929
1503630;14121
1503639;13930
1503647;14125
1503656;13909
1503664;14088
1503672;13876
1503680;14088
1503688;13896
1503700;14038
1503708;13701
1503716;13672
1503724;13441
1503732;13633
1503741;13489
1503749;13651
1503757;13539
1503765;13828
1503773;13779
1503782;14037
1503790;13816
1503798;13979
1503806;13749
1503814;13925
1503823;13689
1503831;13831
1503839;13548
1503847;14283
1503855;13736
1503864;11142
1503872;6646
1503880;5024
1503888;10842
1503896;15759
1503905;15362
1503913;14869
1503921;14383
1503929;14421
1503937;14000
1503945;14057
1503954;13781
1503963;13848
1503971;13572
1503979;13694
1503990;13484
1503998;13642
1504006;13322
1504015;13378
1504023;13048
1504031;13114
1504040;12782
1504048;12811
1504056;12401
1504064;12377
1504072;11957
1504081;12030
1504089;11759
1504097;11972
1504105;11856
1504113;12168
1504122;12191
1504130;12776
1504138;13057
1504146;13631
1504154;13755
1504163;14181
1504171;14175
1504179;14433
1504187;14285
1504195;14455
1504204;14242
1504212;14384
1504220;14200
1504228;14275
1504236;14065
1504244;14170
1504253;13969
1504261;14026
1504272;13884
1504280;14118
1504289;13911
1504297;14099
1504305;13845
1504313;14053
1504321;13828
1504330;14007
1504339;13769
1504347;13953
1504355;13730
1504363;13916
1504371;13708
1504380;13912
1504388;13664
1504396;13743
1504404;13413
1504412;13540
1504421;13381
1504429;13566
1504437;13431
1504445;13654
1504453;13595
1504462;13835
1504470;13757
1504478;13866
1504486;13729
1504494;13823
1504503;13695
1504511;13807
1504519;13659
1504527;13703
1504535;13668
1504543;14244
1504555;11435
1504563;7864
1504571;5722
1504579;11033
1504588;16069
1504596;15977
1504604;15025
1504612;14617
1504620;14246
1504628;14178
1504637;13775
1504645;13803
1504654;13554
1504662;13643
1504670;13393
1504679;13481
1504687;13252
1504695;13304
1504703;13084
1504711;13116
1504720;12893
1504728;12867
1504736;12641
1504744;12553
1504752;12194
1504761;12030
1504769;11715
1504777;11674
1504785;11642
1504793;11760
1504802;11850
1504810;12081
1504818;12369
1504826;12817
1504837;13352
1504846;13965
1504854;14026
1504862;14364
1504870;14302
1504878;14500
1504887;14335
1504895;14511
1504903;14339
1504911;14403
1504919;14175
1504927;14265
1504936;14053
1504944;14130
1504952;13925
1504961;14035
1504969;13947
1504978;14035
1504986;13961
1504994;14033
1505002;13925
1505010;14003
1505019;13932
1505027;13980
1505035;13911
1505043;13911
1505051;13879
1505060;13911
1505068;13908
1505076;13910
1505084;13851
1505092;13687
1505101;13624
1505109;13575
1505120;13573
1505128;13770
1505136;13566
1505145;13733
1505153;13655
1505161;13888
1505169;13771
1505177;13874
1505186;13773
1505194;13845
1505202;13711
1505210;13753
1505218;13605
1505226;13700
1505235;14176
1505243;12789
1505251;8866
1505259;5379
1505267;6481
1505276;14251
1505285;15696
1505293;15124
1505301;14461
1505309;14255
1505318;14019
1505326;13806
1505334;13734
1505342;13595
1505350;13561
1505359;13445
1505367;13430
1505375;13341
1505383;13384
1505391;13235
1505400;13211
1505411;13150
1505419;12944
1505427;12863
1505435;12528
1505444;12364
1505452;12035
1505460;11904
1505468;11711
1505476;11735
1505485;11742
1505493;11874
1505501;12019
1505509;12354
1505517;12777
1505526;13200
1505534;13582
1505542;13882
1505550;14112
1505558;14222
1505566;14321
1505575;14298
1505583;14357
1505591;14322
1505599;14353
1505608;14234
1505617;14237
1505625;14124
1505633;14171
1505641;14015
1505649;14059
1505658;13942
1505666;14003
1505674;13835
1505682;13948
1505693;13930
1505702;13920
1505710;13973
1505718;13903
1505726;13967
1505734;13933
1505743;13921
1505751;13922
1505759;13916
1505767;13867
1505775;13858
1505784;13800
1505792;13681
1505800;13592
1505808;13509
1505816;13544
1505825;13462
1505833;13540
1505841;13483
1505849;13604
1505857;13582
1505865;13769
1505874;13689
1505882;13781
1505890;13653
1505898;13793
1505906;13631
1505915;13716
1505924;13522
1505932;13771
1505940;14100
1505948;12476
1505957;8253
1505965;4980
1505975;9908
1505983;15492
1505992;15511
1506001;14829
1506009;14434
1506017;14256
1506025;13933
1506033;13844
1506042;13714
1506050;13706
1506058;13569
1506066;13597
1506074;13471
1506083;13515
1506091;13350
1506099;13360
1506107;13144
1506115;13150
1506124;12845
1506132;12777
1506140;12468
1506148;12390
1506156;12004
1506164;11936
1506173;11660
1506181;11793
1506189;11658
1506197;11950
1506205;12001
1506214;12520
1506222;12747
1506230;13389
1506238;13563
1506246;14059
1506258;14307
1506266;14519
1506274;14445
1506282;14495
1506290;14414
1506300;14436
1506308;14308
1506316;14364
1506324;14203
1506332;14278
1506341;14136
1506349;14225
1506357;14100
1506365;14228
1506373;14042
1506382;14170
1506390;14054
1506398;14218
1506406;14059
1506414;14236
1506423;14001
1506431;14138
1506439;13947
1506447;14101
1506455;13886
1506463;14038
1506472;13829
1506480;14028
1506488;13842
1506496;14062
1506504;13906
1506513;14033
1506521;13724
1506529;13779
1506540;13652
1506548;13846
1506557;13708
1506565;13790
1506573;13662
1506581;13849
1506589;13769
1506598;13944
1506607;13796
1506615;13937
1506623;13755
1506631;13869
1506640;13635
1506648;13717
1506656;13434
1506664;13830
1506672;13710
1506681;11747
1506689;7440
1506697;4940
1506705;8592
1506713;15241
1506722;15367
1506730;14877
1506738;14228
1506746;14277
1506754;13820
1506762;13890
1506771;13596
1506779;13715
1506787;13473
1506795;13606
1506803;13331
1506812;13471
1506820;13203
1506831;13404
1506839;13235
1506847;13309
1506856;13007
1506864;12967
1506872;12552
1506880;12454
1506888;12061
1506897;12067
1506905;11809
1506913;11996
1506922;11895
1506930;12195
1506939;12204
1506947;12757
1506955;12989
1506963;13593
1506971;13747
1506980;14241
1506988;14211
1506996;14504
1507004;14343
1507012;14591
1507021;14396
1507029;14558
1507037;14291
1507045;14454
1507053;14226
1507062;14362
1507070;14073
1507078;14178
1507086;13950
1507094;14088
1507102;13863
1507114;14086
1507122;13890
1507130;14047
1507138;13871
1507146;14064
1507155;13873
1507163;14031
1507171;13775
1507179;13962
1507187;13764
1507196;13955
1507204;13741
1507212;13946
1507220;13716
1507228;13940
1507237;13679
1507246;13773
1507254;13385
1507262;13534
1507270;13333
1507279;13532
1507287;13332
1507295;13529
1507303;13406
1507311;13689
1507320;13596
1507328;13780
1507336;13588
1507344;13738
1507352;13543
1507361;13721
1507369;13573
1507377;13683
1507385;13598
1507396;13960
1507405;11386
1507413;7783
1507421;5824
1507429;11354
1507437;16191
1507446;15940
1507454;14977
1507462;14599
1507470;14239
1507478;14211
1507486;13779
1507495;13865
1507503;13561
1507511;13667
1507519;13386
1507527;13543
1507536;13295
1507544;13381
1507552;13103
1507560;13187
1507568;12939
1507577;13023
1507586;12688
1507594;12659
1507602;12294
1507610;12191
1507619;11825
1507627;11767
1507635;11589
1507643;11786
1507651;11775
1507660;12089
1507668;12310
1507679;13122
1507687;13407
1507695;13936
1507704;14009
1507712;14399
1507720;14316
1507728;14619
1507736;14442
1507745;14630
1507753;14431
1507761;14579
1507769;14338
1507777;14456
1507785;14251
1507794;14401
1507802;14146
1507810;14238
1507818;14020
1507826;14122
1507835;13920
1507843;14044
1507851;13899
1507859;14013
1507867;13889
1507876;14031
1507885;13926
1507893;14060
1507901;13940
1507909;13964
1507918;13831
1507926;13761
1507934;13526
1507942;13543
1507950;13483
1507962;13752
1507970;13666
1507978;13921
1507986;13810
1507994;14032
1508003;13852
1508011;14022
1508019;13842
1508027;13967
1508035;13772
1508044;13925
1508052;13736
1508060;13799
1508068;14185
1508076;13627
1508084;10421
1508093;7105
1508101;6174
1508109;13161
1508117;16347
1508125;15750
1508134;14879
1508142;14373
1508150;14104
1508158;13929
1508166;13671
1508175;13605
1508183;13473
1508191;13475
1508199;13405
1508208;13350
1508217;13273
1508225;13172
1508233;13062
1508241;12928
1508251;12769
1508261;12838
1508269;12460
1508277;12307
1508285;11886
1508293;11790
1508302;11448
1508310;11553
1508318;11471
1508326;11686
1508334;11746
1508343;12176
1508351;12492
1508359;13054
1508367;13378
1508375;13781
1508383;13972
1508392;14194
1508400;14245
1508408;14358
1508416;14331
1508424;14353
1508433;14307
1508441;14306
1508449;14313
1508457;14259
1508465;14185
1508474;14040
1508482;13965
1508490;13889
1508498;13881
1508506;13773
1508515;13802
1508524;13670
1508534;13726
1508542;13890
1508550;13723
1508559;13795
1508567;13702
1508576;13835
1508584;13729
1508592;13784
1508601;13646
1508609;13603
1508617;13437
1508625;13467
1508633;13410
1508642;13503
1508650;13543
1508658;13659
1508666;13727
1508674;13796
1508682;13838
1508691;13837
1508699;13863
1508707;13822
1508715;13848
1508723;13773
1508732;13737
1508740;13747
1508748;14291
1508756;12417
1508764;8351
1508773;4624
1508781;6798
1508789;14385
1508797;15713
1508805;15077
1508817;14672
1508825;14640
1508833;14308
1508841;14229
1508849;14043
1508858;14032
1508866;13910
1508874;13850
1508883;13778
1508891;13709
1508900;13582
1508908;13495
1508916;13414
1508924;13294
1508932;13158
1508941;12909
1508949;12715
1508957;12390
1508965;12176
1508973;11895
1508982;11844
1508990;11745
1508998;11885
1509006;11874
1509014;12167
1509022;12398
1509031;12966
1509039;13306
1509047;13858
1509055;14000
1509063;14338
1509072;14298
1509080;14536
1509088;14386
1509099;14475
1509107;14542
1509116;14491
1509124;14456
1509132;14378
1509140;14315
1509148;14262
1509157;14197
1509165;14162
1509173;14067
1509181;14069
1509189;13962
1509199;14005
1509207;13903
1509215;13943
1509223;13820
1509231;13886
1509240;13761
1509248;13861
1509256;13710
1509264;13844
1509272;13642
1509281;13684
1509289;13364
1509297;13398
1509305;13211
1509313;13386
1509321;13212
1509330;13416
1509338;13298
1509346;13572
1509354;13488
1509362;13662
1509371;13491
1509382;13666
1509390;13683
1509398;13686
1509406;13562
1509415;13512
1509423;13600
1509431;14079
1509439;12113
1509447;7922
1509456;4382
1509464;7067
1509472;14497
1509480;15529
1509488;14773
1509497;14453
1509505;14204
1509513;14120
1509522;13867
1509530;13966
1509539;13726
1509547;13801
1509555;13565
1509563;13695
1509571;13460
1509580;13573
1509588;13295
1509596;13362
1509604;13035
1509612;13136
1509620;12788
1509629;12810
1509637;12411
1509645;12360
1509653;11947
1509661;12007
1509673;11903
1509681;12122
1509689;12111
1509697;12392
1509705;12611
1509714;13170
1509722;13473
1509730;14013
1509738;14162
1509746;14524
1509755;14499
1509763;14757
1509771;14624
1509779;14789
1509787;14590
1509796;14735
1509804;14515
1509812;14660
1509820;14439
1509828;14581
1509838;14335
1509846;14489
1509854;14261
1509862;14422
1509870;14123
1509879;14304
1509887;14109
1509895;14322
1509903;14084
1509911;14269
1509919;14099
1509928;14274
1509936;14036
1509944;14247
1509955;14122
1509964;14289
1509972;14122
1509980;14176
1509988;13893
1509996;13861
1510004;13635
1510013;13793
1510021;13644
1510029;13842
1510037;13708
1510045;13950
1510054;13835
1510062;14080
1510070;13874
1510078;14034
1510086;13830
1510095;14007
1510103;13824
1510111;14002
1510119;13717
1510127;13821
1510136;14222
1510144;13788
1510152;10459
1510160;6647
1510168;5386
1510178;12383
1510186;15849
1510194;15658
1510202;14756
1510210;14589
1510218;14189
1510227;14100
1510238;13807
1510246;13902
1510254;13624
1510263;13692
1510271;13447
1510279;13551
1510287;13272
1510295;13372
1510303;13059
1510312;13133
1510320;12829
1510328;12878
1510336;12506
1510344;12513
1510353;12044
1510361;11965
1510369;11583
1510377;11746
1510385;11553
1510394;11844
1510402;11772
1510410;12221
1510418;12413
1510426;13053
1510435;13280
1510443;13808
1510451;13880
1510459;14237
1510468;14145
1510477;14364
1510485;14240
1510493;14400
1510501;14196
1510509;14282
1510521;14084
1510529;14280
1510537;13979
1510545;14073
1510553;13772
1510562;13914
1510570;13715
1510578;13916
1510586;13693
1510594;13875
1510602;13672
1510611;13885
1510619;13703
1510627;13860
1510635;13640
1510643;13837
1510652;13675
1510660;13878
1510668;13673
1510676;13860
1510684;13564
1510693;13634
1510701;13316
1510709;13468
1510717;13326
1510725;13496
1510734;13320
1510742;13471
1510750;13417
1510758;13636
1510766;13560
1510775;13683
1510784;13551
1510792;13633
1510802;13560
1510810;13794
1510819;13511
1510828;13603
1510836;13668
1510844;13935
1510852;11582
1510861;8062
1510869;5793
1510877;9994
1510885;15820
1510893;15874
1510902;14937
1510910;14465
1510918;14027
1510926;14008
1510934;13615
1510942;13687
1510951;13507
1510959;13599
1510967;13400
1510975;13472
1510983;13264
1510992;13296
1511000;13102
1511008;13134
1511016;12880
1511024;12840
1511033;12568
1511041;12457
1511049;12132
1511057;11940
1511065;11669
1511074;11619
1511082;11568
1511093;11844
1511101;11827
1511109;12259
1511118;12438
1511126;13066
1511134;13320
1511142;13877
1511150;13981
1511160;14383
1511168;14342
1511176;14569
1511184;14428
1511192;14540
1511201;14347
1511209;14457
1511217;14280
1511225;14366
1511233;14175
1511241;14249
1511250;14100
1511258;14156
1511266;14023
1511274;14094
1511282;14007
1511291;14069
1511299;14000
1511307;14050
1511315;14019
1511323;14074
1511332;14037
1511340;14006
1511348;14007
1511356;13999
1511364;13998
1511376;14049
1511384;13893
1511392;13952
1511400;13611
1511408;13602
1511417;13426
1511425;13637
1511433;13564
1511441;13709
1511449;13585
1511459;13731
1511467;13694
1511475;13879
1511483;13748
1511491;13778
1511500;13650
1511508;13718
1511516;13610
1511524;13641
1511532;13487
1511540;14042
1511549;13640
1511557;10824
1511565;6449
1511573;4543
1511581;10196
1511590;15326
1511598;15336
1511606;14680
1511614;14426
1511622;14205
1511631;13978
1511639;13802
1511647;13748
1511658;13704
1511666;13573
1511675;13672
1511683;13476
1511691;13521
1511699;13334
1511707;13377
1511716;13207
1511724;13195
1511732;12925
1511740;12815
1511748;12529
1511757;12335
1511765;12028
1511774;11921
1511782;11839
1511790;11898
1511799;11948
1511807;12112
1511815;12361
1511823;12746
1511831;13221
1511839;13629
1511848;14062
1511856;14322
1511864;14559
1511872;14613
1511880;14720
1511889;14657
1511897;14740
1511905;14660
1511913;14733
1511921;14615
1511930;14685
1511941;14695
1511949;14568
1511957;14571
1511965;14452
1511974;14476
1511982;14329
1511990;14342
1511998;14218
1512006;14189
1512015;14114
1512023;14106
1512031;14096
1512039;14056
1512047;14042
1512056;14027
1512064;14068
1512072;14034
1512080;14059
1512089;13947
1512098;13878
1512106;13694
1512114;13714
1512122;13656
1512130;13790
1512138;13665
1512147;13771
1512155;13700
1512163;13890
1512171;13805
1512179;13887
1512188;13711
1512196;13814
1512204;13653
1512212;13756
1512223;13656
1512232;13535
1512240;14060
1512248;13703
1512256;10949
1512264;6543
1512273;4618
1512281;10335
1512289;15422
1512297;15378
1512305;14677
1512314;14378
1512322;14112
1512330;13924
1512338;13714
1512346;13714
1512355;13571
1512363;13614
1512371;13485
1512379;13544
1512387;13370
1512396;13417
1512404;13178
1512413;13194
1512421;12918
1512429;12918
1512438;12600
1512446;12526
1512454;12120
1512462;12060
1512470;11696
1512478;11757
1512487;11560
1512495;11811
1512503;11707
1512514;12172
1512522;12556
1512531;12995
1512539;13349
1512547;13776
1512555;13990
1512563;14250
1512572;14275
1512580;14423
1512588;14348
1512596;14479
1512604;14340
1512613;14428
1512621;14246
1512629;14316
1512637;14128
1512645;14233
1512654;14018
1512662;14101
1512670;13935
1512678;14102
1512686;13924
1512695;14109
1512703;13904
1512711;14055
1512719;13905
1512727;14088
1512737;13900
1512745;14059
1512753;13806
1512761;13968
1512769;13747
1512777;13959
1512786;13748
1512797;13974
1512805;13948
1512813;13928
1512822;13716
1512830;13630
1512838;13440
1512846;13540
1512854;13424
1512862;13499
1512871;13376
1512879;13572
1512887;13485
1512895;13748
1512903;13614
1512912;13727
1512920;13551
1512928;13725
1512936;13554
1512944;13729
1512953;13486
1512961;13612
1512969;14060
1512977;13243
1512985;9582
1512994;5856
1513002;5525
1513010;13155
1513018;15584
1513026;15297
1513034;14478
1513044;14488
1513052;14077
1513060;14062
1513068;13707
1513079;13853
1513087;13759
1513096;13824
1513104;13623
1513112;13723
1513121;13495
1513129;13599
1513137;13347
1513145;13344
1513153;13001
1513161;13002
1513170;12617
1513178;12599
1513186;12197
1513194;12194
1513202;11821
1513211;11948
1513219;11738
1513227;11976
1513235;11904
1513243;12336
1513252;12486
1513260;13112
1513268;13283
1513276;13834
1513284;13870
1513293;14261
1513301;14183
1513309;14431
1513317;14281
1513325;14439
1513334;14210
1513342;14378
1513351;14152
1513361;14330
1513369;14188
1513378;14277
1513386;14041
1513394;14168
1513403;13962
1513411;14156
1513420;13917
1513428;14071
1513436;13863
1513444;14005
1513452;13815
1513460;14006
1513469;13795
1513477;13982
1513485;13771
1513493;13923
1513501;13669
1513510;13901
1513518;13692
1513526;13888
1513534;13595
1513542;13689
1513551;13332
1513559;13456
1513567;13293
1513575;13534
1513583;13383
1513592;13606
1513600;13503
1513608;13737
1513616;13622
1513624;13806
1513633;13657
1513644;13934
1513652;13760
1513660;13881
1513668;13638
1513677;13765
1513685;13962
1513693;13983
1513701;11313
1513709;7599
1513718;5456
1513727;11003
1513735;15889
1513743;15802
1513751;14893
1513759;14612
1513768;14286
1513776;14228
1513784;13823
1513792;13895
1513800;13610
1513809;13718
1513817;13491
1513825;13620
1513833;13372
1513841;13428
1513850;13197
1513858;13292
1513866;13027
1513874;13049
1513882;12793
1513891;12742
1513899;12399
1513907;12310
1513915;12013
1513923;12012
1513935;11882
1513943;12171
1513951;12052
1513959;12441
1513967;12558
1513976;13145
1513984;13360
1513992;13945
1514000;14012
1514008;14398
1514017;14370
1514025;14669
1514033;14505
1514042;14680
1514050;14445
1514058;14580
1514067;14360
1514075;14453
1514083;14211
1514091;14266
1514099;14069
1514108;14181
1514116;14033
1514124;14185
1514132;14037
1514140;14112
1514149;13999
1514157;14125
1514165;14011
1514173;14128
1514181;14015
1514190;14016
1514198;13945
1514206;13926
1514217;13677
1514225;13842
1514234;13602
1514242;13754
1514250;13587
1514258;13834
1514266;13700
1514275;13959
1514283;13818
1514291;14007
1514299;13825
1514307;13960
1514316;13749
1514324;13894
1514332;13723
1514340;13803
1514348;13551
1514356;14279
1514366;13280
1514374;10171
1514382;6845
1514390;6624
1514398;13738
1514407;16442
1514415;15643
1514423;14944
1514431;14349
1514439;14218
1514448;13937
1514456;13768
1514464;13637
1514472;13563
1514480;13480
1514489;13443
1514500;13369
1514508;13519
1514516;13218
1514524;13268
1514533;12987
1514541;13033
1514549;12730
1514557;12670
1514565;12278
1514574;12148
1514582;11754
1514590;11750
1514598;11623
1514606;11827
1514615;11845
1514623;12134
1514631;12375
1514639;12876
1514647;13244
1514655;13737
1514664;13998
1514672;14275
1514680;14393
1514688;14520
1514697;14521
1514706;14539
1514714;14533
1514722;14483
1514730;14424
1514738;14368
1514747;14320
1514755;14240
1514763;14215
1514771;14097
1514782;14034
1514791;14176
1514799;13972
1514807;14089
1514815;13942
1514823;14042
1514832;13918
1514840;14013
1514848;13849
1514856;13869
1514864;13598
1514873;13547
1514881;13361
1514889;13373
1514897;13340
1514905;13450
1514914;13513
1514922;13586
1514930;13645
1514938;13706
1514946;13696
1514954;13646
1514963;13655
1514971;13620
1514979;13614
1514987;13493
1514995;13473
1515004;13464
1515013;14050
1515021;12415
1515029;8647
1515037;5024
1515046;6794
1515054;14501
1515064;15558
1515073;15046
1515081;14473
1515090;14366
1515098;14003
1515106;13893
1515114;13729
1515122;13683
1515131;13574
1515139;13562
1515147;13490
1515155;13464
1515163;13378
1515172;13276
1515180;13196
1515188;13067
1515196;12969
1515204;12763
1515213;12618
1515221;12345
1515229;12182
1515237;11951
1515245;11925
1515254;11831
1515262;12013
1515270;12051
1515278;12377
1515286;12599
1515294;13156
1515303;13429
1515311;13903
1515319;14092
1515327;14431
1515335;14394
1515345;14592
1515355;14631
1515363;14619
1515371;14608
1515379;14485
1515389;14378
1515397;14286
1515405;14185
1515413;14113
1515421;14013
1515430;13990
1515438;13889
1515446;13883
1515454;13768
1515462;13816
1515471;13756
1515479;13814
1515487;13750
1515495;13888
1515503;13803
1515512;13847
1515520;13684
1515528;13718
1515536;13435
1515544;13524
1515553;13390
1515561;13545
1515569;13353
1515577;13570
1515585;13506
1515593;13784
1515602;13683
1515610;13863
1515618;13684
1515626;13905
1515638;13824
1515646;13867
1515654;13768
1515662;13670
1515670;14183
1515678;13783
1515687;10676
1515695;6147
1515703;4290
1515712;10672
1515720;15355
1515729;15377
1515737;14707
1515745;14582
1515753;14244
1515761;14135
1515770;13889
1515778;13935
1515786;13714
1515794;13816
1515802;13594
1515811;13732
1515819;13495
1515827;13596
1515835;13362
1515843;13441
1515852;13119
1515860;13159
1515868;12783
1515876;12776
1515884;12394
1515892;12371
1515901;12012
1515909;12119
1515920;11988
1515928;12161
1515937;12166
1515945;12462
1515953;12697
1515961;13210
1515969;13488
1515977;13949
1515986;14064
1515994;14323
1516002;14267
1516010;14438
1516019;14274
1516028;14414
1516036;14254
1516044;14393
1516052;14209
1516060;14344
1516069;14143
1516077;14284
1516085;14055
1516093;14194
1516101;13944
1516110;14080
1516118;13836
1516126;13996
1516134;13780
1516142;13985
1516151;13769
1516159;13958
1516167;13747
1516175;13948
1516183;13759
1516191;13971
1516203;13838
1516211;13920
1516219;13649
1516227;13573
1516236;13358
1516244;13508
1516252;13382
1516260;13542
1516268;13410
1516276;13673
1516285;13603
1516293;13845
1516301;13659
1516309;13848
1516317;13645
1516326;13828
1516335;13627
1516343;13771
1516351;13524
1516359;13734
1516368;14165
1516376;13094
1516384;9097
1516392;5314
1516400;5631
1516409;13600
1516417;15475
1516425;15171
1516433;14436
1516441;14477
1516450;14004
1516458;13997
1516466;13726
1516474;13857
1516485;13662
1516494;13820
1516502;13571
1516510;13721
1516518;13503
1516526;13625
1516535;13328
1516543;13412
1516551;13084
1516559;13159
1516567;12819
1516575;12803
1516584;12334
1516592;12336
1516600;11995
1516608;12184
1516616;12031
1516625;12334
1516633;12239
1516641;12702
1516649;12929
1516657;13573
1516666;13765
1516675;14249
1516683;14244
1516691;14594
1516699;14464
1516708;14679
1516716;14499
1516724;14647
1516732;14376
1516740;14483
1516749;14274
1516757;14425
1516765;14209
1516776;14344
1516784;14118
1516793;14243
1516801;13971
1516809;14129
1516817;13910
1516825;14081
1516834;13849
1516842;14039
1516850;13828
1516858;14005
1516866;13784
1516874;13946
1516883;13698
1516891;13880
1516899;13667
1516907;13871
1516915;13705
1516924;13885
1516932;13650
1516940;13749
1516948;13455
1516956;13532
1516965;13325
1516973;13544
1516981;13407
1516990;13596
1516998;13496
1517007;13729
1517015;13645
1517023;13872
1517031;13723
1517039;13855
1517048;13730
1517059;13987
1517067;13784
1517075;13935
1517083;13668
1517092;14138
1517100;13893
1517108;11867
1517116;7648
1517124;5549
1517133;9822
1517141;15831
1517149;15623
1517157;15119
1517165;14461
1517174;14497
1517182;14016
1517190;13954
1517198;13704
1517206;13798
1517214;13579
1517223;13649
1517231;13460
1517239;13533
1517247;13289
1517255;13313
1517264;13030
1517272;12994
1517280;12751
1517288;12720
1517296;12456
1517305;12350
1517313;12038
1517322;11945
1517330;11785
1517340;11942
1517349;11839
1517357;12147
1517365;12160
1517374;12659
1517382;12896
1517391;13491
1517399;13672
1517407;14154
1517415;14168
1517423;14454
1517432;14330
1517440;14524
1517448;14361
1517456;14491
1517464;14341
1517473;14456
1517481;14274
1517489;14393
1517497;14208
1517505;14231
1517513;14073
1517522;14132
1517530;13975
1517538;14047
1517546;13974
1517554;14061
1517563;13989
1517571;14003
1517579;13948
1517587;13963
1517595;13901
1517604;13941
1517612;13927
1517623;14056
1517631;13887
1517639;13998
1517648;13809
1517656;13966
1517664;13732
1517672;13793
1517681;13458
1517690;13525
1517698;13363
1517706;13513
1517714;13386
1517722;13548
1517731;13496
1517739;13686
1517747;13681
1517755;13829
1517763;13753
1517772;13834
1517780;13762
1517788;13812
1517796;13702
1517804;13711
1517812;13575
1517821;13915
1517829;13760
1517837;11473
1517845;7800
1517853;6016
1517862;10802
1517870;16072
1517878;15791
1517886;14988
1517894;14398
1517934;15428
1517944;15222
1517952;14636
1517960;14453
1517968;14007
1517976;13916
1517985;13462
1517993;13420
1518001;13029
1518009;12986
1518017;12562
1518025;12488
1518034;12002
1518042;11892
1518050;11415
1518058;11442
1518066;11196
1518075;11428
1518083;11285
1518091;11642
1518099;11749
1518107;12398
1518116;12668
1518124;13324
1518132;13476
1518140;13877
1518148;13838
1518157;14103
1518165;13955
1518173;14167
1518181;13970
1518189;14162
1518199;13955
1518207;14099
1518215;13860
1518225;14037
1518233;13836
1518242;13924
1518250;13670
1518259;13808
1518267;13582
1518275;13705
1518284;13461
1518292;13650
1518300;13438
1518308;13647
1518316;13465
1518324;13651
1518333;13432
1518341;13642
1518349;13441
1518357;13610
1518365;13371
1518374;13523
1518382;13299
1518390;13478
1518398;13281
1518406;13443
1518415;13266
1518423;13379
1518431;13048
1518439;13099
1518447;12918
1518456;13100
1518464;12943
1518472;13079
1518480;12926
1518488;13093
1518497;13044
1518508;13379
1518516;13263
1518524;13442
1518532;13234
1518541;13459
1518549;13193
1518557;13348
1518565;13118
1518574;13945
1518583;12666
1518591;9377
1518599;5331
1518607;5602
1518615;12816
1518623;15420
1518632;14753
1518640;14385
1518648;14053
1518656;14017
1518664;13648
1518673;13711
1518681;13477
1518689;13620
1518697;13418
1518705;13538
1518714;13363
1518722;13427
1518730;13273
1518738;13343
1518746;13134
1518755;13140
1518763;12925
1518771;12863
1518779;12537
1518790;12475
1518799;12086
1518807;12109
1518815;11821
1518823;12066
1518831;11919
1518840;12258
1518848;12339
1518856;12924
1518864;13153
1518872;13765
1518881;13944
1518889;14373
1518897;14349
1518906;14641
1518914;14530
1518922;14675
1518931;14495
1518939;14624
1518947;14495
1518955;14619
1518963;14464
1518972;14548
1518980;14400
1518988;14490
1518996;14330
1519004;14377
1519013;14242
1519021;14301
1519029;14187
1519037;14230
1519045;14148
1519054;14169
1519062;14087
1519081;14403
1519089;14578
1519098;14298
1519106;14408
1519114;14192
1519122;14308
1519130;14008
1519139;13997
1519147;13694
1519155;13801
1519163;13690
1519171;13818
1519180;13670
1519188;13830
1519196;13787
1519204;14006
1519212;13902
1519222;13939
1519230;13815
1519238;13895
1519246;13800
1519254;13839
1519262;13725
1519271;13708
1519279;14109
1519287;13882
1519295;11168
1519303;6934
1519312;4926
1519320;10520
1519328;15639
1519336;15551
1519344;14909
1519353;14545
1519364;14251
1519372;14267
1519380;13975
1519388;13993
1519397;13737
1519405;13842
1519413;13642
1519421;13707
1519429;13558
1519438;13581
1519446;13389
1519454;13373
1519462;13126
1519470;13043
1519479;12771
1519487;12639
1519495;12370
1519503;12221
1519511;11994
1519519;11955
1519528;11925
1519536;12030
1519545;12136
1519553;12388
1519561;12754
1519570;13190
1519578;13624
1519586;13936
1519594;14251
1519602;14393
1519611;14537
1519619;14528
1519627;14646
1519635;14578
1519643;14682
1519655;14732
1519663;14614
1519671;14663
1519679;14518
1519687;14526
1519696;14367
1519704;14375
1519712;14263
1519720;14273
1519728;14126
1519737;14120
1519745;14076
1519753;14067
1519761;14031
1519769;13990
1519778;13961
1519786;13909
1519794;13867
1519802;13852
1519810;13870
1519818;13811
1519827;13854
1519835;13744
1519843;13687
1519851;13439
1519859;13427
1519869;13350
1519877;13464
1519885;13368
1519893;13504
1519901;13452
1519910;13623
1519918;13582
1519926;13734
1519937;13760
1519945;13749
1519954;13769
1519962;13694
1519970;13663
1519978;13534
1519986;13741
1519995;13903
1520003;11960
1520011;8003
1520019;5266
1520027;8733
1520036;15321
1520044;15568
1520052;14763
1520060;14236
1520068;13995
1520077;13852
1520085;13630
1520093;13673
1520101;13526
1520109;13548
1520118;13349
1520126;13362
1520134;13173
1520142;13248
1520150;13068
1520158;13132
1520167;12905
1520175;12929
1520184;12621
1520192;12623
1520200;12237
1520209;12171
1520219;11879
1520228;11824
1520236;11807
1520244;11856
1520253;11959
1520261;12184
1520269;12480
1520277;12909
1520285;13292
1520294;13714
1520302;13968
1520310;14246
1520318;14326
1520326;14507
1520335;14467
1520343;14559
1520351;14456
1520359;14551
1520367;14381
1520376;14506
1520384;14355
1520392;14445
1520400;14238
1520408;14337
1520417;14148
1520425;14271
1520433;14065
1520441;14192
1520449;14023
1520457;14187
1520466;13975
1520474;14134
1520482;13949
1520491;14154
1520502;14160
1520510;14226
1520518;14100
1520526;14088
1520534;13842
1520543;13770
1520552;13600
1520560;13652
1520568;13570
1520576;13732
1520584;13694
1520593;13850
1520601;13757
1520609;13894
1520617;13749
1520625;13877
1520634;13738
1520642;13903
1520650;13708
1520658;13851
1520666;13661
1520675;13919
1520683;14176
1520691;12676
1520699;8864
1520707;6665
1520716;8565
1520724;15877
1520732;16211
1520740;15625
1520748;14705
1520756;14516
1520765;14108
1520773;14041
1520784;13774
1520792;13837
1520801;13612
1520809;13616
1520817;13408
1520825;13433
1520833;13211
1520841;13229
1520850;12987
1520858;13004
1520867;12706
1520875;12726
1520883;12371
1520892;12313
1520900;11929
1520908;11917
1520916;11642
1520924;11813
1520933;11688
1520941;11995
1520949;12005
1520957;12530
1520965;12767
1520974;13406
1520982;13589
1520990;14077
1520998;14083
1521006;14404
1521015;14249
1521023;14515
1521031;14347
1521039;14544
1521047;14286
1521055;14427
1521064;14148
1521075;14275
1521083;14141
1521091;14196
1521100;13926
1521108;14012
1521116;13795
1521124;13931
1521132;13727
1521140;13884
1521149;13694
1521157;13876
1521166;13708
1521174;13882
1521182;13674
1521191;13878
1521199;13692
1521207;13893
1521215;13660
1521223;13848
1521232;13633
1521240;13791
1521248;13492
1521256;13581
1521264;13352
1521273;13568
1521281;13372
1521289;13553
1521297;13370
1521305;13597
1521314;13453
1521322;13673
1521330;13469
1521338;13641
1521346;13438
1521358;13648
1521366;13470
1521374;13553
1521382;13390
1521390;14004
1521399;12176
1521407;8499
1521415;4953
1521423;6898
1521431;14237
1521439;15639
1521448;14807
1521456;14459
1521464;14096
1521472;14053
1521480;13658
1521489;13725
1521498;13438
1521506;13542
1521514;13284
1521522;13414
1521531;13159
1521539;13300
1521547;13023
1521555;13111
1521563;12840
1521572;12936
1521580;12647
1521588;12676
1521596;12287
1521604;12217
1521613;11848
1521621;11853
1521629;11633
1521640;11933
1521648;11887
1521657;12238
1521665;12314
1521673;12936
1521681;13185
1521689;13757
1521698;13859
1521706;14307
1521714;14250
1521722;14516
1521730;14337
1521738;14557
1521747;14335
1521755;14517
1521763;14276
1521771;14408
1521779;14178
1521788;14354
1521796;14109
1521804;14259
1521812;14049
1521821;14195
1521830;14001
1521838;14104
1521846;13937
1521854;14105
1521862;13938
1521871;14086
1521879;13910
1521887;14016
1521895;13877
1521903;13992
1521912;13900
1521923;14104
1521931;13898
1521939;13904
1521947;13589
1521956;13818
1521964;13686
1521972;13893
1521980;13686
1521988;13910
1521997;13762
1522005;14048
1522013;13864
1522021;14005
1522029;13777
1522038;13907
1522046;13696
1522054;13845
1522062;13618
1522070;13733
1522078;14188
1522087;12962
1522095;8956
1522103;5130
1522111;5745
1522119;13723
1522128;15635
1522137;15243
1522145;14643
1522153;14599
1522161;14287
1522170;14231
1522178;14074
1522186;14056
1522194;13935
1522202;13931
1522214;13810
1522222;13993
1522230;13703
1522238;13785
1522246;13471
1522255;13533
1522263;13223
1522271;13244
1522279;12840
1522287;12762
1522296;12333
1522304;12249
1522312;11947
1522320;12043
1522328;11943
1522337;12178
1522345;12207
1522353;12640
1522361;12928
1522369;13464
1522377;13794
1522386;14199
1522394;14325
1522402;14541
1522410;14521
1522418;14600
1522427;14553
1522435;14608
1522443;14574
1522452;14557
1522460;14483
1522469;14446
1522477;14392
1522485;14337
1522496;14246
1522504;14389
1522513;14110
1522521;14223
1522529;14001
1522537;14095
1522545;13891
1522554;13998
1522562;13833
1522570;13968
1522578;13833
1522586;13914
1522595;13779
1522603;13897
1522611;13808
1522619;13905
1522627;13775
1522636;13728
1522644;13465
1522652;13372
1522660;13294
1522668;13375
1522676;13384
1522685;13464
1522693;13480
1522701;13559
1522709;13630
1522717;13614
1522726;13575
1522734;13537
1522742;13533
1522751;13496
1522759;13537
1522768;13409
1522778;13370
1522786;14282
1522794;13028
1522803;9585
1522812;5490
1522820;5740
1522828;13300
1522836;15680
1522844;15051
1522853;14542
1522861;14295
1522869;14124
1522877;13849
1522885;13748
1522894;13601
1522902;13537
1522910;13450
1522918;13415
1522926;13331
1522935;13259
1522943;13185
1522951;13063
1522959;12987
1522967;12861
1522975;12784
1522984;12556
1522992;12387
1523000;12088
1523008;11950
1523016;11729
1523025;11711
1523033;11604
1523041;11750
1523049;11744
1523060;12132
1523069;12656
1523077;12992
1523085;13463
1523093;13720
1523101;14014
1523110;14105
1523118;14251
1523127;14234
1523135;14297
1523143;14281
1523152;14273
1523160;14148
1523168;14090
1523176;14019
1523184;13950
1523193;13937
1523201;13827
1523209;13796
1523217;13682
1523225;13721
1523234;13611
1523242;13683
1523250;13587
1523258;13676
1523266;13634
1523274;13744
1523283;13667
1523291;13791
1523299;13689
1523307;13800
1523315;13668
1523324;13802
1523332;13679
1523343;13796
1523351;13920
1523359;13798
1523368;13675
1523376;13468
1523384;13396
1523392;13380
1523400;13391
1523409;13421
1523417;13432
1523425;13541
1523434;13597
1523442;13674
1523451;13655
1523459;13686
1523467;13599
1523475;13659
1523483;13576
1523492;13639
1523500;13518
1523508;13576
1523516;14176
1523524;13456
1523533;10005
1523541;5937
1523549;5191
1523557;12626
1523565;15584
1523574;15320
1523582;14556
1523590;14509
1523598;14152
1523606;14069
1523614;13813
1523623;13927
1523634;13859
1523642;13853
1523650;13769
1523658;13716
1523667;13625
1523675;13577
1523683;13446
1523691;13382
1523699;13189
1523708;13086
1523716;12828
1523724;12694
1523732;12379
1523740;12263
1523749;12020
1523757;12060
1523765;11969
1523774;12150
1523782;12140
1523791;12486
1523799;12722
1523807;13347
1523815;13682
1523823;14217
1523832;14355
1523840;14697
1523848;14664
1523856;14837
1523864;14671
1523873;14852
1523881;14620
1523889;14779
1523897;14555
1523905;14701
1523917;14601
1523925;14685
1523933;14558
1523941;14589
1523949;14419
1523958;14473
1523966;14341
1523974;14414
1523982;14264
1523990;14340
1523998;14175
1524007;14253
1524015;14096
1524023;14195
1524031;14024
1524039;14154
1524048;13976
1524056;14112
1524064;13941
1524072;14122
1524080;13915
1524089;13906
1524098;13549
1524106;13676
1524114;13531
1524122;13729
1524131;13524
1524139;13779
1524147;13632
1524155;13928
1524163;13809
1524172;14013
1524180;13806
1524188;13989
1524199;13852
1524207;13995
1524216;13854
1524224;13889
1524232;14329
1524240;13772
1524248;10586
1524257;7249
1524265;6368
1524273;13485
1524281;16337
1524289;15860
1524297;14918
1524306;14632
1524314;14247
1524322;14157
1524330;13799
1524338;13865
1524347;13597
1524355;13683
1524363;13393
1524371;13552
1524379;13269
1524388;13344
1524396;13032
1524404;13114
1524412;12821
1524420;12888
1524430;12507
1524438;12485
1524446;12066
1524454;12024
1524462;11627
1524471;11730
1524482;11660
1524490;11986
1524498;11944
1524506;12320
1524515;12515
1524523;13117
1524531;13321
1524539;13845
1524547;13961
1524556;14387
1524564;14336
1524572;14606
1524580;14448
1524588;14682
1524596;14469
1524605;14640
1524613;14415
1524621;14539
1524629;14249
1524637;14359
1524646;14045
1524654;14171
1524662;13926
1524670;14076
1524678;13813
1524687;13986
1524695;13793
1524703;13988
1524711;13824
1524719;13947
1524728;13727
1524737;13760
1524745;13461
1524753;13530
1524763;13425
1524772;13721
1524780;13562
1524789;13812
1524797;13696
1524805;13931
1524814;13749
1524822;13945
1524830;13716
1524838;13895
1524846;13668
1524855;13856
1524863;13573
1524871;13736
1524879;13796
1524887;13791
1524895;11226
1524904;7830
1524912;5934
1524920;11068
1524928;16243
1524936;16033
1524945;15073
1524953;14573
1524961;14094
1524969;14016
1524977;13627
1524986;13649
1524994;13383
1525002;13445
1525010;13215
1525018;13260
1525027;13048
1525035;13097
1525046;12912
1525054;13030
1525062;12667
1525071;12713
1525079;12349
1525087;12301
1525095;11854
1525104;11855
1525113;11481
1525121;11631
1525129;11502
1525137;11763
1525145;11698
1525154;12153
1525162;12347
1525170;12982
1525178;13238
1525186;13746
1525194;13842
1525203;14159
1525211;14102
1525219;14324
1525227;14228
1525235;14407
1525244;14257
1525252;14363
1525260;14210
1525268;14284
1525276;14091
1525285;14137
1525293;13967
1525301;13991
1525309;13868
1525317;13899
1525326;13802
1525337;14017
1525345;13872
1525353;14043
1525361;13815
1525370;13946
1525378;13627
1525386;13692
1525394;13449
1525402;13583
1525412;13387
1525420;13637
1525428;13532
1525436;13795
1525444;13749
1525453;13912
1525461;13751
1525469;13887
1525477;13731
1525485;13836
1525494;13661
1525502;13705
1525510;13495
1525518;14107
1525526;13747
1525534;11073
1525543;6644
1525551;4537
1525559;10453
1525567;15704
1525575;15532
1525584;14904
1525592;14508
1525600;14387
1525608;14119
1525619;14113
1525628;13871
1525636;13929
1525644;13679
1525652;13796
1525660;13615
1525669;13689
1525677;13391
1525685;13438
1525693;13160
1525701;13159
1525710;12877
1525718;12825
1525726;12502
1525734;12378
1525743;12090
1525752;12040
1525760;11896
1525768;12001
1525776;11977
1525784;12221
1525793;12470
1525801;12933
1525809;13345
1525817;13783
1525825;14121
1525833;14382
1525842;14518
1525850;14583
1525858;14614
1525866;14603
1525874;14604
1525883;14521
1525891;14507
1525902;14558
1525910;14427
1525918;14516
1525927;14292
1525935;14344
1525943;14144
1525951;14195
1525959;14002
1525968;14052
1525976;13921
1525984;13981
1525992;13821
1526000;13860
1526009;13829
1526017;13906
1526025;13869
1526033;13863
1526041;13769
1526050;13652
1526058;13527
1526067;13537
1526075;13570
1526083;13577
1526092;13608
1526100;13664
1526108;13757
1526116;13809
1526124;13844
1526132;13732
1526141;13756
1526149;13661
1526157;13714
1526165;13574
1526173;13607
1526185;13797
1526193;14110
1526201;12147
1526209;7633
1526217;4223
1526226;6814
1526234;14538
1526242;15497
1526250;14988
1526258;14560
1526267;14417
1526275;14136
1526283;14022
1526291;13922
1526299;13821
1526308;13750
1526316;13663
1526324;13618
1526332;13510
1526340;13488
1526349;13392
1526357;13379
1526365;13203
1526373;13150
1526381;12939
1526391;12864
1526399;12587
1526407;12444
1526415;12131
1526423;12096
1526431;11928
1526440;12097
1526448;12035
1526456;12335
1526467;12784
1526476;13199
1526484;13623
1526492;13933
1526500;14219
1526508;14385
1526516;14487
1526525;14545
1526533;14547
1526541;14509
1526549;14447
1526557;14416
1526566;14331
1526574;14299
1526582;14185
1526590;14206
1526598;14084
1526607;14129
1526615;14014
1526623;13986
1526631;13880
1526639;13972
1526648;13872
1526656;14000
1526664;13872
1526672;14010
1526680;13864
1526689;14050
1526698;13905
1526706;14009
1526714;13770
1526722;13808
1526730;13481
1526739;13604
1526747;13466
1526758;13593
1526766;13625
1526775;13630
1526783;13664
1526791;13758
1526799;13717
1526807;13748
1526815;13678
1526824;13697
1526832;13592
1526840;13666
1526848;13537
1526856;13537
1526865;13765
1526873;13910
1526881;11330
1526889;6983
1526897;4161
1526906;8792
1526914;15072
1526922;15542
1526930;14787
1526938;14616
1526947;14288
1526955;14185
1526963;13873
1526971;13946
1526979;13686
1526988;13788
1526996;13515
1527004;13642
1527012;13364
1527021;13499
1527030;13217
1527040;13317
1527048;13188
1527056;13110
1527064;12839
1527074;12693
1527082;12362
1527090;12230
1527098;11922
1527106;11956
1527114;11865
1527123;12121
1527131;12072
1527139;12437
1527147;12654
1527155;13239
1527164;13499
1527172;14016
1527180;14107
1527188;14448
1527196;14335
1527205;14550
1527213;14389
1527221;14597
1527229;14380
1527237;14540
1527246;14301
1527254;14478
1527262;14250
1527270;14401
1527278;14127
1527287;14272
1527295;14059
1527303;14235
1527311;13998
1527322;14183
1527331;14107
1527339;14169
1527347;13984
1527355;14101
1527363;13955
1527372;14092
1527381;13932
1527389;14085
1527397;13925
1527405;14065
1527414;13836
1527422;14006
1527430;13750
1527438;13829
1527446;13489
1527454;13645
1527463;13504
1527471;13750
1527479;13560
1527487;13788
1527495;13661
1527504;13981
1527512;13864
1527520;14054
1527528;13773
1527536;13909
1527545;13676
1527553;13868
1527561;13651
1527569;13734
1527577;13669
1527586;14266
1527594;12316
1527605;7458
1527613;5780
1527621;11744
1527630;16063
1527638;15814
1527646;14937
1527654;14600
1527662;14262
1527671;14198
1527680;13786
1527688;13874
1527696;13593
1527704;13737
1527713;13466
1527721;13590
1527729;13323
1527737;13457
1527745;13148
1527753;13248
1527762;12948
1527770;13031
1527778;12640
1527786;12636
1527794;12219
1527803;12184
1527811;11784
1527819;11851
1527827;11629
1527835;11844
1527844;11782
1527852;12158
1527860;12280
1527868;12879
1527876;13148
1527888;13864
1527896;13971
1527904;14311
1527912;14205
1527920;14430
1527929;14283
1527937;14505
1527945;14316
1527953;14490
1527961;14241
1527970;14368
1527978;14099
1527987;14191
1527995;13930
1528003;14068
1528012;13832
1528020;14007
1528028;13789
1528036;13968
1528044;13776
1528052;13984
1528061;13804
1528069;14011
1528077;13831
1528085;13983
1528093;13792
1528102;13966
1528110;13790
1528118;13939
1528126;13795
1528134;13971
1528143;13834
1528151;13945
1528159;13700
1528167;13701
1528178;13477
1528187;13738
1528195;13518
1528203;13681
1528211;13474
1528219;13710
1528228;13558
1528236;13821
1528244;13619
1528252;13812
1528260;13588
1528269;13737
1528277;13482
1528285;13613
1528293;13342
1528301;13485
1528311;13931
1528319;12912
1528327;9180
1528335;5843
1528343;6058
1528351;13803
1528360;15609
1528368;15175
1528376;14414
1528384;14259
1528392;13917
1528401;13772
1528409;13533
1528417;13558
1528425;13355
1528433;13370
1528442;13226
1528450;13237
1528461;13026
1528469;13201
1528477;12902
1528486;12968
1528494;12652
1528502;12720
1528510;12375
1528518;12368
1528527;11971
1528535;11973
1528543;11629
1528551;11772
1528559;11624
1528568;11888
1528576;11896
1528584;12344
1528592;12637
1528600;13224
1528609;13497
1528617;13975
1528625;14098
1528634;14375
1528642;14385
1528650;14563
1528659;14453
1528667;14495
1528675;14409
1528683;14455
1528691;14300
1528700;14304
1528708;14216
1528716;14226
1528724;14150
1528732;14171
1528744;14133
1528752;14344
1528760;14130
1528768;14337
1528776;14166
1528785;14289
1528793;14084
1528801;14210
1528809;14063
1528817;14195
1528826;14017
1528834;14133
1528842;13981
1528850;14065
1528858;13971
1528867;14056
1528875;13930
1528883;13921
1528891;13692
1528899;13602
1528908;13454
1528916;13486
1528924;13454
1528932;13483
1528940;13474
1528948;13577
1528958;13616
1528966;13713
1528974;13727
1528982;13689
1528990;13629
1528999;13569
1529007;13526
1529015;13435
1529026;13305
1529034;14035
1529043;13324
1529051;10505
1529059;6153
1529067;4763
1529075;10826
1529084;15452
1529092;15198
1529100;14669
1529108;14277
1529116;14215
1529125;13903
1529133;13850
1529141;13718
1529149;13719
1529157;13609
1529166;13579
1529174;13478
1529182;13427
1529190;13308
1529198;13199
1529207;13119
1529215;12994
1529223;12857
1529231;12672
1529239;12520
1529247;12260
1529256;12070
1529264;11763
1529272;11713
1529281;11611
1529289;11746
1529298;11779
1529308;12148
1529316;12704
1529325;13038
1529334;13583
1529342;13868
1529350;14199
1529358;14282
1529366;14433
1529374;14423
1529383;14514
1529391;14462
1529399;14458
1529407;14420
1529415;14395
1529424;14330
1529432;14301
1529440;14315
1529448;14235
1529456;14188
1529465;14124
1529473;14145
1529481;14051
1529489;14091
1529497;14018
1529506;14081
1529514;14006
1529522;14075
1529530;13985
1529538;14057
1529546;13882
1529555;13970
1529563;13821
1529571;13946
1529579;13800
1529588;13926
1529599;13936
1529607;13787
1529615;13618
1529623;13442
1529631;13426
1529641;13421
1529649;13431
1529657;13457
1529665;13503
1529673;13593
1529682;13629
1529690;13706
1529698;13666
1529706;13669
1529714;13601
1529723;13658
1529731;13568
1529739;13613
1529747;13413
1529755;14020
1529764;13515
1529772;10753
1529780;6316
1529788;4740
1529796;10712
1529805;15572
1529813;15235
1529821;14695
1529829;14232
1529837;14193
1529846;13760
1529854;13845
1529862;13602
1529870;13749
1529881;13663
1529890;13712
1529898;13669
1529906;13619
1529914;13486
1529922;13426
1529930;13310
1529939;13265
1529947;13044
1529955;12972
1529964;12670
1529972;12536
1529981;12204
1529989;12141
1529997;11958
1530005;12062
1530013;11958
1530022;12181
1530030;12257
1530038;12745
1530046;13039
1530054;13649
1530063;13892
1530071;14364
1530079;14393
1530087;14668
1530095;14545
1530104;14694
1530112;14475
1530120;14636
1530128;14411
1530136;14566
1530145;14331
1530153;14477
1530164;14378
1530172;14466
1530180;14300
1530189;14326
1530197;14172
1530205;14218
1530213;14041
1530221;14150
1530230;14018
1530238;14129
1530246;14010
1530254;14097
1530262;13854
1530271;13973
1530280;13795
1530288;13938
1530296;13792
1530304;13983
1530312;13786
1530321;13881
1530329;13614
1530337;13645
1530345;13461
1530353;13684
1530362;13522
1530370;13721
1530378;13547
1530386;13808
1530394;13698
1530403;13903
1530411;13716
1530419;13958
1530427;13770
1530435;13958
1530447;13845
1530455;13988
1530463;13767
1530471;14080
1530479;14065
1530488;12153
1530496;8130
1530504;5960
1530512;9660
1530520;16037
1530529;15771
1530537;15229
1530545;14444
1530553;14405
1530561;14016
1530569;13992
1530578;13721
1530587;13876
1530595;13587
1530603;13702
1530611;13388
1530620;13509
1530628;13238
1530636;13371
1530644;13042
1530652;13152
1530661;12858
1530669;12950
1530677;12557
1530685;12532
1530693;12102
1530702;12070
1530710;11732
1530718;11911
1530729;11877
1530737;12218
1530746;12215
1530754;12662
1530762;12821
1530770;13390
1530778;13570
1530787;14035
1530795;14016
1530803;14328
1530811;14206
1530819;14451
1530828;14253
1530836;14449
1530844;14223
1530852;14403
1530860;14145
1530868;14279
1530877;13997
1530885;14142
1530893;13912
1530902;14075
1530910;13827
1530919;13977
1530927;13764
1530935;13956
1530943;13778
1530951;13993
1530960;13805
1530968;13987
1530976;13808
1530984;13985
1530992;13805
1531001;13958
1531009;13804
1531020;14055
1531028;13903
1531036;13978
1531045;13639
1531053;13687
1531061;13434
1531069;13602
1531077;13408
1531086;13613
1531094;13427
1531102;13673
1531110;13553
1531118;13803
1531127;13591
1531135;13782
1531143;13539
1531151;13700
1531159;13471
1531167;13623
1531176;13423
1531184;13640
1531192;14013
1531200;12679
1531208;8751
1531217;6042
1531226;7414
1531234;15080
1531242;15859
1531250;15298
1531259;14459
1531267;14293
1531275;13976
1531283;13832
1531291;13588
1531303;13721
1531311;13475
1531319;13541
1531327;13251
1531335;13394
1531344;13138
1531352;13225
1531360;12940
1531368;13052
1531376;12765
1531385;12760
1531393;12395
1531401;12372
1531409;11919
1531417;11846
1531426;11502
1531434;11652
1531442;11536
1531450;11834
1531458;11872
1531466;12359
1531475;12622
1531483;13206
1531491;13512
1531499;13942
1531507;14041
1531516;14283
1531524;14283
1531532;14442
1531540;14348
1531549;14417
1531558;14291
1531566;14300
1531574;14193
1531584;14286
1531593;14084
1531602;14192
1531610;13921
1531618;14081
1531626;13857
1531634;14042
1531643;13898
1531651;14091
1531659;13945
1531667;14127
1531675;13959
1531684;14113
1531692;13978
1531700;14113
1531708;13979
1531716;14056
1531725;13941
1531733;14048
1531741;13918
1531749;14037
1531757;13952
1531766;14079
1531774;14001
1531782;14039
1531790;13902
1531798;13800
1531806;13591
1531815;13562
1531823;13533
1531831;13577
1531839;13600
1531847;13622
1531856;13635
1531867;13837
1531875;13850
1531883;14025
1531891;13814
1531900;13958
1531908;13780
1531917;13891
1531925;13683
1531933;13749
1531942;13584
1531950;14178
1531958;12722
1531966;9199
1531974;5713
1531983;6940
1531991;14278
1531999;15783
1532007;15092
1532015;14578
1532024;14365
1532032;14187
1532040;13964
1532048;13872
1532056;13772
1532065;13678
1532073;13598
1532081;13483
1532089;13424
1532097;13352
1532105;13300
1532114;13163
1532122;13129
1532130;12914
1532138;12827
1532146;12582
1532158;12333
1532166;12271
1532174;11890
1532182;11807
1532190;11615
1532199;11687
1532207;11628
1532215;11814
1532223;11975
1532231;12460
1532241;12801
1532249;13330
1532257;13646
1532265;13894
1532273;13980
1532282;14109
1532290;14146
1532298;14130
1532306;14131
1532314;14102
1532323;14105
1532331;14054
1532339;14038
1532347;13954
1532355;13900
1532364;13804
1532372;13853
1532380;13808
1532388;13890
1532396;13766
1532404;13821
1532413;13698
1532421;13756
1532429;13591
1532440;13688
1532449;13823
1532457;13698
1532465;13718
1532473;13598
1532481;13598
1532489;13574
1532498;13612
1532506;13664
1532514;13693
1532522;13661
1532530;13617
1532539;13545
1532547;13452
1532556;13422
1532564;13368
1532572;13421
1532581;13335
1532589;13437
1532597;13475
1532605;13644
1532613;13681
1532622;13808
1532630;13710
1532638;13819
1532646;13672
1532654;13759
1532663;13601
1532671;13725
1532679;13511
1532687;14245
1532695;13274
1532703;10290
1532712;6331
1532723;7701
1532731;14988
1532739;15926
1532748;15233
1532756;14650
1532764;14466
1532772;14241
1532780;14018
1532788;13949
1532797;13800
1532805;13787
1532813;13660
1532821;13696
1532829;13537
1532838;13515
1532846;13314
1532854;13299
1532862;13082
1532870;13102
1532880;12873
1532888;12802
1532896;12437
1532904;12320
1532912;11916
1532921;11885
1532929;11620
1532937;11779
1532945;11715
1532953;12041
1532962;12074
1532970;12624
1532978;12862
1532986;13466
1532994;13621
1533006;14179
1533014;14307
1533022;14426
1533030;14394
1533038;14456
1533047;14392
1533055;14459
1533063;14279
1533071;14258
1533079;14076
1533087;14159
1533096;14039
1533104;14156
1533112;13941
1533120;13999
1533128;13899
1533137;14116
1533145;13978
1533153;14172
1533161;13933
1533169;14074
1533178;14031
1533186;14394
1533194;14350
1533203;14876
1533211;15062
1533220;15777
1533228;14533
1533236;12716
1533244;12884
1533252;14036
1533261;14074
1533269;14516
1533277;14310
1533288;15035
1533296;14937
1533305;15074
1533313;14401
1533321;14355
1533329;14614
1533337;14982
1533346;15238
1533354;14511
1533362;14536
1533370;12995
1533378;15572
1533386;14924
1533395;13516
1533403;11427
1533411;12199
1533419;11788
1533427;8904
1533436;5066
1533444;6519
1533452;14769
1533460;15746
1533468;14427
1533477;12546
1533485;12770
1533493;12940
1533501;13452
1533509;12896
1533519;13718
1533527;13246
1533535;11589
1533543;12977
1533551;13976
1533560;14180
1533568;14259
1533579;14349
1533587;14418
1533595;11317
1533604;12145
1533612;13208
1533620;13605
1533628;11140
1533636;13034
1533645;12206
1533653;11505
1533661;11657
1533669;9669
1533677;11470
1533686;13401
1533694;11586
1533702;11115
1533710;14366
1533718;14218
1533726;14075
1533735;12604
1533743;13341
1533751;17105
1533759;15197
1533767;11188
1533776;13337
1533784;14614
1533792;14869
1533800;15634
1533808;14101
1533817;13619
1533825;12940
1533834;14901
1533842;14884
1533850;14511
1533861;13109
1533869;13567
1533878;14983
1533886;15822
1533894;15278
1533903;13132
1533911;13020
1533919;14500
1533927;15567
1533935;15542
1533944;12188
1533952;14371
1533960;10791
1533968;12700
1533976;14306
1533985;18447
1533993;14946
1534001;11137
1534009;13785
1534017;14943
1534025;12124
1534034;13123
1534042;13277
1534050;13921
1534058;15494
1534066;12921
1534075;14010
1534083;11799
1534091;8457
1534099;6892
1534107;7166
1534116;14973
1534124;16665
1534132;14259
1534143;13553
1534151;14048
1534160;13526
1534168;13453
1534176;13168
1534184;12959
1534192;12139
1534202;12285
1534210;12787
1534218;13163
1534226;13129
1534234;13561
1534243;13434
1534251;13654
1534259;13256
1534267;13103
1534275;12451
1534284;12036
1534292;11251
1534300;10976
1534308;10541
1534316;10659
1534324;10634
1534333;10872
1534341;10877
1534349;11364
1534357;11653
1534365;12041
1534374;12186
1534382;12528
1534390;12628
1534398;13055
1534406;13330
1534415;13660
1534426;13737
1534434;14067
1534442;13977
1534450;14190
1534459;14035
1534467;14265
1534475;14153
1534483;14442
1534491;14370
1534501;14590
1534509;14415
1534517;14600
1534525;14367
1534533;14520
1534542;14370
1534550;14557
1534558;14387
1534566;14404
1534574;14171
1534583;14266
1534591;14128
1534599;14234
1534607;14186
1534615;14406
1534623;14406
1534632;14574
1534640;14546
1534648;14600
1534656;14577
1534664;14638
1534673;14605
1534681;14604
1534689;14527
1534697;14512
1534708;14902
1534717;14187
1534725;11020
1534733;8241
1534741;7810
1534749;14876
1534758;17146
1534766;16476
1534774;15535
1534782;15111
1534790;14752
1534799;14610
1534807;14255
1534815;14241
1534823;14061
1534832;14062
1534841;13874
1534849;13892
1534857;13714
1534865;13699
1534873;13555
1534882;13483
1534890;13309
1534898;13224
1534906;13045
1534914;12844
1534922;12572
1534931;12305
1534939;12121
1534947;12026
1534955;12092
1534963;12118
1534972;12287
1534980;12457
1534988;12880
1534999;13546
1535007;13868
1535016;14275
1535024;14327
1535032;14583
1535040;14561
1535048;14710
1535057;14649
1535065;14753
1535073;14631
1535081;14613
1535089;14498
1535098;14468
1535106;14325
1535114;14294
1535122;14205
1535130;14154
1535139;14108
1535147;14070
1535156;14083
1535164;14051
1535172;14044
1535181;14023
1535189;13921
1535197;13732
1535205;13733
1535213;13621
1535222;13645
1535230;13607
1535238;13780
1535246;13760
1535254;13962
1535262;13910
1535271;14011
1535282;14018
1535290;13922
1535298;13926
1535306;13779
1535315;13772
1535323;13609
1535331;14006
1535339;13372
1535347;10860
1535356;7363
1535364;5953
1535372;11973
1535380;15904
1535388;15517
1535397;14813
1535405;14364
1535413;14149
1535421;13956
1535429;13706
1535438;13679
1535446;13516
1535454;13488
1535462;13315
1535471;13364
1535480;13148
1535488;13129
1535496;12919
1535504;12923
1535512;12707
1535521;12684
1535529;12342
1535537;12281
1535545;11877
1535553;11828
1535565;11612
1535573;11626
1535581;11659
1535589;11722
1535597;11865
1535606;12161
1535614;12537
1535622;12996
1535630;13376
1535638;13755
1535646;13933
1535655;14136
1535663;14126
1535671;14224
1535679;14148
1535687;14247
1535696;14129
1535704;14214
1535712;14058
1535720;14136
1535728;13962
1535737;14037
1535745;13888
1535753;13988
1535761;13803
1535769;13957
1535778;13797
1535786;14011
1535795;13823
1535803;13983
1535811;13726
1535820;13776
1535828;13488
1535836;13661
1535847;13576
1535855;13675
1535864;13668
1535872;13778
1535880;13818
1535888;13940
1535896;13898
1535905;13948
1535913;13794
1535921;13851
1535929;13731
1535937;13792
1535945;13598
1535954;13727
1535962;14115
1535970;13067
1535978;9535
1535986;6022
1535995;6353
1536003;14017
1536011;15630
1536019;15315
1536027;14543
1536036;14494
1536044;14112
1536052;14104
1536060;13780
1536068;13887
1536077;13662
1536085;13836
1536093;13592
1536101;13693
1536109;13458
1536118;13548
1536129;13261
1536137;13274
1536145;13007
1536153;12937
1536162;12645
1536170;12528
1536179;12140
1536187;12050
1536195;11783
1536204;11922
1536212;11816
1536220;12093
1536228;12111
1536236;12595
1536244;12859
1536253;13461
1536261;13680
1536269;14156
1536277;14184
1536285;14466
1536294;14302
1536302;14456
1536310;14231
1536318;14394
1536326;14146
1536335;14330
1536343;14069
1536351;14229
1536359;13948
1536367;14100
1536376;13884
1536384;14031
1536392;13842
1536400;14057
1536408;13874
1536420;14081
1536428;14002
1536436;14178
1536444;14002
1536452;14158
1536461;13946
1536469;14001
1536477;13607
1536486;13677
1536494;13470
1536503;13697
1536511;13538
1536519;13733
1536527;13548
1536535;13815
1536543;13764
1536552;13980
1536560;13735
1536568;13909
1536576;13668
1536584;13794
1536593;13557
1536601;13691
1536609;13454
1536617;14309
1536625;13065
1536634;9825
1536642;5726
1536650;5847
1536658;13059
1536666;15839
1536675;15299
1536683;14852
1536691;14415
1536702;14404
1536710;14038
1536719;14061
1536727;13758
1536735;13853
1536743;13581
1536751;13694
1536760;13422
1536768;13527
1536776;13232
1536784;13352
1536792;13036
1536801;13114
1536810;12747
1536818;12787
1536826;12374
1536834;12341
1536842;11934
1536851;11997
1536859;11782
1536867;12019
1536875;11886
1536883;12263
1536892;12421
1536900;13028
1536908;13265
1536916;13805
1536924;13930
1536933;14308
1536941;14272
1536949;14442
1536957;14331
1536965;14455
1536974;14315
1536985;14535
1536993;14333
1537001;14488
1537009;14212
1537018;14326
1537026;14083
1537034;14218
1537042;13931
1537050;14035
1537059;13820
1537067;14001
1537075;13762
1537083;13925
1537091;13681
1537100;13879
1537108;13655
1537116;13841
1537125;13645
1537133;13838
1537142;13646
1537150;13818
1537158;13626
1537166;13702
1537174;13415
1537182;13523
1537191;13335
1537199;13452
1537207;13296
1537215;13462
1537223;13402
1537232;13586
1537240;13524
1537248;13636
1537256;13517
1537305;15565
1537314;15524
1537322;15147
1537330;12572
1537338;8352
1537346;5580
1537354;9383
1537363;15337
1537371;15645
1537379;14832
1537387;14438
1537395;14126
1537404;13934
1537412;13594
1537420;13559
1537428;13319
1537436;13337
1537445;13122
1537453;13197
1537461;12968
1537469;13027
1537477;12739
1537486;12810
1537494;12502
1537502;12541
1537510;12209
1537518;12216
1537527;11830
1537535;11761
1537543;11358
1537551;11422
1537559;11190
1537567;11463
1537577;11389
1537585;11769
1537595;12200
1537603;12782
1537612;13105
1537620;13579
1537629;13711
1537637;14004
1537645;13960
1537654;14161
1537662;14067
1537670;14197
1537678;14053
1537686;14211
1537694;13996
1537703;14101
1537711;13906
1537719;14043
1537727;13873
1537735;14058
1537744;13855
1537752;14067
1537760;13886
1537768;14081
1537776;13835
1537785;14009
1537793;13784
1537801;13974
1537809;13772
1537817;13948
1537826;13727
1537834;13918
1537842;13701
1537850;13869
1537858;13640
1537866;13850
1537878;13734
1537886;13910
1537894;13710
1537902;13832
1537911;13661
1537919;13791
1537927;13621
1537935;13775
1537944;13574
1537953;13736
1537961;13542
1537969;13761
1537977;13506
1537985;13604
1537993;13326
1538002;13495
1538010;13245
1538018;13515
1538026;13379
1538034;13645
1538043;13458
1538051;13684
1538059;13559
1538067;13834
1538075;13614
1538084;13793
1538092;13520
1538100;13685
1538108;13497
1538116;13643
1538125;13450
1538133;14117
1538141;12658
1538149;9358
1538160;5326
1538169;9050
1538177;14987
1538185;15582
1538193;14818
1538201;14646
1538210;14297
1538218;14240
1538226;13946
1538234;14070
1538242;13813
1538250;13991
1538260;13695
1538268;13792
1538276;13475
1538284;13561
1538292;13268
1538301;13392
1538309;13084
1538317;13149
1538325;12796
1538333;12797
1538342;12398
1538350;12359
1538358;11938
1538366;11992
1538374;11743
1538383;11941
1538391;11804
1538399;12083
1538407;12167
1538415;12720
1538424;13023
1538432;13619
1538443;13972
1538451;14461
1538459;14402
1538468;14700
1538476;14531
1538484;14757
1538492;14526
1538500;14682
1538509;14425
1538517;14613
1538525;14388
1538533;14528
1538541;14284
1538550;14439
1538558;14207
1538566;14389
1538575;14188
1538583;14362
1538591;14178
1538600;14333
1538608;14157
1538616;14280
1538624;14080
1538632;14201
1538641;13995
1538649;14151
1538657;13974
1538665;14040
1538673;13851
1538682;13945
1538690;13784
1538698;13853
1538706;13699
1538714;13770
1538726;13644
1538734;13859
1538742;13635
1538750;13792
1538758;13520
1538767;13686
1538775;13486
1538783;13687
1538791;13400
1538799;13498
1538808;13216
1538816;13363
1538824;13187
1538832;13388
1538840;13244
1538849;13428
1538857;13356
1538865;13610
1538873;13555
1538881;13704
1538890;13550
1538899;13705
1538907;13561
1538915;13637
1538923;13463
1538931;13492
1538940;13931
1538948;13065
1538956;9877
1538964;6497
1538972;6270
1538981;13231
1538989;15499
1538997;15070
1539005;14416
1539016;14310
1539025;13967
1539033;13945
1539041;13653
1539049;13776
1539057;13574
1539066;13658
1539074;13430
1539082;13526
1539090;13340
1539098;13428
1539107;13222
1539115;13246
1539123;13030
1539131;13019
1539139;12757
1539148;12631
1539156;12283
1539164;12101
1539172;11801
1539180;11806
1539188;11761
1539197;11915
1539205;11987
1539213;12275
1539221;12561
1539230;12999
1539239;13422
1539247;13800
1539255;14081
1539263;14262
1539271;14400
1539280;14430
1539288;14498
1539299;14583
1539307;14461
1539315;14570
1539324;14376
1539332;14504
1539340;14320
1539348;14355
1539356;14195
1539365;14229
1539373;14060
1539381;14094
1539389;13946
1539397;13995
1539406;13861
1539414;13890
1539422;13828
1539430;13878
1539438;13833
1539447;13856
1539455;13851
1539463;13844
1539471;13847
1539479;13885
1539487;13894
1539496;13843
1539504;13845
1539512;13810
1539520;13870
1539528;13820
1539537;13861
1539546;13729
1539554;13703
1539562;13552
1539570;13627
1539581;13737
1539589;13649
1539598;13737
1539606;13662
1539614;13806
1539623;13811
1539631;13905
1539639;13826
1539647;13874
1539655;13815
1539664;13831
1539672;13769
1539680;13710
1539688;13881
1539696;13867
1539705;11881
1539713;8460
1539721;6791
1539729;10572
1539737;16244
1539746;15922
1539754;15152
1539762;14377
1539770;14160
1539778;13912
1539786;13750
1539795;13582
1539803;13626
1539811;13414
1539819;13410
1539827;13219
1539836;13263
1539844;13047
1539852;13119
1539863;13067
1539871;12964
1539880;12845
1539888;12627
1539896;12430
1539904;12140
1539913;11842
1539922;11623
1539930;11482
1539938;11470
1539946;11537
1539954;11717
1539963;11880
1539971;12268
1539979;12649
1539987;13117
1539995;13443
1540004;13842
1540012;13975
1540020;14243
1540028;14224
1540036;14351
1540045;14285
1540053;14408
1540061;14243
1540069;14342
1540077;14178
1540086;14283
1540094;14054
1540102;14151
1540110;13969
1540118;14089
1540126;13850
1540135;14008
1540146;13978
1540154;14040
1540162;14016
1540170;13984
1540179;13942
1540187;13995
1540195;13933
1540203;13976
1540211;13908
1540221;13965
1540229;13850
1540237;13960
1540245;13834
1540253;13952
1540262;13805
1540270;13800
1540278;13498
1540286;13510
1540294;13329
1540303;13460
1540311;13326
1540319;13461
1540327;13329
1540335;13566
1540344;13494
1540352;13727
1540360;13558
1540368;13743
1540376;13526
1540385;13686
1540393;13494
1540401;13673
1540409;13535
1540417;14190
1540429;11685
1540437;8134
1540445;5919
1540453;10242
1540461;15764
1540470;15692
1540478;14832
1540486;14339
1540494;14005
1540502;13871
1540510;13546
1540519;13595
1540527;13348
1540535;13407
1540544;13226
1540552;13343
1540561;13085
1540569;13183
1540577;12958
1540585;13077
1540593;12806
1540602;12892
1540610;12540
1540618;12550
1540626;12116
1540634;12078
1540643;11649
1540651;11707
1540659;11453
1540667;11721
1540675;11660
1540684;12098
1540692;12214
1540700;12878
1540708;13140
1540719;13976
1540728;14223
1540736;14533
1540744;14482
1540752;14675
1540760;14531
1540769;14639
1540777;14458
1540785;14598
1540793;14385
1540801;14503
1540809;14294
1540818;14431
1540826;14186
1540834;14358
1540842;14088
1540851;14218
1540860;13971
1540868;14122
1540876;13866
1540884;14063
1540892;13855
1540901;14064
1540909;13879
1540917;14088
1540925;13886
1540933;14065
1540942;13823
1540950;14023
1540958;13835
1540966;14019
1540974;13781
1540983;13957
1540991;13805
1541002;14046
1541010;13908
1541018;14028
1541027;13712
1541035;13770
1541043;13461
1541051;13584
1541059;13396
1541068;13629
1541076;13420
1541084;13635
1541092;13501
1541100;13792
1541108;13660
1541117;13867
1541125;13625
1541133;13805
1541141;13555
1541149;13730
1541158;13514
1541166;13714
1541175;14044
1541183;13040
1541191;9429
1541200;6262
1541208;6730
1541216;14105
1541224;15600
1541232;15215
1541241;14407
1541249;14388
1541257;14030
1541265;14011
1541273;13802
1541285;13938
1541293;13710
1541301;13762
1541309;13451
1541317;13549
1541326;13266
1541334;13367
1541342;13039
1541350;13128
1541358;12811
1541367;12842
1541375;12439
1541383;12439
1541391;11988
1541399;11963
1541407;11607
1541416;11714
1541424;11531
1541432;11797
1541440;11776
1541448;12204
1541457;12407
1541465;13051
1541473;13336
1541481;13836
1541489;13930
1541498;14280
1541507;14214
1541515;14378
1541523;14236
1541531;14401
1541540;14245
1541548;14349
1541556;14212
1541567;14398
1541575;14221
1541584;14349
1541592;14072
1541600;14239
1541608;13995
1541616;14158
1541625;13897
1541633;14055
1541641;13825
1541649;13986
1541657;13784
1541666;13967
1541674;13773
1541682;13981
1541690;13769
1541698;13873
1541706;13635
1541715;13760
1541723;13632
1541731;13790
1541739;13639
1541747;13768
1541756;13638
1541764;13749
1541772;13624
1541780;13732
1541788;13636
1541797;13753
1541805;13605
1541813;13558
1541822;13386
1541830;13352
1541839;13315
1541849;13470
1541857;13329
1541865;13507
1541874;13360
1541883;13630
1541891;13495
1541899;13667
1541907;13484
1541915;13650
1541924;13457
1541932;13593
1541940;13414
1541948;13573
1541956;13752
1541965;12445
1541973;8653
1541981;5692
1541989;7297
1541997;14556
1542006;15547
1542014;14992
1542022;14344
1542030;14263
1542038;13972
1542046;13832
1542055;13673
1542063;13643
1542071;13534
1542079;13533
1542087;13498
1542096;13430
1542104;13382
1542112;13310
1542120;13270
1542128;13167
1542140;13004
1542148;13050
1542156;12664
1542164;12589
1542172;12167
1542181;12017
1542189;11666
1542198;11715
1542206;11593
1542214;11799
1542223;11818
1542231;12135
1542239;12461
1542247;13011
1542255;13392
1542264;13822
1542272;14056
1542280;14336
1542288;14382
1542296;14468
1542305;14447
1542313;14467
1542321;14438
1542329;14425
1542337;14450
1542345;14371
1542354;14329
1542362;14220
1542370;14259
1542378;14212
1542386;14228
1542395;14096
1542403;14017
1542411;13940
1542422;14075
1542430;14284
1542439;14115
1542447;14147
1542455;14035
1542463;14082
1542471;13928
1542480;13950
1542488;13862
1542497;13896
1542505;13827
1542513;13910
1542522;13888
1542530;13935
1542538;13904
1542546;13859
1542554;13839
1542563;13804
1542571;13808
1542579;13766
1542587;13807
1542595;13654
1542604;13593
1542612;13418
1542620;13472
1542628;13441
1542636;13558
1542644;13440
1542653;13553
1542661;13487
1542669;13676
1542677;13650
1542685;13792
1542694;13640
1542705;13714
1542713;13781
1542721;13603
1542729;13562
1542738;13504
1542746;14066
1542754;12826
1542762;9371
1542770;5940
1542779;6666
1542787;13933
1542795;15482
1542803;14912
1542811;14237
1542821;14092
1542829;13844
1542837;13790
1542845;13663
1542853;13682
1542862;13457
1542870;13471
1542878;13324
1542886;13393
1542894;13253
1542903;13347
1542911;13171
1542919;13202
1542927;12920
1542935;12987
1542943;12683
1542952;12670
1542960;12282
1542968;12174
1542976;11769
1542988;11776
1542996;11849
1543004;11890
1543012;11966
1543020;12202
1543028;12505
1543037;12986
1543045;13355
1543053;13765
1543061;13950
1543069;14218
1543078;14219
1543086;14350
1543094;14271
1543102;14399
1543110;14282
1543119;14350
1543127;14176
1543135;14275
1543144;14062
1543152;14129
1543161;13912
1543169;14006
1543177;13827
1543185;14008
1543193;13820
1543202;13978
1543210;13797
1543218;13968
1543226;13785
1543234;14022
1543242;13826
1543251;13982
1543259;13755
1543270;13897
1543278;13897
1543287;13962
1543295;13873
1543303;13949
1543311;13825
1543319;13868
1543327;13744
1543336;13860
1543344;13735
1543352;13870
1543360;13723
1543368;13765
1543377;13508
1543385;13557
1543393;13376
1543401;13552
1543409;13403
1543418;13557
1543426;13383
1543434;13643
1543442;13544
1543450;13812
1543459;13605
1543468;13784
1543476;13578
1543484;13761
1543492;13541
1543501;13715
1543509;13475
1543517;14255
1543525;12933
1543533;9843
1543542;6437
1543550;7077
1543561;15525
1543569;15823
1543577;14882
1543586;14433
1543594;14146
1543602;14094
1543610;13727
1543618;13811
1543626;13571
1543635;13694
1543643;13482
1543651;13637
1543659;13375
1543667;13494
1543676;13238
1543684;13348
1543692;13032
1543700;13055
1543708;12686
1543717;12749
1543725;12359
1543733;12322
1543741;11861
1543749;11872
1543758;11562
1543766;11794
1543774;11673
1543782;12020
1543791;12079
1543800;12646
1543808;12906
1543816;13576
1543824;13789
1543832;14280
1543844;14428
1543852;14777
1543860;14661
1543868;14847
1543876;14633
1543885;14744
1543893;14482
1543901;14642
1543909;14392
1543917;14536
1543926;14281
1543934;14407
1543942;14178
1543950;14346
1543958;14080
1543966;14276
1543975;14083
1543983;14262
1543991;14028
1543999;14123
1544007;13865
1544016;14058
1544024;13831
1544032;13971
1544040;13755
1544048;13931
1544057;13712
1544065;13864
1544073;13662
1544081;13846
1544089;13634
1544098;13673
1544107;13350
1544115;13459
1544125;13424
1544133;13701
1544142;13459
1544150;13719
1544159;13593
1544167;13874
1544175;13674
1544184;13855
1544192;13647
1544200;13864
1544208;13645
1544216;13845
1544225;13624
1544233;13764
1544241;14120
1544249;13495
1544257;10331
1544265;7565
1544274;7032
1544282;14035
1544290;16408
1544298;15796
1544306;14798
1544315;14425
1544323;14096
1544331;13971
1544339;13675
1544347;13683
1544356;13482
1544364;13572
1544372;13389
1544380;13439
1544388;13286
1544397;13326
1544408;13150
1544416;13309
1544424;12939
1544432;12960
1544441;12583
1544449;12539
1544457;12081
1544465;12033
1544474;11634
1544483;11755
1544491;11587
1544499;11825
1544507;11759
1544515;12164
1544524;12402
1544532;13001
1544540;13271
1544548;13762
1544556;13894
1544564;14259
1544573;14261
1544581;14469
1544589;14374
1544597;14474
1544605;14341
1544614;14399
1544622;14231
1544630;14276
1544638;14120
1544646;14148
1544655;14010
1544663;14029
1544671;13950
1544679;13997
1544690;13930
1544699;14151
1544707;13964
1544715;14155
1544723;13972
1544731;14169
1544740;13968
1544748;14111
1544756;13932
1544764;14042
1544772;13830
1544782;13867
1544790;13625
1544798;13725
1544806;13545
1544814;13645
1544823;13559
1544831;13693
1544839;13666
1544847;13807
1544855;13729
1544863;13806
1544872;13715
1544880;13778
1544888;13711
1544896;13745
1544904;13665
1544913;13603
1544921;14085
1544929;13584
1544937;10788
1544945;7052
1544954;5725
1544962;12096
1544970;16058
1544981;15439
1544989;14644
1544998;14482
1545006;14097
1545014;13940
1545022;13697
1545030;13744
1545039;13539
1545047;13549
1545055;13359
1545063;13386
1545071;13191
1545080;13183
1545089;13010
1545097;12969
1545105;12793
1545113;12728
1545122;12540
1545130;12363
1545138;12110
1545146;11892
1545154;11679
1545162;11597
1545171;11620
1545179;11673
1545187;11837
1545195;12080
1545203;12499
1545212;12889
1545220;13406
1545228;13714
1545236;14067
1545244;14174
1545253;14369
1545264;14539
1545272;14489
1545280;14519
1545288;14362
1545297;14364
1545305;14201
1545313;14210
1545321;14091
1545329;14111
1545338;14001
1545346;14022
1545354;13936
1545362;13959
1545370;13922
1545379;13919
1545387;13887
1545395;13858
1545403;13870
1545412;13881
1545421;13894
1545429;13864
1545437;13907
1545445;13858
1545453;13911
1545462;13806
1545470;13861
1545478;13690
1545486;13637
1545494;13401
1545502;13500
1545511;13404
1545519;13579
1545527;13488
1545535;13687
1545546;13816
1545555;13867
1545563;13845
1545571;13752
1545579;13757
1545587;13722
1545596;13667
1545604;13590
1545612;13550
1545620;13927
1545628;13882
1545637;11625
1545645;7549
1545653;5124
1545661;9444
1545669;15471
1545678;15502
1545686;14906
1545694;14362
1545702;14319
1545710;13949
1545719;13896
1545727;13662
1545735;13699
1545744;13480
1545752;13542
1545761;13307
1545769;13376
1545777;13111
1545785;13214
1545793;12927
1545801;12989
1545810;12706
1545818;12758
1545829;12488
1545837;12295
1545846;12036
1545854;11866
1545862;11707
1545870;11721
1545878;11730
1545886;11943
1545895;12094
1545903;12526
1545911;12850
1545919;13392
1545927;13709
1545936;14158
1545944;14241
1545952;14482
1545960;14454
1545968;14624
1545977;14464
1545985;14553
1545993;14321
1546001;14389
1546009;14140
1546018;14272
1546026;14053
1546034;14222
1546042;14033
1546050;14163
1546060;13914
1546068;14077
1546076;13831
1546084;13980
1546092;13779
1546100;13975
1546112;13869
1546120;13997
1546128;13907
1546136;13963
1546145;13846
1546153;13922
1546161;13771
1546169;13803
1546177;13610
1546185;13573
1546194;13332
1546202;13467
1546210;13335
1546218;13455
1546226;13273
1546235;13466
1546243;13382
1546251;13670
1546259;13537
1546267;13702
1546276;13450
1546284;13643
1546292;13425
1546300;13590
1546308;13372
1546317;13515
1546325;13692
1546333;13850
1546341;11229
1546349;7241
1546358;4617
1546366;9526
1546375;15197
1546383;15521
1546391;14656
1546402;14503
1546410;14227
1546418;14175
1546426;13888
1546434;13947
1546444;13686
1546452;13790
1546460;13569
1546468;13671
1546476;13424
1546484;13542
1546493;13257
1546501;13330
1546509;13012
1546517;13070
1546525;12679
1546534;12651
1546542;12158
1546550;12111
1546558;11753
1546566;11857
1546575;11666
1546583;11932
1546591;11851
1546599;12229
1546607;12327
1546616;12981
1546624;13205
1546632;13771
1546640;13873
1546648;14276
1546657;14202
1546665;14443
1546673;14269
1546684;14476
1546692;14335
1546701;14457
1546709;14204
1546717;14333
1546725;14085
1546733;14226
1546743;13984
1546751;14128
1546759;13915
1546767;14103
1546775;13881
1546783;14034
1546792;13787
1546800;13988
1546808;13816
1546816;14010
1546824;13813
1546833;14017
1546841;13785
1546849;13975
1546857;13768
1546865;13998
1546874;13811
1546882;14013
1546890;13731
1546898;13812
1546906;13482
1546915;13599
1546923;13449
1546931;13655
1546939;13528
1546947;13739
1546956;13694
1546967;14061
1546975;13968
1546983;14152
1546991;13909
1547000;14098
1547008;13867
1547016;14038
1547024;13805
1547032;13921
1547041;14002
1547049;14281
1547058;11965
1547066;8076
1547074;5280
1547082;9600
1547091;15636
1547099;15993
1547107;15071
1547115;14776
1547123;14454
1547132;14378
1547140;14061
1547148;14150
1547156;13906
1547164;13971
1547173;13746
1547181;13834
1547189;13606
1547197;13673
1547205;13480
1547214;13465
1547222;13235
1547230;13207
1547238;12955
1547249;12897
1547258;12511
1547266;12437
1547274;12007
1547282;12064
1547290;11823
1547299;12029
1547307;11931
1547315;12296
1547323;12441
1547331;13050
1547340;13284
1547348;13819
1547356;13955
1547364;14365
1547372;14333
1547380;14555
1547389;14423
1547398;14554
1547406;14378
1547414;14499
1547422;14329
1547431;14387
1547439;14201
1547447;14263
1547455;14123
1547463;14205
1547472;14079
1547480;14113
1547488;14021
1547496;14085
1547504;14045
1547513;14084
1547521;14069
1547529;14105
1547540;14046
1547548;14269
1547557;14068
1547565;14191
1547573;13968
1547581;14055
1547589;13856
1547598;13990
1547606;13820
1547614;13893
1547622;13617
1547630;13600
1547639;13377
1547647;13481
1547655;13383
1547663;13469
1547671;13356
1547679;13514
1547688;13485
1547696;13658
1547704;13628
1547712;13704
1547721;13626
1547730;13665
1547738;13554
1547746;13527
1547754;13419
1547762;13537
1547771;13786
1547779;11976
1547787;8264
1547795;5721
1547803;8896
1547812;15456
1547823;15383
1547831;14805
1547839;14167
1547847;14130
1547856;13753
1547864;13697
1547872;13490
1547880;13565
1547888;13412
1547897;13465
1547905;13355
1547913;13384
1547921;13259
1547929;13237
1547938;13086
1547946;13056
1547954;12933
1547962;12795
1547970;12570
1547978;12341
1547987;12081
1547995;11887
1548003;11799
1548011;11753
1548019;11816
1548028;11888
1548036;12111
1548045;12353
1548053;12790
1548061;13136
1548070;13596
1548078;13818
1548086;14120
1548094;14162
1548105;14322
1548114;14498
1548122;14395
1548130;14452
1548138;14330
1548146;14369
1548155;14254
1548163;14242
1548171;14118
1548179;14130
1548187;14047
1548196;14052
1548204;14017
1548212;14008
1548220;13978
1548228;13946
1548237;13961
1548245;13861
1548253;13870
1548261;13823
1548269;13866
1548278;13797
1548286;13861
1548294;13801
1548302;13901
1548310;13832
1548318;13931
1548327;13829
1548335;13879
1548343;13644
1548352;13553
1548360;13369
1548369;13507
1548377;13352
1548387;13474
1548395;13631
1548404;13662
1548413;13772
1548421;13824
1548429;13825
1548437;13806
1548445;13808
1548454;13794
1548462;13714
1548470;13677
1548478;13524
1548486;14049
1548495;13602
1548503;11018
1548511;7242
1548519;5806
1548527;11738
1548536;16120
1548544;15516
1548552;14905
1548560;14304
1548568;14280
1548577;13876
1548585;13858
1548593;13616
1548601;13696
1548609;13466
1548617;13610
1548626;13403
1548634;13495
1548642;13289
1548650;13413
1548658;13150
1548670;13185
1548678;13077
1548686;12920
1548694;12658
1548702;12440
1548711;12137
1548719;11985
1548728;11836
1548736;11901
1548744;11896
1548753;12092
1548761;12239
1548769;12716
1548777;13045
1548785;13533
1548794;13726
1548802;14172
1548810;14245
1548818;14490
1548826;14416
1548835;14588
1548843;14411
1548851;14525
1548859;14302
1548867;14404
1548876;14185
1548884;14285
1548892;14015
1548900;14159
1548908;13929
1548916;14059
1548925;13852
1548933;14032
1548941;13829
1548949;14007
1548961;13908
1548969;14089
1548977;13955
1548985;13984
1548993;13857
1549001;13961
1549010;13826
1549018;13945
1549026;13839
1549034;13984
1549043;13821
1549052;13960
1549060;13776
1549068;13911
1549076;13695
1549084;13762
1549093;13475
1549101;13475
1549109;13247
1549117;13474
1549125;13340
1549134;13541
1549142;13393
1549150;13645
1549158;13532
1549166;13805
1549175;13635
1549183;13842
1549191;13645
1549199;13827
1549207;13564
1549215;13709
1549224;13402
1549232;14086
1549243;12919
1549251;9600
1549260;5872
1549268;6495
1549276;13825
1549284;15801
1549292;15010
1549300;14491
1549309;14120
1549317;14033
1549325;13636
1549333;13723
1549341;13441
1549350;13575
1549358;13344
1549367;13485
1549375;13242
1549383;13398
1549392;13139
1549400;13260
1549408;12962
1549416;13038
1549424;12688
1549433;12703
1549441;12274
1549449;12234
1549457;11826
1549465;11824
1549474;11538
1549482;11744
1549490;11606
1549498;11926
1549506;11948
1549514;12449
1549526;12976
1549534;13631
1549542;13767
1549550;14189
1549559;14122
1549567;14395
1549575;14257
1549583;14464
1549591;14257
1549599;14461
1549608;14244
1549616;14448
1549624;14202
1549632;14383
1549640;14128
1549649;14257
1549657;14018
1549665;14173
1549673;13948
1549681;14132
1549691;13906
1549699;14058
1549707;13837
1549715;13992
1549723;13773
1549732;13946
1549740;13735
1549748;13942
1549756;13768
1549764;13978
1549773;13789
1549781;13928
1549789;13693
1549797;13742
1549808;13404
1549817;13605
1549825;13405
1549833;13614
1549841;13383
1549849;13650
1549858;13489
1549866;13784
1549874;13582
1549882;13751
1549890;13504
1549898;13716
1549907;13504
1549915;13697
1549923;13459
1549931;13603
1549939;14098
1549948;13317
1549956;9704
1549964;6002
1549972;5742
1549980;13480
1549989;15674
1549997;15277
1550005;14454
1550013;14426
1550022;14074
1550031;13999
1550039;13751
1550047;13811
1550055;13627
1550063;13688
1550072;13539
1550080;13601
1550091;13405
1550099;13585
1550107;13281
1550116;13339
1550124;13004
1550132;13053
1550140;12676
1550148;12659
1550157;12210
1550165;12153
1550173;11785
1550181;11909
1550189;11749
1550198;11998
1550206;11964
1550214;12427
1550222;12647
1550230;13232
1550238;13532
1550247;14021
1550255;14155
1550263;14469
1550271;14441
1550279;14620
1550288;14551
1550296;14661
1550304;14503
1550312;14514
1550321;14397
1550330;14459
1550338;14361
1550346;14412
1550354;14320
1550362;14351
1550371;14265
1550382;14397
1550390;14236
1550398;14399
1550406;14157
1550415;14255
1550423;14021
1550431;14201
1550439;14022
1550447;14146
1550456;13977
1550464;14154
1550472;14013
1550480;14101
1550488;13864
1550497;13851
1550505;13620
1550513;13686
1550521;13556
1550529;13660
1550537;13626
1550546;13757
1550554;13720
1550562;13830
1550570;13755
1550578;13764
1550587;13707
1550595;13761
1550603;13709
1550611;13696
1550619;13639
1550629;13548
1550637;14167
1550645;13298
1550653;10169
1550663;6182
1550672;8203
1550681;15523
1550689;15859
1550697;15229
1550705;14378
1550714;14232
1550722;13916
1550730;13791
1550738;13535
1550746;13585
1550755;13442
1550763;13444
1550771;13284
1550779;13270
1550787;13110
1550796;13077
1550804;12918
1550812;12862
1550820;12726
1550828;12588
1550836;12441
1550845;12249
1550853;12000
1550861;11767
1550869;11614
1550877;11533
1550886;11615
1550894;11663
1550902;11846
1550910;12068
1550918;12512
1550927;12882
1550935;13431
1550946;13983
1550954;14163
1550962;14415
1550971;14412
1550979;14562
1550987;14489
1550996;14595
1551004;14509
1551013;14589
1551021;14484
1551029;14496
1551037;14366
1551045;14340
1551054;14239
1551062;14224
1551070;14155
1551078;14119
1551086;14110
1551095;14058
1551103;14064
1551111;14006
1551119;14051
1551127;13982
1551135;14041
1551144;13964
1551152;13992
1551160;13782
1551168;13743
1551176;13525
1551185;13629
1551193;13514
1551201;13678
1551209;13627
1551217;13815
1551229;13956
1551237;13967
1551245;14032
1551253;13945
1551261;13921
1551270;13876
1551278;13863
1551286;13784
1551294;13739
1551303;13903
1551312;14136
1551320;12208
1551328;8465
1551336;6075
1551344;9281
1551353;15962
1551361;15971
1551369;15256
1551377;14496
1551385;14296
1551394;13983
1551402;13837
1551410;13600
1551418;13636
1551426;13434
1551434;13496
1551443;13299
1551451;13359
1551459;13106
1551467;13157
1551475;12913
1551484;12966
1551492;12646
1551500;12625
1551511;12324
1551519;12166
1551528;11921
1551536;11710
1551544;11544
1551552;11571
1551560;11598
1551569;11773
1551577;11931
1551585;12369
1551593;12751
1551601;13240
1551610;13531
1551618;13961
1551626;14055
1551635;14311
1551643;14280
1551652;14456
1551660;14361
1551668;14453
1551676;14275
1551684;14411
1551693;14203
1551701;14314
1551709;14106
1551717;14237
1551725;13993
1551734;14090
1551742;13879
1551750;14030
1551758;13818
1551766;13973
1551774;13750
1551783;13930
1551791;13740
1551802;13943
1551810;13918
1551818;13978
1551827;13895
1551835;13958
1551843;13856
1551851;13959
1551859;13839
1551868;13900
1551876;13654
1551884;13608
1551892;13436
1551900;13631
1551909;13544
1551917;13721
1551925;13593
1551933;13833
1551941;13724
1551950;13956
1551959;13746
1551967;13903
1551975;13695
1551983;13861
1551992;13611
1552000;13732
1552008;13412
1552016;14129
1552024;13365
1552033;10673
1552041;6351
1552049;5120
1552057;11062
1552065;15559
1552073;15172
1552085;14672
1552093;14435
1552101;14259
1552109;13869
1552118;13885
1552126;13677
1552134;13769
1552142;13553
1552150;13680
1552158;13456
1552167;13596
1552175;13369
1552183;13491
1552191;13198
1552199;13280
1552208;12937
1552216;12959
1552224;12547
1552232;12500
1552240;12058
1552249;12070
1552257;11754
1552265;11926
1552273;11731
1552281;12051
1552291;12081
1552299;12659
1552307;12900
1552315;13523
1552323;13687
1552332;14178
1552340;14144
1552348;14437
1552356;14293
1552367;14531
1552376;14372
1552384;14470
1552392;14221
1552400;14358
1552408;14126
1552417;14288
1552425;14035
1552433;14168
1552441;13899
1552449;14059
1552457;13853
1552466;13999
1552474;13774
1552482;13977
1552490;13752
1552498;13944
1552507;13722
1552515;13907
1552523;13664
1552531;13846
1552539;13607
1552548;13769
1552556;13544
1552564;13739
1552572;13582
1552580;13786
1552589;13553
1552597;13621
1552605;13301
1552614;13368
1552622;13182
1552631;13420
1552639;13303
1552650;13593
1552658;13536
1552666;13788
1552675;13621
1552683;13792
1552691;13567
1552699;13765
1552707;13572
1552716;13758
1552724;13534
1552732;13649
1552740;13527
1552748;14124
1552756;12311
1552765;8646
1552773;5118
1552781;7219
1552789;14416
1552797;15743
1552806;14988
1552814;14680
1552822;14336
1552830;14304
1552838;13969
1552847;14043
1552855;13837
1552863;13906
1552871;13679
1552879;13751
1552888;13537
1552896;13612
1552904;13415
1552912;13417
1552920;13215
1552932;13342
1552940;13060
1552948;13061
1552956;12605
1552964;12517
1552974;12041
1552982;12074
1552990;11795
1552998;12013
1553006;11880
1553015;12226
1553023;12313
1553031;12931
1553039;13230
1553047;13855
1553055;14038
1553064;14474
1553072;14454
1553080;14660
1553088;14533
1553096;14665
1553105;14473
1553113;14562
1553121;14372
1553129;14444
1553137;14297
1553146;14370
1553154;14171
1553162;14199
1553170;14063
1553178;14100
1553187;13998
1553195;14065
1553203;14017
1553211;14076
1553222;13997
1553231;14210
1553239;13972
1553247;14109
1553255;13877
1553263;14034
1553272;13805
1553281;13942
1553289;13771
1553297;13935
1553305;13745
1553314;13831
1553322;13674
1553330;13830
1553338;13701
1553346;13826
1553354;13703
1553363;13698
1553371;13493
1553379;13447
1553387;13258
1553395;13330
1553404;13282
1553412;13393
1553420;13361
1553428;13500
1553436;13565
1553445;13697
1553453;13691
1553461;13695
1553469;13652
1553477;13639
1553486;13598
1553494;13554
1553505;13444
1553513;14246
1553521;13195
1553530;10147
1553538;6142
1553546;5864
1553554;12710
1553562;15668
1553571;15099
1553579;14599
1553587;14256
1553596;14163
1553604;13874
1553613;13886
1553621;13726
1553629;13759
1553637;13610
1553645;13553
1553654;13392
1553662;13381
1553670;13278
1553678;13185
1553686;13056
1553694;12974
1553703;12847
1553711;12703
1553719;12555
1553727;12324
1553735;12153
1553744;11915
1553752;11835
1553760;11764
1553768;11883
1553776;11935
1553788;12272
1553796;12786
1553804;13054
1553812;13589
1553820;13861
1553829;14212
1553837;14300
1553845;14477
1553853;14426
1553861;14496
1553870;14444
1553878;14465
1553886;14389
1553894;14395
1553902;14363
1553911;14366
1553920;14315
1553928;14268
1553936;14221
1553944;14153
1553953;14130
1553961;14093
1553969;14117
1553977;14038
1553985;14048
1553993;13962
1554002;14002
1554010;13914
1554018;13935
1554026;13790
1554034;13891
1554043;13784
1554051;13882
1554059;13735
1554070;13820
1554078;13927
1554087;13847
1554095;13934
1554103;13858
1554111;13881
1554119;13746
1554128;13658
1554136;13518
1554144;13452
1554152;13440
1554160;13430
1554169;13407
1554177;13403
1554185;13504
1554193;13533
1554201;13675
1554210;13641
1554218;13774
1554226;13701
1554235;13763
1554243;13630
1554252;13689
1554260;13510
1554268;14052
1554276;13546
1554284;11135
1554292;7266
1554301;5934
1554309;11636
1554317;16030
1554325;15454
1554333;14840
1554342;14222
1554353;14060
1554361;13879
1554369;13745
1554377;13646
1554386;13592
1554394;13484
1554402;13463
1554410;13342
1554418;13339
1554427;13204
1554435;13194
1554443;12994
1554451;12993
1554459;12759
1554468;12717
1554476;12425
1554484;12287
1554492;11936
1554500;11864
1554509;11608
1554517;11754
1554525;11694
1554533;11991
1554541;12031
1554550;12510
1554559;12791
1554567;13386
1554575;13599
1554583;14105
1554591;14146
1554600;14459
1554608;14357
1554616;14601
1554624;14444
1554632;14654
1554644;14604
1554652;14686
1554660;14568
1554668;14553
1554676;14379
1554685;14381
1554693;14236
1554701;14276
1554709;14079
1554717;14153
1554726;13965
1554734;14053
1554742;13896
1554750;14019
1554758;13819
1554767;13944
1554775;13744
1554783;13878
1554791;13680
1554799;13848
1554808;13628
1554816;13821
1554824;13627
1554832;13774
1554840;13566
1554849;13759
1554857;13531
1554865;13690
1554873;13398
1554881;13482
1554890;13185
1554899;13388
1554907;13188
1554915;13394
1554925;13270
1554935;13505
1554943;13428
1554951;13621
1554959;13510
1554967;13611
1554975;13471
1554984;13629
1554992;13454
1555000;13556
1555008;13353
1555016;13697
1555025;13700
1555033;12040
1555041;8210
1555049;6029
1555057;9017
1555066;15661
1555074;15635
1555082;15095
1555090;14257
1555098;14240
1555107;13792
1555115;13759
1555123;13462
1555131;13604
1555139;13338
1555148;13470
1555156;13172
1555164;13305
1555172;13053
1555180;13160
1555188;12913
1555197;13015
1555208;12778
1555216;12854
1555224;12493
1555233;12430
1555241;11980
1555249;11946
1555258;11611
1555266;11806
1555274;11677
1555283;11965
1555291;11934
1555299;12412
1555307;12642
1555315;13311
1555324;13541
1555332;14077
1555340;14115
1555348;14505
1555356;14416
1555365;14652
1555373;14475
1555381;14664
1555389;14432
1555397;14574
1555406;14331
1555414;14460
1555422;14190
1555430;14289
1555438;14049
1555447;14136
1555455;13891
1555463;14007
1555471;13797
1555479;13954
1555499;14306
1555507;14109
1555515;14238
1555523;13998
1555532;14167
1555540;13928
1555548;14100
1555556;13842
1555565;13983
1555574;13747
1555582;13961
1555590;13770
1555598;13953
1555606;13668
1555614;13721
1555623;13358
1555631;13459
1555639;13233
1555647;13432
1555655;13256
1555664;13461
1555672;13349
1555680;13570
1555688;13479
1555696;13673
1555705;13508
1555713;13637
1555721;13486
1555729;13592
1555737;13446
1555746;13506
1555754;13516
1555762;13918
1555770;12029
1555781;7066
1555790;5333
1555798;11475
1555806;15653
1555814;15525
1555822;14564
1555831;14409
1555839;14026
1555847;13963
1555855;13640
1555863;13755
1555871;13504
1555881;13650
1555889;13478
1555897;13638
1555905;13406
1555913;13528
1555922;13288
1555930;13341
1555938;13069
1555946;13067
1555954;12800
1555963;12742
1555971;12402
1555979;12258
1555987;11885
1555995;11841
1556004;11703
1556012;11819
1556020;11810
1556028;12004
1556036;12207
1556045;12686
1556053;13063
1556061;13480
1556072;13859
1556080;14358
1556089;14284
1556097;14517
1556105;14359
1556113;14521
1556121;14340
1556130;14513
1556138;14360
1556146;14480
1556154;14289
1556162;14399
1556170;14230
1556179;14312
1556187;14128
1556196;14217
1556204;14041
1556212;14126
1556221;13989
1556229;14072
1556237;13962
1556245;14016
1556253;13925
1556262;13983
1556270;13889
1556278;13902
1556286;13839
1556294;13858
1556303;13829
1556311;13812
1556319;13720
1556327;13525
1556335;13471
1556344;13489
1556355;13518
1556363;13748
1556371;13627
1556379;13840
1556388;13774
1556396;13963
1556404;13797
1556412;13890
1556420;13714
1556429;13744
1556437;13580
1556445;13638
1556453;13445
1556461;14016
1556470;13610
1556478;10965
1556486;6822
1556494;5061
1556502;10957
1556510;15635
1556519;15322
1556528;14634
1556536;14344
1556544;14237
1556552;13991
1556561;13813
1556569;13784
1556577;13649
1556585;13606
1556593;13504
1556602;13486
1556610;13356
1556618;13363
1556626;13182
1556637;13085
1556646;13136
1556654;12854
1556662;12758
1556670;12447
1556678;12308
1556687;12014
1556695;11907
1556703;11750
1556711;11787
1556719;11808
1556728;11931
1556736;12166
1556744;12563
1556752;12994
1556760;13419
1556769;13794
1556777;14071
1556785;14339
1556793;14424
1556801;14525
1556809;14486
1556818;14522
1556826;14428
1556834;14499
1556842;14383
1556851;14476
1556860;14349
1556868;14421
1556876;14210
1556884;14247
1556892;14042
1556901;14166
1556909;14000
1556920;14109
1556928;14236
1556936;14157
1556945;14166
1556953;14118
1556961;14161
1556969;14141
1556977;14101
1556986;14100
1556994;14045
1557002;14057
1557010;13973
1557018;13866
1557027;13653
1557035;13671
1557043;13631
1557051;13702
1557059;13603
1557068;13729
1557076;13693
1557084;13922
1557092;13910
1557100;14020
1557108;13832
1557117;14000
1557125;13893
1557133;14026
1557141;13843
1557149;13931
1557158;13940
1557167;14393
1557175;12365
1557183;8702
1557191;5812
1557231;16827
1557240;16114
1557248;15671
1557256;14966
1557264;14836
1557272;14344
1557281;14268
1557289;13822
1557297;13824
1557305;13457
1557313;13491
1557321;13137
1557330;13136
1557338;12813
1557346;12773
1557354;12399
1557362;12346
1557371;11957
1557379;11823
1557387;11416
1557395;11349
1557404;11136
1557413;11285
1557421;11274
1557429;11542
1557437;11704
1557445;12224
1557454;12591
1557462;13075
1557470;13361
1557478;13723
1557486;13853
1557495;13969
1557503;13980
1557514;14192
1557522;14089
1557530;14231
1557539;13997
1557547;14128
1557555;13934
1557563;14066
1557571;13838
1557580;13938
1557588;13724
1557596;13807
1557604;13641
1557612;13762
1557620;13619
1557629;13730
1557637;13638
1557645;13769
1557653;13674
1557661;13761
1557670;13604
1557678;13670
1557686;13519
1557694;13484
1557702;13353
1557711;13400
1557720;13378
1557728;13449
1557736;13499
1557744;13642
1557753;13751
1557761;13737
1557769;13743
1557777;13720
1557785;13785
1557794;13744
1557805;13745
1557813;13937
1557821;13681
1557829;13737
1557838;14141
1557846;13336
1557854;10050
1557862;7148
1557870;6947
1557879;14264
1557887;16439
1557895;15778
1557903;14899
1557911;14437
1557919;14188
1557928;13998
1557936;13766
1557944;13762
1557952;13679
1557960;13645
1557969;13537
1557977;13476
1557985;13396
1557993;13320
1558001;13256
1558010;13140
1558018;13022
1558026;12808
1558034;12620
1558042;12311
1558052;12131
1558060;11815
1558068;11732
1558076;11518
1558086;11615
1558096;11878
1558104;11907
1558112;12273
1558120;12568
1558128;13106
1558137;13483
1558145;13921
1558153;14148
1558161;14400
1558169;14488
1558178;14560
1558186;14562
1558194;14581
1558202;14586
1558210;14542
1558218;14478
1558227;14361
1558235;14315
1558243;14216
1558251;14182
1558259;14091
1558268;14130
1558276;14022
1558284;14064
1558292;13948
1558300;14069
1558309;13925
1558317;14019
1558325;13867
1558333;13867
1558341;13613
1558350;13709
1558359;13538
1558369;13703
1558377;13854
1558385;13852
1558394;13949
1558402;13950
1558411;13939
1558419;13925
1558427;13901
1558436;13844
1558444;13780
1558452;13796
1558460;13693
1558468;13626
1558477;13977
1558485;13595
1558493;10955
1558501;7262
1558509;5420
1558518;11623
1558526;16005
1558534;15715
1558542;14868
1558550;14528
1558558;14239
1558567;14147
1558575;13833
1558583;13875
1558591;13626
1558599;13712
1558608;13478
1558616;13564
1558624;13259
1558632;13356
1558640;13092
1558652;13130
1558660;13020
1558668;12848
1558676;12587
1558684;12372
1558693;12078
1558701;11907
1558709;11644
1558717;11620
1558726;11544
1558735;11741
1558743;11771
1558751;12153
1558759;12434
1558767;13003
1558776;13300
1558784;13774
1558792;13885
1558800;14205
1558808;14145
1558817;14350
1558825;14211
1558833;14378
1558841;14197
1558849;14356
1558857;14140
1558866;14278
1558874;13994
1558882;14127
1558890;13876
1558898;13990
1558907;13753
1558915;13900
1558923;13652
1558934;13843
1558942;13814
1558951;13902
1558959;13767
1558967;13837
1558975;13583
1558983;13584
1558992;13361
1559000;13467
1559008;13324
1559016;13504
1559024;13375
1559033;13563
1559042;13502
1559050;13703
1559058;13578
1559066;13743
1559075;13528
1559083;13703
1559091;13536
1559099;13721
1559107;13531
1559116;13772
1559124;14264
1559132;13279
1559140;9368
1559148;5321
1559156;5558
1559165;13770
1559173;15724
1559181;15477
1559189;14749
1559197;14816
1559206;14443
1559214;14405
1559225;14149
1559233;14295
1559241;14033
1559250;14097
1559258;13823
1559266;13892
1559274;13621
1559282;13710
1559291;13380
1559299;13421
1559307;13082
1559315;13119
1559323;12740
1559332;12753
1559340;12348
1559348;12353
1559356;12002
1559364;12169
1559373;12005
1559382;12291
1559390;12217
1559398;12698
1559406;12885
1559415;13524
1559423;13704
1559431;14191
1559439;14177
1559447;14492
1559455;14341
1559464;14529
1559472;14321
1559480;14492
1559488;14285
1559496;14410
1559508;14263
1559516;14431
1559524;14171
1559532;14338
1559540;14126
1559549;14269
1559557;14013
1559565;14196
1559573;13986
1559581;14154
1559590;13902
1559598;14068
1559606;13836
1559614;13989
1559622;13797
1559631;13895
1559639;13584
1559647;13563
1559655;13284
1559663;13496
1559672;13356
1559680;13590
1559688;13461
1559696;13687
1559705;13559
1559714;13822
1559722;13681
1559730;13804
1559738;13612
1559746;13752
1559754;13594
1559763;13738
1559771;13588
1559779;13641
1559790;14257
1559799;13072
1559807;8912
1559815;5230
1559823;6076
1559831;14102
1559839;15556
1559848;15211
1559856;14481
1559864;14539
1559872;14097
1559880;14101
1559889;13831
1559897;13966
1559905;13689
1559913;13801
1559921;13592
1559930;13729
1559938;13479
1559946;13557
1559954;13289
1559962;13342
1559971;13058
1559979;13046
1559987;12745
1559995;12677
1560003;12290
1560012;12150
1560020;11875
1560029;11912
1560037;11816
1560045;11954
1560054;11987
1560062;12330
1560072;12786
1560081;13491
1560089;13650
1560098;14085
1560106;14057
1560114;14368
1560122;14272
1560130;14495
1560138;14317
1560147;14498
1560155;14313
1560163;14432
1560171;14201
1560179;14322
1560188;14089
1560196;14191
1560204;14002
1560212;14060
1560220;13867
1560229;13967
1560237;13848
1560245;13929
1560253;13772
1560261;13832
1560270;13718
1560278;13798
1560286;13696
1560294;13750
1560302;13669
1560311;13677
1560319;13658
1560327;13683
1560335;13676
1560344;13714
1560355;13641
1560363;13729
1560371;13482
1560379;13665
1560387;13548
1560397;13724
1560405;13594
1560413;13814
1560421;13721
1560429;13939
1560438;13802
1560446;13902
1560454;13784
1560462;13890
1560470;13739
1560478;13819
1560487;13656
1560495;13658
1560503;14062
1560511;13751
1560519;10961
1560528;6814
1560536;4979
1560544;10683
1560552;15581
1560560;15531
1560569;14896
1560577;14602
1560585;14427
1560593;14168
1560601;14048
1560610;13931
1560618;13887
1560626;13790
1560634;13812
1560645;13852
1560654;13676
1560662;13660
1560670;13414
1560678;13397
1560686;13144
1560695;13101
1560703;12820
1560712;12706
1560720;12388
1560728;12192
1560737;11885
1560745;11832
1560753;11765
1560761;11888
1560769;11987
1560777;12275
1560786;12626
1560794;13058
1560802;13470
1560810;13869
1560818;14194
1560827;14353
1560835;14472
1560843;14491
1560851;14513
1560859;14417
