Tempo (ms);Valor
1620934;12789
1620943;13061
1620951;13292
1620959;13674
1620967;13955
1620975;14258
1620984;14345
1620992;14487
1621000;14449
1621008;14503
1621016;14365
1621025;14385
1621033;14258
1621041;14292
1621049;14088
1621057;14111
1621065;13897
1621074;13941
1621082;13708
1621090;13762
1621098;13569
1621106;13679
1621115;13537
1621123;13685
1621132;13502
1621140;13619
1621148;13444
1621157;13628
1621165;13494
1621173;13722
1621181;13530
1621189;13700
1621198;13504
1621209;13694
1621217;13643
1621225;13682
1621233;13574
1621242;13614
1621250;13552
1621258;13632
1621266;13517
1621274;13600
1621283;13473
1621291;13589
1621299;13484
1621307;13647
1621315;13419
1621324;13428
1621332;13193
1621340;13350
1621348;13224
1621356;13400
1621364;13242
1621373;13453
1621381;13325
1621389;13576
1621397;13480
1621405;13703
1621414;13538
1621422;13698
1621430;13527
1621438;13712
1621446;13478
1621456;13577
1621464;13704
1621472;13847
1621480;11529
1621488;7732
1621499;5651
1621507;12566
1621516;15644
1621524;15317
1621532;14543
1621541;14443
1621549;14184
1621557;14092
1621565;13845
1621573;13903
1621582;13686
1621590;13785
1621598;13521
1621606;13621
1621614;13407
1621623;13484
1621631;13256
1621639;13354
1621647;13066
1621655;13145
1621663;12803
1621672;12829
1621680;12444
1621688;12424
1621696;11998
1621704;11990
1621713;11683
1621721;11889
1621729;11753
1621737;12095
1621745;12132
1621754;12676
1621762;12959
1621770;13596
1621781;14011
1621789;14502
1621798;14492
1621806;14737
1621814;14605
1621822;14790
1621831;14588
1621840;14699
1621848;14451
1621856;14602
1621864;14402
1621872;14541
1621881;14267
1621889;14380
1621897;14137
1621905;14327
1621913;14074
1621922;14225
1621930;13997
1621938;14168
1621946;13926
1621954;14125
1621962;13901
1621971;14083
1621979;13840
1621987;14031
1621995;13808
1622003;13968
1622012;13757
1622020;13959
1622028;13750
1622036;13930
1622044;13745
1622053;13896
1622064;13745
1622072;14018
1622080;13817
1622088;14006
1622097;13729
1622105;13826
1622113;13486
1622121;13622
1622130;13444
1622139;13648
1622147;13424
1622155;13615
1622163;13443
1622171;13662
1622180;13528
1622188;13719
1622196;13529
1622204;13704
1622212;13514
1622221;13708
1622229;13483
1622237;13623
1622245;13530
1622253;14125
1622262;12287
1622270;8589
1622278;5240
1622286;7354
1622294;14544
1622302;15660
1622311;14869
1622319;14510
1622327;14221
1622335;14122
1622346;13839
1622355;13972
1622363;13680
1622371;13779
1622379;13494
1622387;13605
1622396;13326
1622404;13453
1622412;13166
1622420;13280
1622428;13019
1622437;13131
1622445;12787
1622454;12812
1622462;12374
1622470;12314
1622479;11850
1622487;11836
1622495;11513
1622503;11672
1622511;11502
1622520;11748
1622528;11780
1622536;12335
1622544;12654
1622552;13311
1622561;13576
1622569;14093
1622577;14212
1622585;14540
1622593;14485
1622601;14628
1622610;14481
1622618;14594
1622629;14466
1622637;14679
1622646;14419
1622654;14535
1622662;14229
1622670;14354
1622678;14101
1622686;14270
1622695;14043
1622703;14174
1622711;13950
1622719;14128
1622727;13918
1622736;14083
1622744;13892
1622752;14022
1622760;13845
1622769;14025
1622778;13815
1622786;13954
1622794;13775
1622802;13925
1622810;13756
1622819;13900
1622827;13743
1622835;13895
1622843;13772
1622851;13842
1622860;13591
1622868;13577
1622876;13459
1622884;13576
1622892;13494
1622900;13530
1622909;13515
1622920;13812
1622928;13778
1622936;13945
1622945;13730
1622953;13863
1622961;13674
1622969;13824
1622977;13621
1622985;13702
1622994;13416
1623002;14177
1623010;13266
1623018;10330
1623026;6465
1623035;6066
1623043;13003
1623051;16075
1623059;15388
1623067;14826
1623076;14376
1623084;14336
1623093;13971
1623101;13945
1623109;13757
1623118;13708
1623126;13540
1623134;13575
1623142;13463
1623150;13450
1623159;13339
1623167;13339
1623175;13201
1623183;13118
1623191;13004
1623203;12942
1623211;12636
1623219;12553
1623227;12134
1623235;12066
1623244;11745
1623252;11839
1623260;11703
1623268;11905
1623276;11938
1623284;12356
1623293;12650
1623301;13280
1623309;13617
1623317;14071
1623325;14212
1623334;14491
1623342;14523
1623350;14673
1623358;14632
1623366;14704
1623375;14637
1623383;14671
1623391;14588
1623399;14585
1623408;14486
1623417;14424
1623425;14353
1623433;14320
1623441;14245
1623449;14181
1623458;14133
1623466;14111
1623474;14114
1623485;14213
1623493;14097
1623502;14212
1623510;14040
1623518;14139
1623526;13976
1623534;14079
1623543;13927
1623551;14053
1623559;13971
1623567;14046
1623575;13917
1623583;13909
1623592;13666
1623600;13588
1623608;13487
1623616;13560
1623624;13499
1623633;13520
1623641;13532
1623649;13632
1623657;13694
1623665;13741
1623674;13728
1623682;13722
1623690;13748
1623698;13710
1623706;13709
1623715;13609
1623723;13592
1623732;13566
1623740;14163
1623748;12786
1623757;9360
1623767;6216
1623775;10208
1623784;16150
1623792;15874
1623801;15173
1623809;14412
1623817;14266
1623825;13989
1623833;13858
1623842;13720
1623850;13698
1623858;13593
1623866;13546
1623874;13486
1623882;13474
1623891;13388
1623899;13360
1623907;13270
1623915;13199
1623923;13096
1623932;12908
1623940;12782
1623948;12512
1623956;12309
1623964;12022
1623973;11872
1623981;11672
1623989;11742
1623997;11695
1624005;11889
1624014;12025
1624022;12496
1624030;12819
1624038;13399
1624049;13979
1624058;14222
1624066;14463
1624074;14517
1624082;14632
1624090;14596
1624099;14637
1624108;14574
1624116;14517
1624124;14434
1624132;14341
1624141;14242
1624149;14129
1624157;14045
1624165;13949
1624173;13916
1624182;13841
1624190;13855
1624198;13797
1624206;13817
1624214;13748
1624222;13829
1624231;13726
1624239;13805
1624247;13702
1624255;13814
1624263;13693
1624272;13773
1624280;13613
1624288;13733
1624296;13597
1624304;13733
1624313;13593
1624321;13701
1624329;13448
1624340;13344
1624348;13343
1624357;13319
1624365;13343
1624373;13302
1624381;13271
1624389;13336
1624398;13370
1624406;13471
1624414;13424
1624423;13420
1624431;13363
1624440;13424
1624448;13323
1624456;13358
1624464;13256
1624472;13245
1624481;13750
1624489;13020
1624497;9674
1624505;5967
1624513;5357
1624521;12657
1624530;15467
1624538;15114
1624546;14280
1624554;14170
1624562;13856
1624571;13782
1624579;13502
1624587;13607
1624595;13378
1624603;13521
1624612;13281
1624623;13387
1624631;13330
1624639;13216
1624647;13070
1624656;13037
1624664;12880
1624672;12798
1624680;12580
1624688;12483
1624697;12177
1624705;12009
1624713;11702
1624721;11693
1624729;11569
1624738;11735
1624746;11713
1624755;12030
1624763;12196
1624771;12790
1624780;13129
1624788;13693
1624796;13856
1624804;14228
1624812;14218
1624820;14492
1624829;14375
1624837;14597
1624845;14454
1624853;14654
1624861;14456
1624870;14621
1624878;14435
1624886;14573
1624894;14349
1624934;16336
1624942;15839
1624951;15570
1624959;15103
1624967;15029
1624975;14617
1624983;14578
1624991;14238
1625000;14243
1625009;13955
1625017;13975
1625025;13741
1625033;13782
1625042;13562
1625050;13624
1625058;13465
1625066;13538
1625074;13315
1625083;13259
1625091;13033
1625099;13070
1625107;12984
1625115;13039
1625124;12973
1625132;13040
1625140;13066
1625148;13172
1625156;13200
1625165;13252
1625173;13262
1625181;13288
1625189;13311
1625197;13256
1625206;13210
1625217;13243
1625225;13672
1625233;13164
1625241;9981
1625250;6050
1625258;4694
1625266;11437
1625274;15228
1625282;14953
1625290;14149
1625299;14007
1625307;13763
1625316;13613
1625324;13400
1625332;13369
1625341;13258
1625349;13286
1625357;13186
1625365;13173
1625373;13097
1625382;13088
1625390;13001
1625398;12936
1625406;12844
1625414;12678
1625423;12520
1625431;12352
1625439;12203
1625447;11947
1625455;11737
1625464;11507
1625472;11478
1625480;11411
1625488;11542
1625499;11852
1625508;12078
1625516;12617
1625524;12946
1625532;13457
1625540;13756
1625549;14095
1625557;14204
1625565;14405
1625573;14373
1625581;14442
1625590;14340
1625598;14401
1625606;14362
1625614;14411
1625622;14365
1625631;14332
1625640;14317
1625648;14293
1625656;14261
1625664;14190
1625672;14127
1625681;14068
1625689;14092
1625697;14032
1625705;14042
1625713;13929
1625722;13960
1625730;13885
1625738;13966
1625746;13902
1625754;14017
1625763;13933
1625771;14075
1625779;13971
1625790;14048
1625798;14084
1625807;13793
1625815;13729
1625823;13680
1625831;13767
1625839;13691
1625848;13718
1625856;13793
1625864;13896
1625872;13947
1625880;13942
1625889;13898
1625897;13848
1625905;13824
1625913;13785
1625921;13780
1625929;13687
1625938;13666
1625946;14027
1625955;13787
1625963;11028
1625971;6882
1625980;4768
1625988;10545
1625996;15489
1626004;15394
1626012;14587
1626021;14422
1626029;14249
1626037;14200
1626045;13968
1626053;14070
1626062;13890
1626073;13969
1626081;13950
1626089;13803
1626097;13768
1626106;13675
1626114;13604
1626122;13542
1626130;13393
1626138;13296
1626147;13136
1626155;12952
1626163;12691
1626171;12484
1626179;12197
1626188;12084
1626196;11966
1626204;12076
1626212;12055
1626220;12265
1626228;12452
1626237;12981
1626245;13325
1626253;13847
1626261;14034
1626269;14426
1626278;14469
1626287;14701
1626295;14629
1626303;14774
1626311;14638
1626320;14762
1626328;14576
1626336;14701
1626344;14527
1626355;14611
1626364;14591
1626372;14546
1626380;14447
1626388;14407
1626396;14303
1626405;14283
1626413;14178
1626421;14211
1626429;14120
1626437;14178
1626446;14122
1626454;14181
1626462;14028
1626470;14014
1626478;13760
1626487;13749
1626495;13587
1626503;13671
1626511;13593
1626519;13795
1626527;13770
1626536;13956
1626544;13865
1626552;13939
1626560;13736
1626568;13839
1626577;13671
1626585;13822
1626593;13694
1626602;13845
1626610;13621
1626619;13680
1626627;14033
1626637;12848
1626645;9173
1626654;6291
1626663;7422
1626671;15064
1626679;16104
1626687;15462
1626695;14674
1626704;14409
1626712;14167
1626720;14046
1626728;13837
1626736;13858
1626745;13654
1626753;13711
1626761;13511
1626769;13659
1626777;13499
1626786;13551
1626794;13308
1626802;13365
1626810;13075
1626818;13089
1626826;12778
1626835;12743
1626843;12379
1626851;12297
1626859;11918
1626867;11956
1626876;11764
1626884;11954
1626892;11890
1626900;12246
1626908;12383
1626920;13180
1626928;13554
1626936;14041
1626944;14261
1626952;14588
1626961;14604
1626970;14782
1626978;14671
1626986;14746
1626994;14528
1627003;14583
1627011;14431
1627019;14496
1627027;14260
1627035;14316
1627044;14062
1627052;14166
1627060;14029
1627068;14221
1627076;14070
1627085;14211
1627093;14108
1627101;14308
1627109;14124
1627117;14273
1627126;13934
1627134;13984
1627142;13749
1627150;13867
1627158;13688
1627166;13888
1627175;13743
1627183;13966
1627191;13863
1627199;14067
1627210;13923
1627219;14049
1627227;13879
1627235;13944
1627243;13781
1627251;13869
1627260;13722
1627268;13842
1627277;14209
1627285;12976
1627293;9405
1627302;6838
1627310;7750
1627318;15204
1627326;16228
1627334;15646
1627343;14810
1627351;14524
1627359;14193
1627367;14060
1627375;13717
1627384;13726
1627392;13474
1627400;13496
1627408;13214
1627416;13181
1627425;12927
1627433;12946
1627441;12688
1627449;12731
1627457;12496
1627465;12487
1627474;12165
1627482;12124
1627493;11751
1627501;11681
1627510;11378
1627518;11425
1627526;11354
1627534;11614
1627542;11653
1627550;12110
1627559;12405
1627567;13007
1627575;13318
1627584;13847
1627592;13989
1627601;14272
1627609;14187
1627617;14398
1627625;14233
1627633;14303
1627642;14164
1627650;14289
1627658;14151
1627666;14198
1627674;13983
1627683;14014
1627691;13805
1627699;13906
1627707;13770
1627715;13902
1627724;13757
1627732;13871
1627740;13719
1627748;13823
1627756;13572
1627764;13565
1627776;13429
1627784;13561
1627792;13396
1627800;13539
1627809;13455
1627817;13696
1627825;13663
1627833;13833
1627841;13691
1627849;13815
1627858;13643
1627866;13713
1627874;13559
1627882;13661
1627890;13497
1627899;13526
1627908;13949
1627916;13518
1627924;10549
1627932;6920
1627941;5516
1627949;12244
1627957;15900
1627965;15613
1627973;14817
1627982;14506
1627990;14200
1627998;14046
1628006;13756
1628014;13780
1628023;13626
1628031;13656
1628039;13500
1628047;13556
1628058;13399
1628067;13511
1628075;13292
1628083;13271
1628091;13027
1628099;13010
1628108;12715
1628116;12643
1628124;12282
1628132;12153
1628140;11780
1628148;11769
1628157;11623
1628165;11806
1628173;11768
1628181;12151
1628189;12467
1628198;13106
1628206;13511
1628214;14049
1628222;14224
1628231;14531
1628240;14523
1628248;14680
1628256;14593
1628264;14715
1628272;14579
1628281;14594
1628289;14450
1628297;14482
1628305;14369
1628313;14384
1628322;14255
1628330;14266
1628341;14167
1628349;14299
1628357;14154
1628366;14230
1628374;14116
1628382;14257
1628390;14063
1628398;14133
1628407;13859
1628415;13857
1628423;13663
1628431;13740
1628439;13622
1628447;13751
1628456;13701
1628464;13829
1628472;13784
1628480;13909
1628488;13830
1628497;13913
1628505;13797
1628513;13854
1628521;13745
1628529;13778
1628538;13683
1628547;13677
1628555;14284
1628563;13537
1628571;10122
1628580;5878
1628588;4883
1628596;12021
1628604;15605
1628612;15322
1628621;14691
1628632;14450
1628640;14160
1628648;14014
1628656;13793
1628665;13823
1628673;13647
1628681;13667
1628689;13491
1628697;13577
1628706;13429
1628714;13414
1628722;13219
1628730;13213
1628738;13024
1628746;12947
1628755;12710
1628763;12587
1628771;12292
1628779;12128
1628787;11904
1628796;11888
1628804;11807
1628812;11898
1628820;11971
1628828;12256
1628837;12555
1628845;13075
1628853;13471
1628861;13879
1628870;14105
1628879;14282
1628887;14339
1628895;14399
1628903;14407
1628913;14489
1628923;14367
1628931;14406
1628939;14209
1628947;14304
1628955;14185
1628964;14183
1628972;13987
1628980;14005
1628988;13884
1628996;13912
1629005;13809
1629013;13911
1629021;13857
1629029;13915
1629037;13861
1629046;13925
1629054;13880
1629062;13913
1629070;13877
1629078;13882
1629086;13801
1629095;13668
1629103;13451
1629111;13407
1629119;13417
1629127;13401
1629136;13372
1629144;13386
1629152;13445
1629160;13488
1629168;13590
1629177;13569
1629185;13604
1629196;13625
1629204;13577
1629212;13641
1629221;13501
1629229;13493
1629238;13654
1629246;13906
1629254;11622
1629263;7361
1629271;4315
1629279;7797
1629287;14885
1629295;15541
1629304;14921
1629312;14514
1629320;14393
1629328;14167
1629336;14000
1629345;13879
1629353;13773
1629361;13681
1629369;13636
1629377;13515
1629385;13449
1629394;13331
1629402;13292
1629410;13179
1629418;13152
1629426;12994
1629435;12952
1629443;12726
1629451;12620
1629459;12319
1629467;12128
1629479;11944
1629487;11821
1629495;11856
1629503;11853
1629511;12054
1629520;12287
1629528;12774
1629536;13250
1629544;13752
1629552;14060
1629562;14323
1629570;14470
1629578;14560
1629586;14617
1629594;14591
1629603;14551
1629611;14478
1629619;14407
1629627;14325
1629635;14325
1629644;14214
1629652;14227
1629660;14136
1629668;14174
1629676;14064
1629684;14100
1629693;14004
1629701;14043
1629709;13957
1629717;14060
1629725;13961
1629734;14027
1629742;13895
1629750;14015
1629761;14032
1629769;14028
1629778;13961
1629786;13919
1629794;13886
1629802;13854
1629810;13752
1629819;13636
1629827;13498
1629835;13512
1629843;13501
1629851;13579
1629860;13541
1629868;13702
1629877;13760
1629885;13893
1629893;13871
1629902;13949
1629910;13860
1629918;13891
1629926;13805
1629934;13885
1629943;13740
1629951;13786
1629959;13721
1629967;14332
1629975;12741
1629983;9057
1629992;5537
1630000;6962
1630008;14484
1630016;16004
1630024;15304
1630033;14876
1630041;14530
1630052;14356
1630060;14193
1630068;14096
1630077;13951
1630085;13936
1630093;13790
1630101;13773
1630109;13658
1630118;13642
1630126;13490
1630134;13513
1630142;13341
1630150;13334
1630159;13133
1630167;13029
1630175;12670
1630183;12544
1630191;12167
1630200;12087
1630208;11858
1630216;11968
1630225;11902
1630233;12153
1630242;12247
1630250;12745
1630258;13052
1630266;13611
1630274;13866
1630282;14318
1630291;14404
1630299;14675
1630307;14570
1630315;14695
1630323;14545
1630335;14655
1630343;14593
1630351;14571
1630359;14416
1630367;14422
1630376;14255
1630384;14289
1630392;14158
1630400;14160
1630408;14044
1630417;14127
1630425;13990
1630433;14063
1630441;13908
1630449;14040
1630458;13912
1630466;14055
1630474;13901
1630482;14033
1630490;13792
1630499;13806
1630507;13540
1630515;13691
1630523;13566
1630532;13748
1630541;13673
1630549;13890
1630557;13854
1630565;13994
1630573;13865
1630582;13997
1630590;13805
1630598;13932
1630606;13760
1630617;13881
1630626;13770
1630634;13751
1630642;14045
1630650;13700
1630658;11030
1630666;7631
1630675;6020
1630683;11787
1630691;16089
1630699;15753
1630707;14844
1630716;14344
1630724;13962
1630732;13837
1630740;13493
1630748;13514
1630757;13278
1630765;13382
1630773;13166
1630781;13253
1630789;13076
1630798;13147
1630806;12951
1630814;12995
1630822;12728
1630830;12751
1630839;12489
1630847;12436
1630856;12078
1630864;11978
1630872;11588
1630881;11543
1630889;11343
1630899;11574
1630908;11567
1630916;11890
1630925;12078
1630933;12670
1630941;13032
1630949;13618
1630957;13851
1630966;14227
1630974;14278
1630982;14504
1630990;14399
1630998;14540
1631006;14344
1631015;14461
1631023;14300
1631031;14446
1631039;14252
1631047;14366
1631056;14173
1631064;14275
1631072;14092
1631080;14218
1631088;14072
1631097;14186
1631105;14016
1631113;14161
1631121;14055
1631129;14182
1631138;14011
1631146;14138
1631154;13849
1631163;13849
1631171;13665
1631182;13794
1631190;13718
1631198;13837
1631206;13688
1631215;13868
1631224;13784
1631232;13904
1631240;13768
1631248;13931
1631256;13715
1631265;13846
1631273;13658
1631281;13750
1631289;13545
1631297;13660
1631305;14115
1631314;13060
1631322;9334
1631330;5901
1631338;6011
1631346;13758
1631355;15812
1631363;15410
1631371;14580
1631379;14377
1631387;14051
1631396;13908
1631404;13666
1631412;13683
1631420;13497
1631428;13564
1631437;13414
1631445;13421
1631453;13263
1631461;13298
1631472;13169
1631481;13245
1631489;12927
1631497;12938
1631505;12593
1631513;12513
1631522;12088
1631530;11977
1631539;11646
1631547;11682
1631555;11500
1631564;11698
1631572;11682
1631580;12133
1631588;12449
1631596;13106
1631604;13452
1631613;13995
1631621;14167
1631629;14483
1631637;14456
1631645;14602
1631654;14493
1631662;14616
1631670;14476
1631678;14546
1631686;14449
1631695;14543
1631703;14403
1631711;14368
1631719;14233
1631727;14247
1631736;14110
1631744;14128
1631755;14037
1631763;14216
1631771;14010
1631780;14136
1631788;13948
1631796;14089
1631804;13920
1631812;14040
1631821;13850
1631829;13967
1631837;13813
1631846;13934
1631854;13773
1631863;13903
1631871;13750
1631879;13878
1631887;13710
1631895;13709
1631903;13440
1631912;13498
1631920;13414
1631928;13524
1631936;13419
1631944;13585
1631953;13570
1631961;13691
1631969;13738
1631977;13808
1631985;13731
1631994;13754
1632002;13699
1632010;13705
1632018;13616
1632026;13575
1632038;13502
1632046;14269
1632054;12933
1632062;9483
1632070;5530
1632079;5946
1632087;13228
1632095;15708
1632103;15067
1632111;14587
1632120;14293
1632128;14147
1632136;13808
1632144;13797
1632152;13613
1632161;13656
1632169;13496
1632177;13508
1632186;13399
1632194;13420
1632202;13305
1632211;13271
1632219;13161
1632227;13129
1632235;12977
1632243;12841
1632252;12626
1632260;12398
1632268;12156
1632276;11931
1632284;11732
1632293;11651
1632301;11670
1632309;11680
1632320;11933
1632328;12505
1632337;12860
1632345;13419
1632353;13697
1632361;14124
1632369;14241
1632378;14441
1632386;14402
1632394;14484
1632402;14443
1632410;14500
1632419;14362
1632427;14384
1632435;14284
1632443;14321
1632451;14233
1632460;14190
1632468;14114
1632476;14122
1632484;14136
1632492;14111
1632500;14088
1632510;14057
1632518;14083
1632526;14021
1632534;13994
1632542;13924
1632551;13948
1632559;13871
1632567;13880
1632575;13785
1632583;13845
1632592;13729
1632600;13776
1632611;13859
1632619;13828
1632627;13873
1632636;13810
1632644;13847
1632652;13763
1632660;13814
1632668;13772
1632677;13821
1632685;13781
1632693;13714
1632701;13599
1632709;13526
1632718;13464
1632726;13467
1632734;13481
1632742;13450
1632750;13489
1632759;13517
1632767;13618
1632775;13627
1632783;13698
1632791;13641
1632799;13716
1632808;13656
1632816;13679
1632824;13577
1632833;13588
1632841;13390
1632850;13990
1632858;13436
1632866;10804
1632874;6532
1632882;5118
1632894;13391
1632902;15453
1632910;15032
1632918;14444
1632926;14342
1632935;14141
1632943;13939
1632951;13851
1632959;13764
1632967;13648
1632976;13566
1632984;13553
1632992;13452
1633000;13435
1633008;13357
1633017;13351
1633025;13185
1633033;13121
1633041;12960
1633049;12846
1633058;12529
1633066;12324
1633074;11947
1633082;11787
1633090;11529
1633098;11536
1633107;11434
1633115;11633
1633123;11635
1633131;12031
1633139;12304
1633149;12942
1633157;13319
1633165;13846
1633175;14143
1633183;14339
1633192;14395
1633201;14411
1633209;14360
1633217;14369
1633225;14294
1633234;14315
1633242;14232
1633250;14254
1633258;14189
1633266;14207
1633275;14109
1633283;14147
1633291;14066
1633299;14120
1633307;14035
1633316;14107
1633324;13961
1633332;14033
1633340;13892
1633348;14025
1633357;13863
1633365;13946
1633373;13790
1633381;13886
1633389;13677
1633398;13789
1633406;13637
1633414;13747
1633422;13595
1633430;13733
1633438;13562
1633447;13711
1633458;13678
1633466;13770
1633474;13727
1633482;13774
1633491;13722
1633499;13761
1633507;13678
1633515;13766
1633524;13648
1633533;13726
1633541;13644
1633549;13741
1633557;13608
1633565;13700
1633574;13496
1633582;13499
1633590;13279
1633598;13367
1633606;13245
1633615;13432
1633623;13312
1633631;13434
1633639;13307
1633647;13538
1633656;13472
1633664;13613
1633672;13460
1633680;13611
1633688;13459
1633697;13601
1633705;13397
1633713;13486
1633721;13816
1633729;13576
1633741;9448
1633749;5836
1633757;5959
1633765;13351
1633773;15378
1633782;15057
1633790;14411
1633798;14382
1633806;14019
1633814;13906
1633822;13651
1633831;13727
1633839;13554
1633848;13650
1633856;13469
1633864;13566
1633873;13352
1633881;13451
1633889;13246
1633897;13327
1633905;13050
1633914;13069
1633922;12760
1633930;12740
1633938;12360
1633946;12272
1633955;11877
1633963;11814
1633971;11553
1633979;11735
1633987;11593
1633996;11896
1634004;11969
1634012;12524
1634020;12854
1634031;13687
1634040;13979
1634048;14363
1634056;14396
1634064;14597
1634072;14494
1634081;14619
1634089;14469
1634097;14545
1634105;14349
1634113;14462
1634121;14290
1634130;14423
1634138;14222
1634146;14308
1634154;14100
1634162;14261
1634172;14103
1634180;14269
1634188;14079
1634196;14228
1634204;14058
1634213;14252
1634221;14057
1634229;14157
1634237;13930
1634245;14062
1634254;13919
1634262;14032
1634270;13859
1634278;13998
1634286;13854
1634295;13966
1634303;13820
1634314;14004
1634322;13899
1634330;14017
1634339;13809
1634347;13910
1634355;13718
1634363;13873
1634371;13723
1634380;13870
1634388;13647
1634396;13807
1634404;13653
1634412;13812
1634420;13632
1634429;13790
1634437;13617
1634445;13755
1634453;13532
1634461;13632
1634470;13366
1634478;13461
1634486;13348
1634495;13548
1634503;13417
1634512;13535
1634520;13448
1634528;13689
1634536;13634
1634544;13845
1634553;13732
1634561;13837
1634569;13718
1634577;13824
1634585;13671
1634597;13814
1634605;14284
1634613;13401
1634621;10014
1634629;6882
1634638;6780
1634646;13999
1634654;15684
1634662;15233
1634670;14459
1634679;14364
1634687;14038
1634695;13967
1634703;13683
1634711;13708
1634719;13486
1634728;13585
1634736;13385
1634744;13452
1634752;13266
1634760;13304
1634769;13106
1634777;13162
1634785;12951
1634793;12953
1634801;12695
1634810;12664
1634818;12311
1634827;12155
1634835;11778
1634843;11674
1634852;11476
1634860;11562
1634868;11529
1634879;11901
1634887;12054
1634896;12608
1634904;12928
1634912;13536
1634920;13719
1634928;14123
1634937;14164
1634945;14428
1634953;14337
1634961;14537
1634969;14395
1634978;14532
1634986;14362
1634994;14449
1635002;14271
1635010;14341
1635018;14160
1635027;14234
1635035;14082
1635043;14146
1635051;14014
1635059;14081
1635068;13958
1635076;14042
1635084;13956
1635092;14012
1635100;13900
1635109;13961
1635117;13905
1635125;13975
1635133;13907
1635142;13941
1635151;13892
1635191;15838
1635199;15598
1635207;15126
1635215;14863
1635223;14532
1635231;14395
1635240;14154
1635248;14122
1635256;13885
1635264;13846
1635272;13629
1635281;13674
1635289;13501
1635297;13569
1635305;13315
1635313;13294
1635322;13039
1635330;13118
1635338;12995
1635346;13169
1635354;13006
1635364;13144
1635372;13020
1635380;13265
1635388;13183
1635396;13323
1635405;13163
1635413;13305
1635421;13106
1635429;13189
1635437;13005
1635446;13270
1635454;13377
1635462;11943
1635473;7337
1635481;5991
1635490;11214
1635498;15654
1635506;15153
1635514;14577
1635522;13975
1635530;13935
1635539;13570
1635547;13509
1635555;13284
1635563;13340
1635571;13106
1635580;13162
1635588;12976
1635596;13040
1635604;12802
1635612;12897
1635621;12671
1635629;12696
1635637;12463
1635645;12511
1635653;12227
1635662;12221
1635670;11847
1635678;11759
1635687;11382
1635695;11390
1635704;11204
1635712;11421
1635720;11352
1635728;11661
1635736;11851
1635745;12475
1635753;12833
1635764;13619
1635772;13852
1635780;14209
1635789;14242
1635797;14459
1635805;14384
1635813;14535
1635821;14381
1635830;14475
1635838;14288
1635846;14388
1635854;14175
1635862;14271
1635870;14058
1635879;14166
1635887;13992
1635895;14135
1635903;13951
1635911;14118
1635920;13932
1635928;14007
1635936;13832
1635944;13989
1635952;13818
1635961;13967
1635969;13836
1635977;14009
1635985;13845
1635993;13992
1636002;13802
1636011;13908
1636019;13713
1636027;13821
1636035;13655
1636046;13838
1636054;13778
1636063;13907
1636071;13738
1636079;13810
1636088;13520
1636096;13549
1636104;13363
1636112;13524
1636120;13403
1636129;13558
1636137;13383
1636145;13608
1636153;13537
1636161;13778
1636169;13627
1636178;13752
1636186;13586
1636194;13742
1636202;13566
1636210;13677
1636219;13411
1636227;14017
1636235;13494
1636243;11080
1636251;7124
1636260;5732
1636268;11296
1636276;15881
1636284;15436
1636292;14829
1636301;14319
1636309;14294
1636317;13929
1636328;13959
1636336;13746
1636345;13811
1636353;13547
1636361;13625
1636369;13382
1636378;13480
1636387;13225
1636395;13307
1636403;13046
1636411;13112
1636419;12805
1636428;12855
1636436;12528
1636444;12468
1636452;12042
1636460;11927
1636468;11558
1636477;11598
1636485;11449
1636493;11675
1636501;11673
1636509;12046
1636518;12283
1636526;12914
1636534;13266
1636542;13775
1636550;13966
1636559;14265
1636567;14287
1636575;14402
1636583;14333
1636591;14474
1636600;14374
1636611;14541
1636619;14328
1636627;14432
1636635;14234
1636644;14347
1636652;14147
1636660;14244
1636668;14061
1636676;14203
1636686;14052
1636694;14202
1636702;14055
1636710;14183
1636718;14025
1636727;14180
1636735;14036
1636743;14145
1636751;14023
1636759;14111
1636767;13960
1636776;14027
1636784;13897
1636792;13957
1636800;13804
1636808;13853
1636817;13728
1636825;13793
1636833;13724
1636841;13747
1636849;13518
1636858;13492
1636866;13423
1636874;13461
1636882;13438
1636893;13617
1636902;13564
1636910;13780
1636918;13710
1636926;13846
1636934;13658
1636943;13797
1636951;13614
1636959;13715
1636967;13523
1636975;13606
1636984;13429
1636993;14132
1637001;12868
1637009;9519
1637017;5934
1637026;6498
1637034;13838
1637042;15783
1637050;15077
1637058;14503
1637066;14203
1637075;14052
1637083;13761
1637091;13726
1637099;13611
1637107;13596
1637116;13504
1637124;13484
1637132;13383
1637140;13316
1637148;13193
1637157;13124
1637165;13020
1637173;12951
1637184;12860
1637192;12925
1637201;12555
1637209;12424
1637217;12022
1637225;11956
1637233;11714
1637242;11802
1637250;11727
1637258;11939
1637266;11982
1637274;12362
1637283;12719
1637291;13284
1637299;13669
1637307;14113
1637316;14313
1637325;14530
1637333;14590
1637341;14663
1637349;14627
1637357;14645
1637366;14622
1637374;14577
1637382;14489
1637390;14423
1637398;14346
1637406;14262
1637415;14217
1637423;14149
1637431;14160
1637439;14082
1637447;14077
1637456;13969
1637467;13970
1637475;14086
1637483;13947
1637491;14023
1637500;13873
1637508;13952
1637516;13813
1637524;13847
1637532;13711
1637541;13762
1637549;13698
1637557;13728
1637565;13628
1637573;13610
1637582;13532
1637590;13527
1637598;13452
1637606;13347
1637614;13197
1637623;13179
1637631;13208
1637640;13249
1637648;13291
1637656;13349
1637665;13457
1637673;13509
1637681;13649
1637689;13636
1637697;13664
1637705;13553
1637714;13647
1637722;13619
1637730;13698
1637738;13600
1637750;13801
1637758;14335
1637766;12558
1637774;8778
1637782;5865
1637790;8317
1637799;15356
1637807;15940
1637815;15124
1637823;14524
1637831;14350
1637840;14145
1637848;13964
1637856;13884
1637864;13796
1637872;13725
1637881;13690
1637889;13588
1637897;13540
1637905;13426
1637913;13396
1637922;13246
1637930;13195
1637938;13004
1637946;12938
1637955;12749
1637964;12638
1637972;12344
1637980;12165
1637988;11804
1637996;11737
1638004;11562
1638013;11768
1638021;11787
1638032;12109
1638040;12563
1638049;12931
1638057;13448
1638065;13876
1638073;14256
1638081;14467
1638089;14618
1638098;14676
1638106;14736
1638114;14752
1638122;14725
1638130;14714
1638139;14656
1638147;14627
1638155;14555
1638163;14544
1638171;14433
1638180;14432
1638188;14356
1638196;14372
1638204;14250
1638212;14319
1638221;14231
1638229;14282
1638237;14205
1638245;14268
1638253;14152
1638262;14238
1638271;14141
1638279;14231
1638287;14074
1638295;14158
1638303;14041
1638314;14132
1638323;14173
1638331;14085
1638339;13984
1638348;13819
1638356;13659
1638364;13589
1638372;13498
1638380;13493
1638388;13495
1638397;13583
1638405;13628
1638413;13678
1638421;13661
1638429;13709
1638438;13620
1638446;13670
1638454;13585
1638462;13633
1638470;13496
1638479;13531
1638487;13879
1638495;13493
1638503;10791
1638511;7459
1638520;6230
1638528;12324
1638536;16136
1638544;15663
1638552;14770
1638561;14321
1638569;14007
1638577;13868
1638585;13536
1638593;13563
1638605;13484
1638613;13497
1638621;13342
1638629;13295
1638637;13154
1638646;13120
1638655;12926
1638663;12906
1638671;12733
1638679;12682
1638687;12421
1638696;12269
1638704;11918
1638712;11821
1638720;11508
1638728;11426
1638737;11243
1638745;11397
1638753;11385
1638761;11683
1638769;11873
1638778;12399
1638786;12763
1638794;13367
1638802;13650
1638810;14087
1638819;14152
1638827;14405
1638835;14312
1638843;14501
1638851;14347
1638860;14475
1638868;14303
1638876;14418
1638887;14333
1638895;14405
1638904;14251
1638912;14256
1638920;14127
1638928;14145
1638936;13995
1638945;14057
1638953;13920
1638961;14034
1638970;13929
1638978;14051
1638986;13909
1638995;14017
1639003;13815
1639011;13828
1639019;13611
1639027;13735
1639036;13585
1639044;13753
1639052;13642
1639060;13830
1639068;13765
1639077;13941
1639085;13796
1639093;13899
1639101;13733
1639109;13890
1639118;13721
1639126;13853
1639134;13632
1639142;13710
1639150;13729
1639159;14178
1639178;7594
1639186;5891
1639194;12175
1639203;16309
1639211;15896
1639219;14939
1639227;14517
1639235;14221
1639244;14063
1639252;13695
1639260;13744
1639268;13505
1639276;13575
1639284;13352
1639294;13401
1639302;13178
1639310;13291
1639318;13067
1639326;13118
1639335;12866
1639343;12923
1639351;12627
1639359;12606
1639367;12244
1639376;12155
1639384;11756
1639392;11702
1639400;11502
1639408;11666
1639417;11595
1639425;11851
1639433;11975
1639441;12520
1639449;12869
1639461;13675
1639469;13911
1639477;14290
1639485;14243
1639493;14432
1639502;14298
1639510;14470
1639518;14320
1639526;14415
1639534;14198
1639543;14297
1639551;14111
1639559;14229
1639567;14029
1639575;14097
1639583;13905
1639592;14042
1639600;13879
1639609;13989
1639617;13885
1639625;14028
1639634;13895
1639642;14045
1639650;13904
1639658;13990
1639666;13842
1639675;13850
1639683;13576
1639691;13560
1639699;13408
1639707;13511
1639716;13432
1639724;13585
1639732;13521
1639743;13844
1639751;13840
1639760;13991
1639768;13820
1639776;13921
1639784;13739
1639792;13842
1639801;13635
1639809;13744
1639817;13655
1639825;14329
1639833;12571
1639842;8738
1639850;4981
1639858;7020
1639866;14665
1639874;15872
1639882;15133
1639891;14721
1639899;14411
1639907;14276
1639915;13977
1639924;14025
1639933;13798
1639941;13859
1639949;13641
1639957;13689
1639965;13535
1639974;13595
1639982;13445
1639990;13437
1639998;13221
1640006;13163
1640015;12961
1640023;12856
1640034;12551
1640042;12551
1640050;12174
1640059;12135
1640067;11873
1640075;12033
1640083;11934
1640091;12229
1640100;12325
1640108;12838
1640116;13149
1640124;13726
1640132;13935
1640141;14344
1640149;14391
1640157;14581
1640165;14500
1640173;14618
1640182;14510
1640190;14563
1640198;14423
1640206;14444
1640214;14355
1640222;14419
1640231;14289
1640239;14332
1640248;14206
1640256;14210
1640264;14100
1640273;14126
1640281;14056
1640289;14080
1640297;13986
1640305;14027
1640317;14018
1640325;14178
1640333;14007
1640341;14068
1640349;13740
1640358;13729
1640366;13513
1640374;13602
1640382;13446
1640390;13603
1640399;13525
1640407;13730
1640415;13672
1640423;13786
1640431;13671
1640440;13709
1640448;13601
1640456;13668
1640464;13581
1640472;13593
1640481;13468
1640489;13572
1640497;14167
1640505;12870
1640513;8919
1640521;5078
1640530;5950
1640538;13859
1640546;15562
1640554;15034
1640562;14458
1640571;14304
1640580;14110
1640588;13945
1640598;13866
1640606;13986
1640615;13755
1640623;13764
1640632;13554
1640640;13609
1640648;13447
1640657;13465
1640665;13259
1640673;13252
1640681;13046
1640689;12981
1640698;12713
1640706;12565
1640714;12266
1640722;12064
1640730;11841
1640739;11821
1640747;11740
1640755;11783
1640763;11860
1640771;12082
1640780;12446
1640788;12917
1640796;13349
1640804;13739
1640812;14054
1640820;14235
1640829;14369
1640837;14401
1640845;14453
1640853;14388
1640861;14422
1640870;14320
1640881;14299
1640889;14417
1640897;14231
1640905;14247
1640914;14094
1640922;14148
1640930;14031
1640939;14061
1640947;13979
1640956;14048
1640964;13988
1640972;14009
1640980;13939
1640988;13977
1640997;13914
1641005;13904
1641013;13903
1641021;13887
1641029;13871
1641038;13878
1641046;13864
1641054;13832
1641062;13790
1641070;13702
1641079;13586
1641087;13473
1641095;13521
1641103;13470
1641111;13529
1641119;13519
1641128;13650
1641136;13649
1641144;13767
1641152;13738
1641164;13791
1641172;13874
1641180;13767
1641188;13793
1641196;13700
1641204;13707
1641213;13603
1641221;13973
1641229;13846
1641237;11527
1641246;7493
1641255;5443
1641263;10284
1641271;15828
1641279;15772
1641287;15060
1641296;14580
1641304;14430
1641312;14213
1641320;13969
1641328;13909
1641337;13811
1641345;13828
1641353;13703
1641361;13701
1641369;13568
1641378;13611
1641386;13426
1641394;13413
1641402;13190
1641410;13151
1641418;12872
1641427;12784
1641435;12453
1641443;12337
1641454;12083
1641463;11903
1641471;11766
1641479;11732
1641487;11792
1641495;11949
1641503;12233
1641512;12671
1641520;13123
1641528;13559
1641536;13896
1641544;14191
1641553;14359
1641561;14534
1641570;14549
1641578;14618
1641586;14576
1641595;14618
1641603;14470
1641611;14496
1641619;14379
1641627;14385
1641636;14229
1641644;14252
1641652;14099
1641660;14208
1641668;14131
1641677;14201
1641685;14053
1641693;14150
1641701;14028
1641709;14103
1641718;13931
1641726;14061
1641737;14043
1641745;14065
1641753;14015
1641762;14040
1641770;13969
1641778;14003
1641786;13918
1641794;13928
1641802;13847
1641811;13911
1641819;13800
1641827;13865
1641835;13745
1641843;13730
1641852;13492
1641860;13479
1641868;13393
1641876;13520
1641884;13412
1641894;13511
1641902;13441
1641910;13594
1641918;13504
1641926;13643
1641935;13505
1641943;13603
1641951;13446
1641959;13563
1641967;13393
1641976;13472
1641984;13315
1641992;13406
1642000;13864
1642008;13164
1642020;8663
1642028;5956
1642036;7734
1642044;14948
1642052;15670
1642061;15076
1642069;14371
1642077;14257
1642085;13976
1642093;13859
1642102;13627
1642110;13627
1642118;13433
1642126;13477
1642134;13277
1642142;13270
1642151;13071
1642159;13122
1642167;12927
1642175;12960
1642183;12747
1642192;12765
1642200;12488
1642208;12464
1642216;12080
1642225;11940
1642234;11566
1642242;11560
1642250;11351
1642258;11522
1642266;11481
1642275;11859
1642283;12045
1642291;12635
1642302;13224
1642310;13787
1642319;13964
1642327;14248
1642335;14261
1642343;14423
1642351;14314
1642360;14431
1642368;14294
1642376;14370
1642384;14184
1642392;14270
1642401;14091
1642409;14171
1642417;13992
1642425;14126
1642433;13961
1642441;14085
1642450;13936
1642458;14037
1642466;13911
1642474;14025
1642482;13877
1642491;14051
1642499;13879
1642507;14038
1642515;13881
1642523;14000
1642533;13813
1642541;13944
1642549;13743
1642557;13895
1642565;13745
1642574;13880
1642585;13799
1642593;13964
1642601;13811
1642609;13871
1642618;13691
1642626;13738
1642634;13630
1642642;13778
1642650;13600
1642659;13721
1642667;13481
1642675;13514
1642683;13288
1642691;13465
1642700;13326
1642708;13493
1642716;13338
1642724;13516
1642732;13415
1642740;13658
1642749;13584
1642757;13773
1642765;13592
1642773;13746
1642781;13601
1642790;13737
1642798;13514
1642806;13572
1642814;13497
1642822;14003
1642831;12221
1642839;8500
1642847;5140
1642855;7182
1642864;14308
1642875;15378
1642883;14661
1642891;14463
1642899;14173
1642907;14066
1642917;13747
1642925;13806
1642933;13570
1642941;13670
1642949;13477
1642958;13586
1642966;13351
1642974;13463
1642982;13226
1642990;13322
1642999;13078
1643007;13155
1643015;12854
1643023;12804
1643031;12422
1643039;12330
1643048;11888
1643056;11818
1643064;11515
1643072;11653
1643080;11562
1643089;11829
1643097;11895
1643105;12354
1643113;12672
1643121;13268
1643130;13595
1643138;14054
1643146;14208
1643157;14584
1643165;14534
1643174;14652
1643182;14431
1643190;14571
1643198;14378
1643206;14503
1643215;14286
1643224;14400
1643232;14207
1643240;14288
1643248;14023
1643257;14127
1643265;13976
1643273;14056
1643281;13869
1643289;14004
1643298;13865
1643306;14024
1643314;13857
1643322;14005
1643330;13882
1643338;14016
1643347;13908
1643355;13976
1643363;13821
1643371;13923
1643379;13786
1643388;13878
1643396;13736
1643404;13809
1643412;13696
1643420;13744
1643429;13629
1643440;13771
1643448;13660
1643456;13797
1643464;13599
1643473;13732
1643481;13494
1643489;13566
1643497;13336
1643505;13488
1643514;13342
1643522;13511
1643530;13412
1643539;13562
1643547;13463
1643556;13653
1643564;13589
1643572;13713
1643580;13561
1643588;13656
1643597;13530
1643605;13607
1643613;13458
1643621;13488
1643629;13713
1643638;13726
1643646;11456
1643654;7470
1643662;5045
1643670;9334
1643678;15167
1643687;15348
1643695;14621
1643703;14264
1643711;14106
1643722;14020
1643731;13825
1643739;13857
1643747;13631
1643755;13689
1643763;13469
1643772;13543
1643780;13327
1643788;13386
1643796;13139
1643804;13128
1643813;12922
1643821;12916
1643829;12670
1643837;12596
1643845;12267
1643854;12122
1643862;11815
1643871;11723
1643879;11527
1643887;11617
1643896;11631
1643904;11823
1643912;11972
1643920;12385
1643928;12818
1643937;13354
1643945;13741
1643953;14095
1643961;14309
1643969;14446
1643977;14503
1643986;14554
1643994;14574
1644005;14686
1644013;14570
1644022;14648
1644030;14484
1644038;14583
1644046;14408
1644054;14477
1644062;14304
1644071;14361
1644079;14220
1644087;14295
1644095;14150
1644103;14215
1644112;14132
1644120;14190
1644128;14119
1644136;14190
1644144;14106
1644153;14138
1644161;14047
1644169;14093
1644177;14092
1644185;14095
1644194;14042
1644203;14014
1644211;13950
1644219;13921
1644227;13887
1644236;13892
1644244;13863
1644252;13768
1644260;13700
1644268;13599
1644276;13628
1644285;13548
1644296;13481
1644304;13639
1644312;13551
1644321;13695
1644329;13682
1644337;13758
1644345;13654
1644353;13702
1644361;13613
1644370;13575
1644378;13466
1644386;13415
1644394;13576
1644402;13748
1644411;11807
1644419;7970
1644427;5566
1644435;9184
1644443;15513
1644452;15575
1644460;14876
1644468;14277
1644476;14133
1644484;13871
1644493;13732
1644501;13612
1644509;13606
1644517;13486
1644525;13441
1644534;13277
1644542;13297
1644551;13152
1644559;13176
1644567;13043
1644578;12978
1644586;13004
1644595;12776
1644603;12701
1644611;12479
1644620;12267
1644628;11959
1644636;11794
1644644;11669
1644652;11675
1644660;11729
1644669;11821
1644677;12046
1644685;12385
1644693;12828
1644701;13261
1644710;13716
1644718;14021
1644726;14290
1644734;14367
1644742;14503
1644751;14489
1644759;14582
1644767;14500
1644775;14556
1644783;14403
1644792;14431
1644800;14315
1644808;14348
1644816;14204
1644824;14306
1644833;14145
1644841;14200
1644849;14052
1644889;16070
1644897;15671
1644905;15393
1644913;14925
1644922;14861
1644930;14554
1644938;14474
1644946;14198
1644955;14083
1644964;13740
1644972;13714
1644980;13447
1644988;13506
1644996;13355
1645005;13530
1645013;13425
1645021;13572
1645029;13451
1645037;13556
1645046;13445
1645054;13588
1645062;13416
1645070;13479
1645078;13373
1645086;13369
1645095;13196
1645103;13731
1645111;13125
1645119;10408
1645127;6918
1645136;5929
1645144;12198
1645152;15963
1645160;15319
1645171;14469
1645180;13957
1645188;13952
1645196;13557
1645204;13554
1645212;13338
1645221;13368
1645229;13127
1645237;13176
1645245;12948
1645253;13013
1645262;12821
1645271;12852
1645279;12659
1645287;12666
1645295;12466
1645304;12420
1645312;12113
1645320;11990
1645328;11641
1645336;11531
1645345;11330
1645353;11358
1645361;11344
1645369;11557
1645377;11706
1645385;12095
1645394;12504
1645402;13053
1645410;13465
1645418;13866
1645426;14116
1645435;14255
1645443;14340
1645454;14572
1645462;14497
1645470;14580
1645479;14409
1645487;14480
1645495;14285
1645503;14345
1645511;14182
1645520;14282
1645528;14117
1645536;14208
1645544;14097
1645552;14147
1645561;14035
1645569;14099
1645577;14004
1645585;14051
1645593;14007
1645603;14017
1645611;13907
1645619;13944
1645627;13885
1645635;13924
1645644;13857
1645652;13861
1645660;13862
1645668;13822
1645676;13778
1645684;13657
1645693;13537
1645701;13469
1645709;13475
1645717;13467
1645725;13533
1645734;13551
1645745;13672
1645753;13909
1645761;13852
1645769;13936
1645778;13832
1645786;13887
1645794;13814
1645802;13851
1645810;13743
1645819;13744
1645827;13900
1645835;14078
1645843;12023
1645851;8153
1645860;5513
1645868;8919
1645876;15475
1645884;15781
1645892;15076
1645901;14516
1645909;14314
1645917;14051
1645925;13850
1645934;13715
1645943;13698
1645951;13644
1645959;13653
1645967;13529
1645975;13530
1645983;13407
1645992;13397
1646000;13245
1646008;13212
1646016;13009
1646028;12852
1646036;12791
1646044;12439
1646052;12195
1646060;11832
1646068;11714
1646077;11564
1646085;11592
1646093;11646
1646101;11824
1646109;12039
1646118;12447
1646126;12915
1646134;13376
1646142;13777
1646150;14044
1646159;14223
1646167;14271
1646175;14372
1646183;14344
1646191;14370
1646200;14283
1646208;14296
1646216;14211
1646224;14239
1646232;14136
1646241;14205
1646250;14085
1646258;14087
1646266;13929
1646274;13992
1646282;13867
1646291;13951
1646299;13826
1646310;13938
1646318;14038
1646327;13989
1646335;14013
1646343;13921
1646351;13910
1646359;13856
1646367;13827
1646376;13772
1646384;13733
1646392;13749
1646400;13754
1646408;13822
1646417;13763
1646425;13737
1646433;13571
1646441;13554
1646449;13498
1646458;13542
1646466;13402
1646474;13470
1646482;13439
1646490;13645
1646499;13630
1646507;13757
1646515;13621
1646523;13712
1646531;13583
1646540;13687
1646548;13521
1646557;13588
1646565;13390
1646573;13893
1646582;13571
1646592;9724
1646600;5973
1646608;5732
1646617;13016
1646626;15740
1646634;15216
1646642;14547
1646650;14264
1646658;14113
1646666;13833
1646675;13748
1646683;13630
1646691;13610
1646699;13464
1646707;13521
1646716;13407
1646724;13439
1646732;13278
1646740;13279
1646748;13085
1646757;13097
1646765;12899
1646773;12880
1646781;12606
1646789;12532
1646798;12175
1646806;12079
1646814;11760
1646822;11817
1646830;11703
1646839;11915
1646847;11935
1646855;12304
1646863;12556
1646874;13357
1646883;13814
1646891;14175
1646899;14324
1646907;14513
1646915;14577
1646924;14655
1646932;14560
1646941;14587
1646949;14461
1646957;14488
1646966;14329
1646974;14372
1646982;14203
1646990;14264
1646998;14102
1647006;14184
1647015;14052
1647023;14152
1647031;13985
1647039;14044
1647047;13885
1647056;14004
1647064;13869
1647072;13999
1647080;13871
1647088;14013
1647097;13861
1647105;14017
1647113;13868
1647121;14006
1647129;13848
1647138;14012
1647146;13848
1647154;13992
1647165;13946
1647173;14049
1647182;13844
1647190;13759
1647198;13550
1647206;13631
1647214;13505
1647223;13614
1647231;13516
1647240;13648
1647248;13538
1647256;13722
1647265;13657
1647273;13809
1647281;13659
1647289;13774
1647297;13614
1647305;13724
1647314;13525
1647322;13609
1647330;13511
1647338;14159
1647346;12495
1647355;8791
1647363;5329
1647371;7002
1647379;14339
1647387;15745
1647396;14950
1647404;14518
1647412;14153
1647420;14083
1647428;13770
1647437;13850
1647448;13670
1647456;13774
1647464;13621
1647472;13685
1647481;13486
1647489;13559
1647497;13340
1647505;13331
1647513;13141
1647522;13175
1647530;12856
1647538;12784
1647546;12400
1647554;12278
1647564;11893
1647572;11862
1647580;11585
1647588;11700
1647596;11627
1647604;11922
1647613;11947
1647621;12407
1647629;12661
1647637;13275
1647645;13534
1647654;14007
1647662;14070
1647670;14338
1647678;14255
1647686;14471
1647695;14337
1647703;14489
1647711;14306
1647719;14406
1647730;14300
1647739;14438
1647747;14244
1647755;14303
1647763;14129
1647771;14226
1647780;14016
1647788;14128
1647796;13928
1647804;14024
1647812;13847
1647821;13997
1647829;13825
1647837;13988
1647845;13815
1647853;13997
1647862;13869
1647870;14034
1647879;13865
1647887;14017
1647895;13867
1647903;14025
1647912;13874
1647920;14015
1647928;13829
1647936;13926
1647944;13715
1647953;13748
1647961;13473
1647969;13533
1647977;13370
1647985;13556
1647994;13425
1648002;13556
1648013;13569
1648021;13834
1648029;13704
1648038;13879
1648046;13693
1648054;13825
1648062;13658
1648070;13820
1648079;13634
1648087;13732
1648095;13457
1648103;14145
1648111;13463
1648120;10743
1648128;6681
1648136;5641
1648144;11904
1648152;15930
1648161;15373
1648169;14786
1648177;14296
1648185;14321
1648193;13944
1648201;13981
1648211;13787
1648219;13815
1648227;13649
1648235;13734
1648243;13524
1648252;13554
1648260;13332
1648268;13351
1648276;13193
1648284;13189
1648296;12913
1648304;12938
1648312;12557
1648320;12457
1648328;12005
1648337;11863
1648345;11509
1648353;11607
1648361;11471
1648369;11711
1648378;11731
1648386;12144
1648394;12392
1648402;13035
1648410;13354
1648419;13837
1648427;13965
1648435;14331
1648443;14350
1648451;14565
1648460;14444
1648468;14544
1648476;14391
1648484;14481
1648492;14322
1648500;14358
1648509;14226
1648517;14293
1648525;14150
1648533;14184
1648542;14071
1648551;14135
1648559;14024
1648567;14097
1648575;14042
1648586;14192
1648595;14071
1648603;14178
1648611;13987
1648619;14110
1648627;13964
1648636;14077
1648644;13940
1648652;14050
1648660;13873
1648668;13919
1648677;13684
1648685;13691
1648693;13547
1648701;13667
1648709;13554
1648718;13730
1648726;13711
1648734;13880
1648742;13866
1648750;14005
1648759;13930
1648767;13983
1648775;13897
1648783;13924
1648791;13823
1648799;13843
1648808;13718
1648816;13667
1648824;14234
1648832;13334
1648840;9970
1648849;6774
1648858;6702
1648868;15822
1648876;16100
1648884;15456
1648893;14609
1648901;14471
1648909;14119
1648918;13980
1648926;13721
1648935;13771
1648943;13557
1648951;13592
1648959;13395
1648967;13435
1648976;13235
1648984;13216
1648992;13057
1649000;13033
1649008;12822
1649017;12792
1649025;12582
1649033;12439
1649041;12127
1649049;11928
1649058;11654
1649066;11540
1649074;11447
1649082;11514
1649090;11596
1649098;11779
1649107;12087
1649115;12551
1649123;13008
1649131;13423
1649139;13793
1649151;14259
1649159;14312
1649167;14501
1649175;14401
1649183;14507
1649192;14402
1649200;14434
1649208;14288
1649216;14323
1649224;14211
1649234;14258
1649242;14123
1649250;14153
1649258;14048
1649266;14096
1649275;14026
1649283;14070
1649291;13974
1649299;13987
1649307;13933
1649316;13961
1649324;13946
1649332;13941
1649340;13911
1649348;13921
1649357;13905
1649365;13905
1649373;13893
1649381;13844
1649389;13874
1649398;13787
1649406;13700
1649414;13480
1649422;13446
1649433;13572
1649442;13567
1649450;13674
1649458;13637
1649466;13796
1649474;13798
1649482;13912
1649491;13848
1649499;13891
1649507;13846
1649515;13863
1649523;13759
1649532;13765
1649541;13640
1649549;13721
1649557;14058
1649565;12367
1649574;8553
1649582;5679
1649590;7919
1649598;15089
1649606;15761
1649615;15018
1649623;14385
1649631;14139
1649639;13973
1649647;13687
1649656;13602
1649664;13465
1649672;13465
1649680;13362
1649688;13404
1649697;13274
1649705;13291
1649713;13141
1649724;13131
1649732;13151
1649741;12961
1649749;12845
1649757;12577
1649765;12410
1649773;12130
1649782;11902
1649790;11679
1649798;11579
1649806;11563
1649814;11637
1649822;11807
1649831;12044
1649839;12440
1649847;12884
1649855;13337
1649863;13708
1649872;14073
1649880;14244
1649889;14402
1649897;14389
1649905;14470
1649914;14399
1649922;14439
1649930;14302
1649938;14319
1649946;14173
1649955;14229
1649963;14077
1649971;14126
1649979;13972
1649987;14069
1649996;13943
1650007;14025
1650015;14106
1650023;14066
1650031;14053
1650040;13986
1650048;13920
1650056;13898
1650064;13856
1650072;13811
1650081;13787
1650089;13789
1650097;13780
1650105;13856
1650113;13825
1650121;13905
1650130;13796
1650138;13744
1650146;13540
1650154;13435
1650162;13334
1650171;13471
1650179;13401
1650187;13477
1650196;13412
1650204;13580
1650213;13521
1650221;13675
1650229;13552
1650237;13650
1650245;13509
1650254;13618
1650262;13446
1650270;13544
1650278;13336
1650289;13655
1650298;13790
1650306;11669
1650314;7529
1650322;4955
1650330;8703
1650339;15250
1650347;15448
1650355;14753
1650363;14204
1650371;14131
1650380;13816
1650388;13745
1650396;13585
1650404;13649
1650412;13507
1650420;13592
1650429;13436
1650437;13486
1650445;13303
1650453;13334
1650461;13125
1650470;13160
1650478;12943
1650486;12968
1650494;12668
1650502;12587
1650511;12229
1650519;12153
1650528;11817
1650536;11835
1650544;11591
1650553;11814
1650561;11724
1650571;12183
1650580;12556
1650588;13058
1650597;13426
1650605;13922
1650613;14138
1650621;14399
1650629;14397
1650638;14530
1650646;14405
1650654;14460
1650662;14312
1650670;14335
1650679;14160
1650687;14239
1650695;14085
1650703;14150
1650711;13954
1650719;14058
1650728;13871
1650736;13984
1650744;13819
1650752;14005
1650760;13850
1650769;14040
1650777;13905
1650785;14051
1650793;13919
1650801;14119
1650810;13958
1650818;14090
1650826;13944
1650834;14049
1650842;13843
1650854;14051
1650862;13987
1650870;14008
1650878;13840
1650886;13904
1650895;13698
1650904;13612
1650912;13370
1650920;13478
1650928;13386
1650937;13505
1650945;13394
1650953;13606
1650961;13522
1650969;13699
1650978;13564
1650986;13707
1650994;13529
1651002;13659
1651010;13489
1651018;13615
1651027;13446
1651035;13566
1651043;13357
1651051;14181
1651059;13124
1651068;9933
1651076;6003
1651084;6000
1651092;13169
1651100;15844
1651109;15144
1651117;14589
1651125;14213
1651133;14194
1651144;13800
1651153;13877
1651161;13711
1651169;13752
1651177;13548
1651185;13619
1651194;13435
1651202;13510
1651210;13312
1651219;13389
1651227;13178
1651236;13182
1651244;12916
1651252;12911
1651260;12573
1651268;12485
1651277;12104
1651285;12039
1651293;11751
1651301;11815
1651309;11669
1651318;11891
1651326;11900
1651334;12353
1651342;12605
1651350;13245
1651358;13513
1651367;13998
1651375;14131
1651383;14450
1651391;14413
1651399;14620
1651408;14540
1651416;14665
1651427;14527
1651435;14617
1651443;14391
1651452;14439
1651460;14236
1651468;14332
1651476;14132
1651484;14231
1651493;14040
1651501;14155
1651509;13977
1651517;14102
1651526;13891
1651535;14056
1651543;13916
1651551;14058
1651559;13914
1651567;14055
1651576;13897
1651584;14013
1651592;13846
1651600;13973
1651608;13801
1651617;13896
1651625;13627
1651633;13596
1651641;13294
1651649;13391
1651657;13279
1651666;13448
1651674;13319
1651682;13471
1651690;13424
1651698;13625
1651710;13716
1651718;13922
1651726;13729
1651734;13860
1651742;13682
1651751;13786
1651759;13589
1651767;13685
1651775;13904
1651783;13961
1651792;11439
1651800;7492
1651808;5107
1651816;10317
1651824;15658
1651833;15629
1651841;14729
1651850;14457
1651858;14163
1651866;14020
1651875;13752
1651883;13790
1651891;13597
1651899;13647
1651907;13493
1651916;13550
1651924;13379
1651932;13363
1651940;13204
1651948;13235
1651956;13042
1651965;13034
1651973;12848
1651981;12748
1651992;12450
1652001;12420
1652009;12040
1652017;12014
1652025;11786
1652033;11947
1652041;11899
1652050;12153
1652058;12258
1652066;12772
1652074;13081
1652082;13682
1652091;13939
1652099;14350
1652107;14400
1652115;14644
1652123;14587
1652132;14713
1652140;14586
1652148;14667
1652156;14514
1652165;14579
1652174;14455
1652182;14533
1652190;14427
1652198;14428
1652206;14326
1652215;14331
1652223;14200
1652231;14220
1652239;14157
1652247;14159
1652255;14097
1652264;14126
1652275;14139
1652283;14331
1652291;14103
1652300;14177
1652308;13863
1652316;13831
1652324;13606
1652332;13689
1652340;13548
1652349;13701
1652357;13627
1652365;13840
1652373;13857
1652381;14007
1652390;13881
1652398;13942
1652406;13844
1652414;13945
1652422;13861
1652431;13917
1652439;13798
1652447;13792
1652455;14219
1652463;13918
1652472;11158
1652481;7421
1652489;5796
1652497;12059
1652505;16231
1652514;15707
1652522;14919
1652530;14428
1652538;14218
1652546;13987
1652554;13824
1652566;13887
1652574;13716
1652582;13727
1652590;13522
1652599;13560
1652607;13355
1652615;13361
1652623;13149
1652631;13155
1652639;12909
1652648;12843
1652656;12571
1652664;12425
1652672;12102
1652680;11948
1652689;11686
1652697;11618
1652705;11526
1652713;11615
1652721;11675
1652730;11912
1652738;12161
1652746;12576
1652754;13044
1652762;13474
1652771;13835
1652779;14120
1652788;14295
1652796;14416
1652804;14500
1652813;14512
1652821;14524
1652829;14482
1652837;14502
1652848;14513
1652857;14393
1652865;14416
1652873;14245
1652881;14300
1652889;14179
1652898;14213
1652906;14091
1652914;14121
1652922;14029
1652930;14077
1652938;14005
1652947;14033
1652955;13947
1652963;13987
1652971;13975
1652979;13949
1652988;13900
1652996;13796
1653004;13675
1653012;13601
1653020;13579
1653029;13529
1653037;13554
1653045;13597
1653053;13714
1653061;13774
1653070;13847
1653078;13791
1653086;13817
1653095;13746
1653103;13807
1653112;13700
1653120;13772
1653130;13826
1653139;13724
1653147;14433
1653156;13474
1653164;10161
1653172;6413
1653180;6063
1653188;13413
1653197;16066
1653205;15420
1653213;14721
1653221;14322
1653229;14137
1653238;13865
1653246;13701
1653254;13638
1653262;13569
1653270;13523
1653278;13456
1653287;13420
1653295;13298
1653303;13243
1653311;13088
1653319;13058
1653328;12870
1653336;12805
1653344;12587
1653352;12471
1653360;12164
1653369;12006
1653377;11690
1653385;11612
1653393;11459
1653401;11598
1653413;11789
1653421;11993
1653429;12347
1653437;12790
1653445;13294
1653454;13655
1653462;13983
1653471;14179
1653479;14326
1653487;14395
1653496;14378
1653504;14373
1653512;14265
1653520;14198
1653528;14080
1653537;14062
1653545;13982
1653553;14013
1653561;13920
1653569;13939
1653577;13844
1653586;13922
1653594;13840
1653602;13921
1653610;13818
1653618;13899
1653627;13783
1653635;13869
1653643;13744
1653651;13862
1653659;13742
1653668;13832
1653676;13721
1653684;13840
1653695;13883
1653703;13954
1653712;13859
1653720;13742
1653728;13550
1653736;13540
1653744;13588
1653753;13635
1653761;13574
1653769;13640
1653777;13675
1653786;13788
1653795;13742
1653803;13796
1653811;13706
1653819;13748
1653827;13642
1653836;13694
1653844;13578
1653852;13558
1653860;13418
1653868;14133
1653876;12789
1653885;9226
1653893;5402
1653901;6140
1653909;13700
1653917;15774
1653926;15104
1653934;14644
1653942;14336
1653950;14256
1653958;13918
1653967;14001
1653975;13799
1653986;13892
1653994;13838
1654002;13818
1654011;13687
1654019;13696
1654027;13560
1654035;13497
1654043;13321
1654052;13239
1654060;12968
1654068;12846
1654076;12531
1654084;12391
1654093;12053
1654101;11973
1654109;11742
1654118;11887
1654126;11808
1654135;11997
1654143;12039
1654151;12473
1654159;12780
1654167;13335
1654175;13611
1654184;14027
1654192;14107
1654200;14405
1654208;14325
1654216;14493
1654225;14328
1654233;14480
1654241;14279
1654249;14401
1654257;14190
1654269;14342
1654277;14277
1654285;14293
1654293;14170
1654301;14226
1654310;14064
1654318;14134
1654326;14036
1654334;14126
1654342;14014
1654351;14120
1654359;13964
1654367;14042
1654375;13861
1654383;13966
1654392;13840
1654400;13944
1654408;13782
1654416;13905
1654424;13753
1654433;13884
1654441;13742
1654450;13808
1654458;13491
1654466;13490
1654474;13307
1654483;13481
1654491;13360
1654499;13504
1654507;13377
1654515;13589
1654524;13520
1654532;13679
1654540;13528
1654551;13699
1654559;13677
1654568;13767
1654576;13623
1654584;13688
1654592;13476
1654600;13784
1654609;13879
1654617;12036
1654625;7809
1654633;5167
1654641;8248
1654650;15158
1654658;15498
1654666;14975
1654674;14267
1654682;14214
1654691;13856
1654699;13830
1654707;13555
1654715;13604
1654723;13414
1654732;13493
1654740;13294
1654748;13324
1654756;13117
1654764;13180
1654772;12976
1654781;13026
1654790;12802
1654798;12823
1654806;12582
1654814;12492
1654823;12149
1654833;12039
1654842;11813
1654850;11835
1654858;11688
1654867;11878
1654875;11896
1654883;12277
1654891;12512
1654899;13140
1654908;13469
1654916;13985
1654924;14131
1654932;14486
1654940;14458
1654949;14629
1654957;14450
1654965;14553
1654973;14369
1654981;14482
1654990;14268
1654998;14340
1655006;14143
1655014;14232
1655022;14071
1655031;14160
1655039;13983
1655047;14095
1655055;13968
1655063;14076
1655071;13925
1655080;14033
1655088;13913
1655096;13978
1655104;13882
1655145;15871
1655153;15519
1655162;15121
1655170;14819
1655178;14618
1655186;14374
1655194;14110
1655203;13884
1655211;13693
1655219;13619
1655227;13515
1655235;13461
1655244;13399
1655252;13471
1655260;13428
1655268;13513
1655276;13476
1655284;13513
1655293;13386
1655301;13422
1655309;13317
1655317;13326
1655326;13170
1655335;13197
1655343;13363
1655351;13524
1655359;11254
1655367;7302
1655376;4772
1655384;9092
1655392;15071
1655400;15274
1655408;14401
1655417;14075
1655425;13781
1655436;13609
1655444;13534
1655452;13464
1655461;13353
1655469;13303
1655477;13168
1655485;13142
1655493;13030
1655502;12994
1655510;12848
1655518;12818
1655526;12654
1655534;12623
1655543;12435
1655551;12377
1655559;12095
1655567;11995
1655575;11723
1655583;11667
1655592;11520
1655600;11686
1655608;11656
1655616;11927
1655624;12072
1655633;12587
1655641;12956
1655649;13567
1655658;13843
1655666;14231
1655675;14265
1655683;14526
1655691;14413
1655699;14551
1655707;14424
1655719;14566
1655727;14512
1655735;14480
1655743;14358
1655751;14385
1655760;14234
1655768;14248
1655776;14121
1655784;14151
1655792;13986
1655801;14040
1655809;13891
1655817;14001
1655825;13896
1655833;14002
1655842;13898
1655850;14000
1655858;13883
1655866;14004
1655874;13879
1655882;13976
1655891;13890
1655899;13981
1655907;13777
1655915;13757
1655923;13561
1655932;13709
1655940;13594
1655948;13728
1655956;13635
1655964;13858
1655974;13794
1655982;14010
1655990;13872
1656000;14073
1656008;14010
1656017;14058
1656026;13867
1656034;13888
1656042;13706
1656050;13723
1656059;14292
1656067;13479
1656075;9953
1656083;6433
1656091;6249
1656100;13797
1656108;15925
1656116;15457
1656124;14632
1656132;14437
1656141;14091
1656149;13970
1656157;13722
1656165;13776
1656173;13609
1656182;13696
1656190;13513
1656198;13598
1656206;13414
1656214;13451
1656222;13202
1656231;13250
1656239;13015
1656247;13037
1656255;12775
1656263;12676
1656272;12347
1656283;12263
1656291;12019
1656299;11996
1656307;11864
1656316;12051
1656324;12005
1656332;12320
1656340;12548
1656349;13083
1656358;13411
1656366;13906
1656374;14040
1656382;14387
1656390;14402
1656399;14629
1656407;14482
1656415;14601
1656423;14430
1656431;14548
1656440;14327
1656448;14416
1656456;14210
1656464;14261
1656472;14062
1656481;14135
1656489;13987
1656497;14094
1656505;13913
1656513;14083
1656521;13980
1656530;14104
1656538;13984
1656546;14116
1656554;14010
1656566;14207
1656574;14147
1656582;14208
1656590;14057
1656598;14066
1656606;13764
1656615;13778
1656623;13579
1656631;13696
1656639;13589
1656647;13787
1656657;13719
1656665;13900
1656673;13799
1656681;13938
1656689;13813
1656698;13917
1656706;13778
1656714;13908
1656722;13778
1656730;13917
1656739;13777
1656747;13988
1656755;14355
1656763;12836
1656771;8914
1656780;6314
1656788;8331
1656796;15636
1656804;16131
1656812;15463
1656820;14655
1656829;14440
1656837;14142
1656845;13952
1656856;13685
1656865;13755
1656873;13513
1656881;13568
1656889;13406
1656897;13491
1656905;13289
1656914;13328
1656922;13133
1656930;13200
1656938;12962
1656946;12946
1656955;12630
1656963;12526
1656971;12165
1656979;12035
1656987;11730
1656997;11804
1657005;11645
1657013;11811
1657021;11789
1657029;12128
1657038;12418
1657046;12962
1657054;13299
1657062;13760
1657070;13934
1657079;14176
1657087;14188
1657095;14317
1657103;14287
1657111;14357
1657119;14273
1657128;14269
1657139;14163
1657147;14301
1657155;14091
1657164;14179
1657172;13997
1657180;14087
1657188;13934
1657196;14005
1657204;13902
1657213;14006
1657221;13880
1657229;14029
1657237;13901
1657245;13974
1657254;13841
1657262;13974
1657270;13867
1657278;13935
1657286;13793
1657295;13876
1657303;13787
1657311;13837
1657320;13764
1657328;13764
1657337;13593
1657345;13472
1657353;13336
1657361;13392
1657369;13382
1657378;13428
1657386;13415
1657394;13494
1657402;13507
1657410;13563
1657430;13968
1657438;13856
1657446;13867
1657454;13613
1657463;13612
1657471;13391
1657479;13736
1657487;13741
1657495;11727
1657503;7586
1657512;5001
1657520;8587
1657528;15109
1657536;15302
1657544;14711
1657553;14159
1657561;14092
1657569;13799
1657577;13689
1657585;13543
1657594;13516
1657602;13422
1657610;13430
1657618;13364
1657626;13345
1657635;13235
1657643;13177
1657652;13109
1657660;13008
1657668;12951
1657677;12788
1657685;12603
1657693;12355
1657701;12156
1657712;11959
1657721;11730
1657729;11724
1657737;11616
1657745;11760
1657753;11781
1657762;12099
1657770;12396
1657778;12892
1657786;13247
1657794;13681
1657802;13901
1657811;14136
1657819;14193
1657827;14255
1657835;14263
1657843;14300
1657852;14268
1657860;14254
1657868;14183
1657876;14121
1657884;14069
1657893;14035
1657901;14006
1657909;13978
1657917;13952
1657925;13895
1657934;13908
1657942;13898
1657950;13959
1657958;13880
1657967;13897
1657976;13826
1657984;13905
1657994;13959
1658002;13910
1658010;13972
1658020;13923
1658028;13997
1658036;13932
1658044;13945
1658052;13833
1658061;13747
1658069;13590
1658077;13598
1658085;13582
1658093;13619
1658102;13618
1658110;13686
1658118;13764
1658126;13821
1658134;13909
1658142;13889
1658151;13904
1658159;13874
1658167;13895
1658175;13818
1658183;13799
1658192;13722
1658200;13772
1658208;14267
1658216;12906
1658224;9004
1658233;5594
1658241;6896
1658249;14687
1658257;15960
1658265;15457
1658274;14738
1658285;14614
1658293;14421
1658301;14206
1658309;14114
1658318;13987
1658326;13930
1658334;13815
1658343;13699
1658351;13598
1658360;13491
1658368;13415
1658376;13305
1658384;13253
1658392;13096
1658401;12965
1658409;12734
1658417;12561
1658425;12252
1658433;12110
1658441;11833
1658450;11821
1658458;11707
1658466;11820
1658474;11884
1658482;12179
1658491;12444
1658499;12963
1658507;13293
1658515;13765
1658523;13951
1658532;14260
1658540;14246
1658548;14448
1658556;14340
1658567;14457
1658576;14482
1658584;14427
1658592;14349
1658600;14301
1658608;14177
1658617;14185
1658625;14072
1658633;14120
1658641;14054
1658650;14082
1658659;14008
1658667;14061
1658675;13958
1658683;14020
1658691;13891
1658700;13959
1658708;13823
1658716;13861
1658724;13735
1658732;13861
1658740;13781
1658749;13925
1658757;13774
1658765;13871
1658773;13657
1658781;13682
1658790;13439
1658798;13500
1658806;13395
1658814;13608
1658822;13516
1658831;13695
1658839;13613
1658850;13893
1658858;13977
1658866;14031
1658875;13895
1658883;13933
1658891;13868
1658899;13919
1658907;13815
1658916;13823
1658924;13650
1658932;14136
1658940;13808
1658948;11301
1658957;7074
1658965;5319
1658973;10880
1658982;15906
1658990;15535
1658999;14915
1659007;14380
1659015;14368
1659023;14012
1659031;14014
1659039;13803
1659048;13874
1659056;13678
1659064;13675
1659072;13423
1659080;13479
1659089;13263
1659097;13322
1659105;13101
1659113;13131
1659121;12847
1659133;12805
1659141;12578
1659149;12420
1659157;12078
1659165;11923
1659174;11672
1659182;11702
1659190;11621
1659198;11835
1659206;11884
1659215;12257
1659223;12561
1659231;13117
1659239;13434
1659247;13921
1659256;14080
1659264;14384
1659272;14345
1659280;14536
1659288;14437
1659298;14603
1659306;14437
1659314;14522
1659322;14270
1659330;14362
1659338;14178
1659347;14246
1659355;14065
1659363;14173
1659371;14012
1659379;14093
1659388;13928
1659396;14068
1659404;13913
1659415;14084
1659423;14028
1659432;14106
1659440;13951
1659448;14050
1659456;13906
1659464;14010
1659473;13915
1659481;14069
1659489;13930
1659497;14002
1659505;13784
1659514;13740
1659522;13552
1659530;13687
1659538;13607
1659546;13754
1659555;13664
1659563;13836
1659571;13765
1659579;13970
1659587;13852
1659596;13987
1659604;13813
1659612;13897
1659620;13732
1659629;13843
1659638;13658
1659646;13686
1659654;13755
1659662;13990
1659670;11813
1659678;8049
1659687;5713
1659695;9714
1659706;16158
1659714;15726
1659722;14810
1659731;14424
1659739;14121
1659747;13985
1659755;13706
1659763;13720
1659772;13525
1659780;13563
1659788;13373
1659796;13397
1659804;13180
1659813;13212
1659821;13022
1659829;13030
1659837;12816
1659845;12817
1659854;12525
1659862;12462
1659870;12147
1659878;12040
1659886;11692
1659895;11659
1659903;11510
1659911;11673
1659919;11685
1659927;11973
1659935;12110
1659945;12566
1659953;12913
1659961;13452
1659969;13725
1659977;14085
1659988;14297
1659997;14545
1660005;14465
1660013;14609
1660022;14480
1660030;14575
1660038;14437
1660046;14515
1660054;14349
1660062;14375
1660071;14143
1660079;14223
1660087;14030
1660095;14096
1660103;13906
1660112;13984
1660120;13836
1660128;13929
1660136;13799
1660144;13910
1660153;13835
1660161;13974
1660169;13901
1660177;14001
1660185;13876
1660194;13896
1660202;13669
1660210;13647
1660218;13501
1660226;13555
1660234;13474
1660243;13595
1660251;13591
1660260;13741
1660270;13809
1660279;14021
1660287;13864
1660295;13976
1660303;13845
1660312;13947
1660321;13758
1660329;13817
1660337;13619
1660345;13828
1660353;14116
1660361;12477
1660370;8457
1660378;5637
1660386;8249
1660394;15475
1660402;15811
1660411;15177
1660419;14450
1660427;14322
1660435;14012
1660443;13865
1660452;13652
1660460;13661
1660468;13509
1660476;13473
1660484;13323
1660493;13340
1660501;13243
1660509;13191
1660517;13075
1660525;13054
1660534;12906
1660542;12800
1660553;12585
1660561;12569
1660569;12190
1660578;12047
1660586;11742
1660594;11795
1660602;11684
1660610;11823
1660618;11836
1660627;12158
1660636;12455
1660644;13051
1660652;13462
1660660;13953
1660669;14160
1660677;14435
1660685;14496
1660693;14642
1660701;14574
1660710;14653
1660718;14564
1660726;14552
1660734;14391
1660742;14350
1660751;14284
1660759;14231
1660767;14133
1660775;14078
1660783;14003
1660792;14014
1660800;13925
1660808;13906
1660816;13882
1660824;13833
1660836;13849
1660844;14013
1660852;13862
1660860;13919
1660868;13796
1660877;13849
1660885;13732
1660893;13815
1660901;13635
1660909;13583
1660918;13350
1660926;13400
1660934;13360
1660942;13453
1660951;13366
1660959;13489
1660968;13503
1660976;13677
1660984;13702
1660992;13768
1661000;13748
1661009;13818
1661017;13830
1661025;13828
1661033;13780
1661041;13678
1661050;14026
1661058;13993
1661066;11595
1661074;7333
1661082;4868
1661091;9505
1661099;15505
1661107;15484
1661115;14829
1661126;14463
1661135;14234
1661143;14030
1661151;13814
1661159;13793
1661167;13609
1661176;13599
1661184;13479
1661192;13456
1661200;13339
1661208;13307
1661217;13210
1661225;13152
1661233;13041
1661241;12953
1661249;12827
1661257;12630
1661266;12392
1661274;12127
1661282;11931
1661291;11798
1661299;11763
1661308;11770
1661316;11918
1661324;12020
1661332;12341
1661340;12698
1661349;13191
1661357;13533
1661365;13941
1661373;14097
1661381;14351
1661390;14361
1661398;14510
1661409;14544
1661417;14525
1661425;14475
1661434;14350
1661442;14322
1661450;14212
1661458;14193
1661466;14139
1661475;14081
1661483;14067
1661491;14038
1661499;14037
1661507;14013
1661516;14000
1661524;13968
1661532;13990
1661540;13905
1661548;13919
1661556;13804
1661565;13696
1661573;13527
1661581;13490
1661589;13412
1661597;13510
1661607;13461
1661615;13607
1661623;13581
1661631;13751
1661639;13679
1661648;13799
1661656;13705
1661664;13810
1661672;13684
1661680;13820
1661692;13821
1661700;13801
1661708;13972
1661716;14322
1661724;12385
1661733;8156
1661741;4826
1661749;8146
1661757;15256
1661765;15706
1661774;14983
1661782;14590
1661790;14459
1661798;14285
1661806;14045
1661815;13987
1661823;13816
1661831;13818
1661839;13662
1661847;13688
1661855;13553
1661864;13580
1661872;13369
1661880;13364
1661888;13176
1661896;13168
1661905;12885
1661913;12836
1661921;12544
1661929;12438
1661938;12086
1661947;12057
1661955;11840
1661963;11940
1661973;12042
1661981;12311
1661990;12503
1661999;12890
1662007;13290
1662015;13769
1662023;14072
1662032;14334
1662040;14438
1662048;14612
1662056;14530
1662064;14610
1662073;14505
1662081;14515
1662089;14351
1662097;14457
1662105;14586
1662114;14307
1662122;13962
1662130;14038
1662138;13903
1662146;14017
1662154;13900
1662163;14020
1662171;13888
1662179;13946
1662187;13834
1662195;13979
1662204;13859
1662212;13954
1662220;13780
1662228;13826
1662236;13606
1662245;13624
1662253;13468
1662264;13635
1662272;13664
1662280;13794
1662289;13748
1662297;13913
1662305;13843
1662314;14002
1662322;13831
1662331;13886
1662339;13749
1662347;13821
1662355;13725
1662363;13826
1662372;13609
1662380;14035
1662388;13904
1662396;11711
1662404;7562
1662413;5359
1662421;10283
1662429;16054
1662437;15709
1662445;15023
1662454;14310
1662462;14295
1662470;13937
1662478;13878
1662486;13672
1662494;13730
1662503;13529
1662511;13578
1662519;13375
1662527;13448
1662535;13271
1662547;13340
1662555;13223
1662563;13163
1662571;12899
1662579;12894
1662588;12637
1662596;12527
1662604;12214
1662612;12136
1662620;11908
1662630;12013
1662638;11909
1662646;12108
1662654;12170
1662662;12589
1662671;12926
1662679;13524
1662687;13772
1662695;14243
1662703;14329
1662712;14581
1662720;14571
1662728;14755
1662736;14616
1662744;14706
1662753;14525
1662761;14579
1662769;14436
1662777;14506
1662785;14323
1662793;14357
1662802;14161
1662810;14204
1662818;14057
1662829;14206
1662838;14103
1662846;14140
1662854;13975
1662862;14044
1662870;13910
1662878;14034
1662887;13897
1662895;13966
1662903;13786
1662911;13763
1662919;13527
1662928;13604
1662936;13450
1662945;13578
1662953;13509
1662961;13695
1662970;13612
1662978;13773
1662986;13685
1662994;13844
1663002;13737
1663011;13827
1663019;13678
1663027;13770
1663035;13593
1663043;13661
1663052;13555
1663060;14216
1663068;12643
1663076;9064
1663084;5858
1663092;7368
1663101;14942
1663112;15960
1663120;15166
1663128;14687
1663137;14331
1663145;14217
1663153;13860
1663161;13855
1663169;13657
1663177;13733
1663186;13520
1663194;13574
1663202;13384
1663210;13440
1663218;13231
1663227;13274
1663235;13021
1663243;12977
1663251;12703
1663259;12640
1663268;12308
1663276;12175
1663285;11826
1663293;11730
1663301;11544
1663310;11632
1663318;11583
1663326;11780
1663334;11957
1663342;12471
1663351;12857
1663359;13390
1663367;13736
1663375;14085
1663383;14230
1663395;14499
1663403;14450
1663411;14544
1663419;14379
1663427;14482
1663436;14281
1663444;14333
1663452;14123
1663460;14211
1663468;14021
1663476;14090
1663485;13896
1663493;13957
1663501;13820
1663509;13888
1663517;13717
1663526;13807
1663534;13683
1663542;13740
1663550;13620
1663558;13701
1663567;13604
1663575;13687
1663583;13592
1663591;13718
1663599;13590
1663609;13631
1663617;13378
1663625;13387
1663633;13399
1663641;13513
1663650;13504
1663658;13552
1663666;13555
1663674;13698
1663685;13800
1663694;13981
1663702;13834
1663710;13905
1663718;13745
1663726;13807
1663735;13640
1663743;13672
1663751;13517
1663759;14243
1663767;12874
1663775;9173
1663784;5199
1663792;5829
1663800;13562
1663808;15725
1663816;15115
1663825;14589
1663833;14328
1663841;14132
1663849;13829
1663857;13772
1663866;13649
1663874;13609
1663882;13521
1663890;13523
1663898;13475
1663907;13461
1663915;13407
1663923;13325
1663931;13252
1663939;13114
1663949;13024
1663957;12861
1663967;12630
1663975;12479
1663983;12079
1663993;11972
1664001;11795
1664009;11876
1664017;11821
1664025;11996
1664034;12123
1664042;12535
1664050;12939
1664058;13451
1664066;13779
1664074;14137
1664083;14283
1664091;14456
1664099;14430
1664107;14427
1664115;14404
1664124;14397
1664132;14362
1664140;14336
1664148;14262
1664156;14239
1664165;14186
1664173;14118
1664181;14086
1664189;14016
1664197;13995
1664206;13925
1664214;13979
1664222;13939
1664230;13954
1664238;13858
1664250;13919
1664258;14031
1664266;13875
1664274;13918
1664282;13848
1664291;13883
1664299;13847
1664307;13848
1664316;13791
1664324;13818
1664333;13752
1664341;13740
1664349;13609
1664357;13466
1664365;13342
1664374;13380
1664382;13431
1664390;13437
1664398;13477
1664406;13466
1664414;13520
1664423;13583
1664431;13699
1664439;13689
1664447;13744
1664455;13674
1664464;13716
1664472;13650
1664480;13703
1664488;13580
1664496;13549
1664505;14072
1664513;13334
1664521;9927
1664532;5214
1664540;7306
1664549;14714
1664557;15702
1664565;15013
1664573;14495
1664581;14285
1664590;14060
1664598;13866
1664606;13770
1664614;13718
1664622;13647
1664632;13664
1664640;13585
1664648;13535
1664656;13417
1664664;13350
1664673;13190
1664681;13138
1664689;13002
1664697;12977
1664705;12771
1664713;12631
1664722;12320
1664730;12135
1664738;11814
1664746;11743
1664754;11618
1664763;11768
1664771;11765
1664779;12032
1664787;12256
1664795;12804
1664804;13164
1664845;16420
1664853;15996
1664861;15766
1664869;15314
1664877;15186
1664886;14805
1664894;14747
1664902;14432
1664910;14419
1664918;14166
1664926;14177
1664935;13918
1664943;13977
1664951;13804
1664959;13900
1664967;13749
1664976;13868
1664984;13738
1664992;13827
1665000;13696
1665008;13807
1665017;13698
1665025;13755
1665033;13632
1665041;13724
1665049;13636
1665058;13736
1665066;13646
1665074;13695
1665082;13612
1665090;13631
1665100;13566
1665108;13603
1665116;13524
1665124;13553
1665134;13475
1665143;13544
1665152;13256
1665160;13270
1665168;13122
1665176;13286
1665185;13152
1665193;13300
1665201;13232
1665209;13474
1665217;13482
1665225;13666
1665234;13593
1665242;13699
1665250;13618
1665258;13702
1665266;13551
1665275;13568
1665283;13363
1665291;13756
1665299;13618
1665307;11471
1665316;7365
1665324;5185
1665332;9649
1665340;15381
1665348;15312
1665357;14664
1665365;14187
1665373;14085
1665381;13818
1665389;13677
1665398;13600
1665406;13523
1665417;13480
1665425;13608
1665433;13429
1665442;13489
1665450;13292
1665458;13307
1665466;13125
1665474;13113
1665484;12941
1665492;12865
1665500;12596
1665508;12452
1665516;12146
1665524;11980
1665533;11786
1665541;11778
1665549;11738
1665557;11846
1665565;11928
1665574;12239
1665582;12606
1665590;13107
1665598;13562
1665606;13924
1665615;14184
1665623;14391
1665631;14492
1665639;14539
1665647;14562
1665656;14540
1665664;14545
1665672;14450
1665680;14479
1665688;14430
1665700;14423
1665708;14502
1665716;14311
1665724;14297
1665732;14147
1665741;14166
1665749;14079
1665757;14106
1665765;14025
1665773;14069
1665782;14004
1665791;14007
1665799;13959
1665807;13979
1665815;13931
1665823;13952
1665832;13936
1665840;13921
1665848;13868
1665856;13848
1665864;13801
1665873;13765
1665881;13767
1665889;13742
1665897;13717
1665905;13628
1665914;13659
1665922;13638
1665930;13703
1665938;13560
1665946;13519
1665955;13334
1665963;13354
1665971;13278
1665982;13417
1665990;13537
1665999;13511
1666007;13617
1666015;13661
1666023;13793
1666031;13761
1666040;13767
1666048;13729
1666056;13733
1666064;13657
1666072;13616
1666081;13568
1666089;13587
1666097;14007
1666106;12554
1666114;9061
1666122;6368
1666131;8085
1666139;15114
1666147;15835
1666155;15083
1666163;14465
1666172;14112
1666180;13994
1666188;13747
1666196;13721
1666204;13568
1666213;13593
1666221;13442
1666229;13436
1666237;13267
1666245;13297
1666254;13134
1666262;13169
1666273;13073
1666281;12989
1666289;12830
1666298;12627
1666306;12455
1666314;12248
1666322;11963
1666330;11787
1666339;11662
1666347;11651
1666355;11671
1666363;11819
1666371;11977
1666380;12364
1666388;12756
1666396;13262
1666404;13613
1666412;14012
1666420;14172
1666429;14392
1666437;14392
1666446;14524
1666454;14434
1666462;14496
1666471;14343
1666479;14435
1666487;14276
1666495;14310
1666503;14118
1666512;14149
1666520;13981
1666528;14062
1666536;13910
1666544;14026
1666556;14011
1666564;14097
1666572;14016
1666580;14029
1666588;13965
1666597;13987
1666605;13928
1666613;13956
1666621;13854
1666629;13889
1666638;13805
1666646;13862
1666654;13759
1666662;13807
1666670;13728
1666679;13823
1666687;13736
1666695;13826
1666703;13751
1666711;13860
1666719;13761
1666728;13782
1666736;13559
1666744;13608
1666752;13426
1666760;13556
1666769;13453
1666777;13528
1666786;13410
1666794;13580
1666802;13531
1666811;13736
1666819;13626
1666827;13733
1666838;13707
1666846;13786
1666855;13664
1666863;13634
1666871;13425
1666879;14110
1666887;13098
1666896;9932
1666904;6204
1666912;6081
1666920;13181
1666928;15758
1666937;15075
1666945;14502
1666953;14166
1666961;14110
1666969;13756
1666978;13773
1666986;13581
1666994;13627
1667002;13454
1667010;13547
1667018;13349
1667027;13360
1667035;13148
1667043;13185
1667051;12965
1667059;13026
1667068;12781
1667076;12776
1667084;12472
1667092;12382
1667101;12004
1667110;11906
1667120;11629
1667128;11704
1667136;11580
1667144;11743
1667154;11769
1667162;12162
1667170;12498
1667178;13126
1667186;13451
1667195;13941
1667203;14089
1667211;14363
1667219;14335
1667227;14515
1667236;14401
1667244;14534
1667252;14361
1667260;14456
1667268;14309
1667277;14442
1667285;14303
1667293;14397
1667301;14224
1667309;14299
1667318;14116
1667326;14244
1667334;14072
1667342;14169
1667350;14027
1667358;14134
1667367;14006
1667375;14102
1667383;13958
1667391;14063
1667402;13966
1667411;14099
1667419;13904
1667427;13944
1667435;13817
1667443;13910
1667452;13765
1667461;13871
1667469;13712
1667477;13804
1667485;13660
1667494;13822
1667502;13703
1667510;13788
1667518;13572
1667526;13579
1667535;13386
1667543;13523
1667551;13406
1667559;13527
1667567;13367
1667576;13540
1667584;13490
1667592;13751
1667600;13706
1667608;13806
1667617;13690
1667625;13744
1667633;13578
1667641;13640
1667649;13467
1667657;13524
1667666;13976
1667674;12848
1667685;7775
1667693;5402
1667702;8983
1667710;15431
1667718;15421
1667726;14829
1667734;14222
1667742;14229
1667751;13877
1667759;13857
1667767;13642
1667776;13690
1667784;13514
1667793;13568
1667801;13366
1667809;13446
1667817;13233
1667825;13292
1667834;13067
1667842;13053
1667850;12828
1667858;12793
1667866;12517
1667875;12430
1667883;12073
1667891;11966
1667899;11650
1667907;11631
1667916;11481
1667924;11590
1667932;11645
1667940;11920
1667948;12167
1667956;12716
1667965;13157
1667976;13903
1667984;14136
1667992;14498
1668001;14498
1668009;14680
1668017;14554
1668025;14676
1668033;14524
1668041;14596
1668050;14405
1668058;14431
1668066;14237
1668074;14294
1668082;14100
1668092;14139
1668100;13977
1668108;14045
1668116;13905
1668124;13986
1668133;13863
1668141;13966
1668149;13873
1668157;13967
1668165;13900
1668174;13988
1668182;13916
1668190;13952
1668198;13860
1668206;13893
1668215;13829
1668223;13880
1668231;13841
1668239;13855
1668247;13788
1668259;13800
1668267;13560
1668275;13607
1668283;13454
1668291;13612
1668300;13470
1668308;13604
1668316;13571
1668324;13759
1668332;13766
1668340;13909
1668349;13785
1668357;13826
1668365;13709
1668373;13738
1668381;13626
1668390;13673
1668398;13802
1668406;14075
1668415;12071
1668423;8135
1668432;5300
1668440;8882
1668448;15495
1668456;15764
1668464;15000
1668473;14541
1668481;14395
1668489;14166
1668497;14031
1668505;13973
1668514;13917
1668522;13840
1668530;13822
1668541;13844
1668549;13710
1668558;13726
1668566;13529
1668574;13515
1668582;13282
1668590;13248
1668599;13041
1668607;12938
1668615;12613
1668623;12407
1668631;12089
1668639;11958
1668648;11785
1668656;11780
1668664;11816
1668672;12017
1668680;12226
1668689;12674
1668697;13175
1668705;13663
1668713;14075
1668721;14434
1668730;14642
1668738;14773
1668747;14878
1668755;14918
1668763;14947
1668772;14946
1668780;14973
1668788;14886
1668796;14899
1668804;14832
1668813;14845
1668824;14796
1668832;14705
1668840;14646
1668848;14481
1668857;14446
1668865;14300
1668873;14300
1668881;14191
1668889;14164
1668898;14093
1668906;14094
1668914;14041
1668922;13971
1668930;13928
1668938;13803
1668947;13671
1668955;13547
1668963;13513
1668971;13492
1668979;13575
1668988;13620
1668996;13744
1669004;13764
1669012;13813
1669020;13741
1669029;13748
1669037;13650
1669045;13697
1669053;13622
1669062;13685
1669071;13619
1669079;13715
1669087;14196
1669095;13304
1669105;8895
1669114;6416
1669123;9144
1669131;16009
1669139;16209
1669147;15378
1669156;14676
1669164;14338
1669172;14104
1669180;13845
1669188;13697
1669197;13640
1669205;13532
1669213;13479
1669221;13301
1669229;13251
1669238;13109
1669246;13044
1669254;12858
1669262;12794
1669270;12608
1669278;12510
1669287;12296
1669295;12183
1669303;11829
1669311;11684
1669319;11398
1669328;11365
1669336;11245
1669344;11392
1669352;11429
1669360;11771
1669369;11995
1669377;12622
1669386;12992
1669396;13695
1669404;14062
1669413;14265
1669421;14321
1669429;14456
1669438;14478
1669446;14495
1669455;14451
1669463;14466
1669471;14345
1669479;14324
1669487;14253
1669496;14232
1669504;14088
1669512;14138
1669520;14018
1669528;14060
1669537;14001
1669545;14131
1669553;14084
1669561;14121
1669569;13974
1669577;14085
1669586;13828
1669594;13822
1669602;13679
1669610;13792
1669618;13691
1669627;13838
1669635;13824
1669643;14030
1669651;13979
1669659;14137
1669668;13995
1669679;14062
1669687;14050
1669695;14007
1669703;13862
1669712;13809
1669720;13629
1669728;13910
1669736;13369
1669744;10935
1669753;7704
1669762;6878
1669770;12092
1669778;16562
1669786;15924
1669795;15271
1669803;14425
1669811;14148
1669819;13781
1669827;13627
1669836;13417
1669844;13420
1669852;13192
1669860;13248
1669868;13055
1669876;13085
1669885;12921
1669893;12982
1669901;12810
1669909;12825
1669917;12632
1669926;12648
1669934;12385
1669942;12318
1669950;11959
1669961;11838
1669970;11650
1669978;11678
1669986;11661
1669994;11819
1670002;11886
1670011;12285
1670019;12610
1670027;13154
1670035;13512
1670043;13987
1670052;14153
1670060;14444
1670069;14469
1670077;14594
1670085;14483
1670094;14615
1670102;14450
1670110;14558
1670118;14374
1670126;14344
1670135;14158
1670143;14238
1670151;14032
1670159;14143
1670167;14039
1670175;14094
1670184;13956
1670192;13974
1670200;13692
1670208;13739
1670216;13598
1670225;13682
1670233;13580
1670244;13791
1670252;13779
1670260;13936
1670269;13838
1670277;13931
1670285;13865
1670293;13952
1670301;13816
1670310;13877
1670318;13740
1670326;13831
1670334;13653
1670342;13758
1670351;13731
1670359;11870
1670367;8364
1670375;7555
1670383;10165
1670392;16205
1670400;16154
1670409;15518
1670417;14723
1670425;14341
1670434;13985
1670442;13791
1670450;13493
1670458;13501
1670466;13306
1670474;13313
1670483;13136
1670491;13169
1670499;13009
1670507;13063
1670515;12913
1670524;12902
1670535;12688
1670543;12735
1670551;12439
1670559;12298
1670568;11935
1670576;11820
1670584;11541
1670592;11648
1670600;11584
1670609;11772
1670617;11810
1670625;12242
1670633;12569
1670641;13155
1670650;13497
1670658;13934
1670666;14057
1670674;14329
1670682;14324
1670691;14483
1670699;14404
1670707;14483
1670715;14348
1670723;14374
1670733;14199
1670741;14217
1670749;14075
1670757;14130
1670765;14005
1670774;14041
1670782;13918
1670790;14019
1670798;13949
1670806;13984
1670818;13900
1670826;14017
1670834;13743
1670842;13768
1670850;13645
1670858;13760
1670867;13625
1670875;13783
1670883;13747
1670891;13910
1670899;13864
1670908;14018
1670916;13921
1670924;14033
1670932;13916
1670940;13970
1670949;13818
1670957;13803
1670965;13639
1670973;14036
1670981;13823
1670990;11667
1670998;7701
1671006;5594
1671014;9825
1671022;15706
1671031;15783
1671039;15265
1671047;14632
1671055;14498
1671064;14239
1671073;14135
1671081;13999
1671089;13976
1671099;13842
1671107;13876
1671117;13653
1671125;13625
1671133;13407
1671141;13418
1671149;13215
1671158;13199
1671166;12958
1671174;12873
1671182;12579
1671190;12441
1671198;12111
1671207;11948
1671215;11692
1671223;11698
1671231;11660
1671239;11839
1671248;11981
1671256;12370
1671264;12783
1671272;13289
1671280;13664
1671289;14018
1671297;14178
1671305;14323
1671313;14340
1671321;14383
1671330;14376
1671338;14385
1671346;14322
1671354;14302
1671362;14281
1671370;14229
1671382;14203
1671390;14329
1671398;14137
1671406;14112
1671415;13976
1671423;14014
1671431;13873
1671440;13928
1671448;13854
1671457;13926
1671465;13848
1671473;13852
1671481;13754
1671489;13672
1671497;13465
1671506;13426
1671514;13378
1671522;13371
1671530;13346
1671538;13438
1671547;13508
1671555;13631
1671563;13729
1671571;13775
1671579;13804
1671588;13815
1671596;13792
1671604;13745
1671612;13725
1671620;13619
1671629;13536
1671637;14062
1671645;13198
1671653;9852
1671664;4651
1671673;6422
1671681;13883
1671689;15650
1671697;15175
1671705;14710
1671714;14449
1671722;14213
1671730;14012
1671738;13975
1671746;13910
1671754;13852
1671764;13735
1671772;13712
1671780;13634
1671788;13571
1671796;13450
1671805;13331
1671813;13199
1671821;13070
1671829;12931
1671837;12723
1671846;12521
1671854;12265
1671862;12077
1671870;11822
1671878;11756
1671887;11692
1671895;11770
1671903;11777
1671911;12065
1671919;12363
1671928;12936
1671936;13358
1671944;13831
1671955;14235
1671963;14411
1671972;14485
1671980;14492
1671988;14518
1671996;14471
1672004;14448
1672013;14403
1672021;14401
1672029;14403
1672037;14402
1672045;14404
1672054;14340
1672062;14344
1672070;14294
1672078;14290
1672087;14278
1672095;14285
1672104;14240
1672112;14289
1672120;14219
1672128;14241
1672136;14149
1672145;14136
1672153;14044
1672161;14078
1672169;13962
1672177;14033
1672186;13904
1672194;13953
1672202;13828
1672210;13899
1672218;13781
1672227;13870
1672238;13860
1672246;13865
1672254;13829
1672262;13768
1672271;13713
1672279;13724
1672287;13654
1672295;13668
1672303;13603
1672312;13551
1672320;13409
1672328;13359
1672336;13233
1672344;13313
1672353;13250
1672361;13306
1672369;13250
1672377;13368
1672385;13368
1672393;13544
1672402;13454
1672411;13509
1672419;13377
1672427;13451
1672435;13323
1672444;13375
1672452;13201
1672460;13531
1672468;13433
1672476;11760
1672485;7478
1672493;4756
1672501;7324
1672509;14244
1672520;15059
1672529;14674
1672537;14436
1672545;14268
1672553;13980
1672561;13936
1672570;13809
1672578;13809
1672586;13638
1672594;13635
1672602;13463
1672611;13466
1672619;13348
1672627;13372
1672635;13191
1672643;13186
1672652;13010
1672660;13000
1672668;12734
1672676;12638
1672684;12271
1672692;12124
1672701;11809
1672709;11800
1672717;11645
1672726;11819
1672734;11779
1672743;12087
1672751;12328
1672759;12960
1672767;13329
1672775;13878
1672784;14070
1672792;14427
1672803;14558
1672811;14735
1672819;14640
1672828;14677
1672836;14498
1672844;14476
1672852;14312
1672860;14367
1672869;14245
1672877;14280
1672885;14124
1672893;14192
1672901;14034
1672910;14151
1672918;14012
1672926;14101
1672934;13993
1672942;14102
1672951;13914
1672959;14035
1672967;13890
1672975;14026
1672983;13875
1672991;14006
1673000;13847
1673008;13981
1673016;13855
1673024;13964
1673033;13797
1673042;13927
1673050;13744
1673058;13810
1673066;13658
1673074;13777
1673085;13661
1673094;13789
1673102;13635
1673110;13672
1673118;13489
1673127;13559
1673135;13450
1673143;13566
1673151;13430
1673159;13527
1673168;13324
1673176;13365
1673184;13144
1673192;13241
1673200;13146
1673209;13293
1673217;13172
1673225;13333
1673233;13257
1673241;13496
1673250;13483
1673258;13707
1673266;13597
1673274;13736
1673282;13597
1673290;13695
1673299;13553
1673307;13598
1673315;13643
1673323;13992
1673331;12170
1673340;8202
1673348;4877
1673356;7228
1673365;14183
1673375;15234
1673384;14632
1673392;14535
1673400;14273
1673408;14205
1673417;14002
1673426;14010
1673434;13848
1673442;13919
1673450;13738
1673458;13782
1673467;13579
1673475;13635
1673483;13412
1673491;13436
1673499;13205
1673508;13201
1673516;12913
1673524;12866
1673532;12545
1673540;12414
1673549;12055
1673557;11963
1673565;11693
1673573;11757
1673581;11683
1673590;11857
1673598;11904
1673606;12392
1673614;12799
1673622;13401
1673630;13810
1673639;14270
1673647;14408
1673658;14731
1673666;14727
1673674;14857
1673683;14667
1673691;14744
1673699;14601
1673707;14718
1673715;14543
1673724;14649
1673732;14488
1673741;14558
1673749;14334
1673757;14398
1673766;14217
1673774;14319
1673782;14200
1673790;14266
1673798;14116
1673807;14158
1673815;14041
1673823;14121
1673831;13979
1673839;14006
1673848;13881
1673856;13966
1673864;13871
1673872;13945
1673880;13832
1673889;13889
1673897;13777
1673905;13824
1673913;13751
1673921;13783
1673929;13710
1673941;13835
1673949;13765
1673957;13839
1673965;13596
1673974;13567
1673982;13368
1673990;13453
1673998;13386
1674006;13526
1674014;13426
1674023;13619
1674031;13592
1674039;13798
1674047;13794
1674056;13927
1674065;13842
1674073;13940
1674081;13858
1674089;13881
1674097;13733
1674106;13905
1674114;14055
1674122;12467
1674130;8779
1674138;6374
1674147;8833
1674155;15449
1674163;15746
1674171;15115
1674179;14529
1674188;14373
1674196;14149
1674204;13974
1674212;13860
1674223;13806
1674232;13648
1674240;13695
1674248;13533
1674256;13565
1674264;13364
1674273;13363
1674281;13210
1674289;13177
1674297;12984
1674305;12949
1674313;12715
1674322;12571
1674330;12249
1674338;12015
1674346;11714
1674354;11612
1674363;11525
1674371;11608
1674379;11667
1674388;11932
1674396;12324
1674405;12827
1674413;13311
1674421;13736
1674429;14083
1674437;14330
1674446;14453
1674454;14470
1674462;14508
1674470;14526
1674478;14571
1674487;14540
1674495;14551
1674506;14584
1674514;14467
1674522;14470
1674531;14316
1674539;14279
1674547;14144
1674555;14147
1674563;14037
1674572;14065
1674580;14029
1674588;14091
1674596;14061
1674604;14078
1674612;14027
1674621;14020
1674629;14013
1674637;14047
1674645;13997
1674653;13938
1674662;13822
1674670;13665
1674678;13572
1674686;13511
1674694;13482
1674703;13448
1674711;13520
1674720;13547
1674728;13723
1674736;13706
1674745;13760
1674753;13681
1674761;13729
1674769;13631
1674777;13688
1674786;13601
1674797;13607
1674805;13880
1674813;13954
1674821;12021
1674830;8195
1674838;5811
1674846;9201
1674854;15674
1674862;15848
1674871;15122
1674879;14466
1674887;14174
1674895;13929
1674903;13712
1674911;13628
1674920;13518
1674928;13502
1674936;13421
1674944;13422
1674952;13279
1674961;13231
1674969;13075
1674977;13046
1674985;12877
1674993;12826
1675002;12566
1675010;12472
1675018;12182
1675026;12013
1675034;11653
1675043;11499
1675052;11254
1675060;11331
1675068;11247
1675112;15370
1675120;15477
1675129;15349
1675137;15218
1675145;15105
1675153;14962
1675161;14846
1675170;14674
1675178;14541
1675186;14385
1675194;14307
1675202;14133
1675210;14060
1675219;13889
1675227;13830
1675235;13630
1675244;13598
1675252;13444
1675261;13470
1675269;13358
1675277;13413
1675285;13316
1675293;13404
1675302;13299
1675310;13380
1675318;13266
1675326;13363
1675334;13264
1675343;13349
1675351;13272
1675359;13400
1675367;13301
1675375;13440
1675384;13342
1675395;13476
1675403;13406
1675411;13328
1675419;13194
1675428;13219
1675436;13151
1675444;13206
1675452;13165
1675460;13335
1675469;13362
1675477;13488
1675485;13414
1675493;13484
1675501;13377
1675510;13464
1675518;13323
1675526;13359
1675534;13211
1675542;13427
1675550;13659
1675560;12156
1675568;8226
1675576;5270
1675584;7338
1675592;14725
1675601;15533
1675609;15042
1675617;14396
1675625;14357
1675633;13967
1675642;13902
1675650;13681
1675658;13759
1675666;13566
1675686;13951
1675694;14009
1675702;13798
1675710;13760
1675718;13549
1675727;13498
1675735;13271
1675743;13223
1675751;12938
1675759;12840
1675768;12480
1675776;12307
1675784;11965
1675792;11959
1675800;11795
1675809;11920
1675817;11892
1675825;12267
1675833;12522
1675841;13162
1675849;13515
1675858;14019
1675866;14181
1675874;14475
1675882;14461
1675891;14676
1675900;14552
1675908;14676
1675916;14498
1675924;14571
1675932;14417
1675941;14514
1675949;14331
1675957;14372
1675965;14176
1675976;14278
1675985;14189
1675993;14252
1676001;14088
1676009;14175
1676017;14043
1676026;14104
1676034;13911
1676042;13998
1676050;13852
1676058;13913
1676067;13769
1676075;13898
1676083;13715
1676091;13824
1676099;13704
1676108;13831
1676116;13667
1676124;13797
1676132;13650
1676140;13727
1676148;13595
1676157;13684
1676165;13560
1676173;13653
1676181;13510
1676189;13601
1676198;13511
1676206;13547
1676215;13317
1676223;13315
1676231;13146
1676240;13242
1676248;13220
1676258;13395
1676267;13343
1676275;13478
1676284;13392
1676292;13575
1676300;13470
1676308;13572
1676316;13397
1676325;13509
1676333;13334
1676341;13436
1676349;13226
1676357;13574
1676366;13524
1676374;11742
1676382;7688
1676390;5298
1676398;8388
1676407;14876
1676415;15188
1676423;14653
1676431;14154
1676439;14155
1676447;13813
1676456;13764
1676464;13563
1676472;13593
1676480;13433
1676488;13469
1676497;13353
1676505;13397
1676513;13239
1676521;13215
1676529;13090
1676541;13129
1676549;12966
1676557;12902
1676565;12568
1676573;12487
1676582;12134
1676590;12008
1676599;11690
1676607;11717
1676615;11549
1676624;11696
1676632;11660
1676640;11972
1676648;12213
1676656;12829
1676665;13216
1676673;13750
1676681;14024
1676689;14379
1676697;14446
1676706;14595
1676714;14529
1676722;14583
1676730;14485
1676738;14488
1676746;14371
1676755;14390
1676763;14280
1676771;14313
1676779;14216
1676787;14239
1676796;14182
1676804;14211
1676812;14183
1676823;14298
1676831;14227
1676840;14304
1676848;14141
1676856;14277
1676864;14116
1676872;14203
1676881;14064
1676889;14108
1676897;13966
1676906;14021
1676914;13859
1676923;13900
1676931;13736
1676939;13790
1676947;13676
1676955;13759
1676964;13707
1676972;13749
1676980;13678
1676988;13742
1676996;13672
1677005;13731
1677013;13697
1677021;13746
1677029;13732
1677037;13745
1677046;13706
1677054;13720
1677062;13742
1677070;13763
1677078;13722
1677086;13604
1677095;13504
1677106;13549
1677114;13466
1677122;13537
1677130;13377
1677139;13476
1677147;13403
1677155;13575
1677163;13586
1677171;13647
1677180;13569
1677188;13637
1677196;13525
1677204;13561
1677213;13411
1677222;13361
1677230;13865
1677238;13151
1677246;10172
1677254;6440
1677263;5683
1677271;12422
1677279;15382
1677287;15007
1677295;14414
1677304;14209
1677312;14088
1677320;13867
1677328;13769
1677336;13652
1677345;13610
1677353;13534
1677361;13533
1677369;13434
1677377;13435
1677385;13292
1677397;13227
1677405;13266
1677413;13087
1677421;13041
1677430;12826
1677438;12656
1677446;12369
1677454;12168
1677462;11885
1677470;11677
1677479;11552
1677487;11595
1677495;11661
1677503;11761
1677511;12017
1677520;12387
1677528;12865
1677536;13278
1677544;13712
1677553;14024
1677562;14272
1677570;14311
1677578;14412
1677586;14398
1677594;14436
1677603;14329
1677611;14347
1677619;14230
1677627;14250
1677635;14137
1677644;14170
1677652;14001
1677660;14033
1677668;13904
1677679;13992
1677688;14059
1677696;14004
1677704;13984
1677712;13970
1677720;13954
1677729;13910
1677737;13904
1677745;13919
1677753;13924
1677761;13905
1677769;13895
1677778;13910
1677786;13852
1677794;13867
1677802;13800
1677810;13820
1677819;13765
1677827;13809
1677835;13735
1677843;13776
1677851;13650
1677860;13714
1677868;13606
1677877;13685
1677885;13592
1677893;13670
1677902;13582
1677910;13696
1677918;13629
1677926;13729
1677934;13589
1677943;13717
1677951;13553
1677962;13698
1677970;13643
1677978;13550
1677987;13369
1677995;13368
1678003;13346
1678011;13412
1678019;13349
1678028;13414
1678036;13382
1678044;13521
1678052;13522
1678060;13678
1678068;13656
1678077;13706
1678085;13554
1678093;13577
1678101;13420
1678109;13612
1678118;13726
1678126;12162
1678134;8421
1678142;5853
1678150;8374
1678159;15111
1678167;15400
1678175;14890
1678183;14283
1678191;14320
1678200;14012
1678209;13987
1678217;13801
1678225;13843
1678233;13678
1678244;13787
1678252;13728
1678261;13694
1678269;13529
1678277;13507
1678286;13317
1678294;13267
1678302;13060
1678310;12985
1678318;12729
1678327;12626
1678335;12297
1678343;12175
1678351;11896
1678359;11846
1678367;11726
1678376;11866
1678384;11863
1678392;12173
1678400;12377
1678408;12923
1678417;13317
1678425;13896
1678433;14125
1678441;14513
1678449;14522
1678458;14728
1678466;14669
1678474;14818
1678482;14674
1678490;14736
1678499;14510
1678507;14570
1678515;14344
1678526;14422
1678534;14353
1678543;14378
1678551;14230
1678559;14265
1678567;14111
1678575;14175
1678585;14042
1678593;14136
1678601;14008
1678609;14105
1678617;13952
1678626;14022
1678634;13905
1678642;14018
1678650;13883
1678658;14022
1678666;13885
1678675;14011
1678683;13839
1678691;13911
1678699;13766
1678707;13845
1678716;13638
1678724;13718
1678732;13585
1678740;13707
1678748;13583
1678757;13712
1678765;13568
1678773;13664
1678781;13498
1678789;13618
1678798;13459
1678809;13517
1678817;13317
1678825;13356
1678833;13233
1678842;13340
1678850;13190
1678858;13284
1678866;13213
1678874;13407
1678883;13382
1678891;13542
1678900;13384
1678908;13494
1678916;13376
1678925;13458
1678933;13303
1678941;13383
1678949;13793
1678957;13046
1678966;10023
1678974;7282
1678982;6969
1678990;13755
1678998;15945
1679006;15300
1679015;14460
1679023;14193
1679031;13957
1679039;13861
1679047;13628
1679056;13606
1679064;13434
1679072;13460
1679080;13283
1679088;13317
1679100;13216
1679108;13310
1679116;13068
1679124;13088
1679132;12867
1679141;12838
1679149;12576
1679157;12483
1679165;12148
1679173;12039
1679182;11709
1679190;11657
1679198;11506
1679206;11662
1679214;11609
1679224;11864
1679232;11996
1679240;12494
1679248;12881
1679256;13427
1679265;13709
1679273;14075
1679281;14204
1679289;14467
1679297;14484
1679305;14617
1679314;14577
1679322;14646
1679330;14569
1679338;14601
1679346;14483
1679355;14478
1679363;14366
1679371;14387
1679382;14276
1679390;14421
1679399;14249
1679407;14306
1679415;14123
1679423;14185
1679431;14025
1679440;14081
1679448;13915
1679456;14005
1679464;13914
1679472;14021
1679481;13911
1679489;13941
1679497;13795
1679505;13863
1679513;13746
1679522;13819
1679530;13695
1679539;13746
1679547;13651
1679555;13715
1679564;13631
1679572;13716
1679580;13666
1679588;13704
1679596;13683
1679604;13663
1679613;13557
1679621;13513
1679629;13445
1679637;13484
1679645;13493
1679654;13509
1679665;13559
1679673;13778
1679681;13721
1679689;13865
1679698;13714
1679706;13757
1679714;13666
1679722;13734
1679730;13578
1679739;13563
1679747;13608
1679755;13868
1679763;12090
1679771;8541
1679780;5984
1679788;8857
1679796;15262
1679804;15562
1679812;14767
1679821;14245
1679829;14021
1679837;13837
1679845;13625
1679854;13540
1679863;13411
1679871;13328
1679879;13242
1679887;13231
1679895;13199
1679903;13158
1679912;13108
1679920;13021
1679928;12952
1679936;12833
1679948;12693
1679956;12697
1679964;12395
1679972;12222
1679980;11891
1679988;11720
1679997;11496
1680005;11571
1680013;11581
1680021;11764
1680029;11893
1680038;12250
1680046;12657
1680054;13190
1680062;13598
1680070;13962
1680079;14175
1680087;14357
1680095;14441
1680103;14501
1680111;14553
1680120;14566
1680128;14512
1680136;14428
1680144;14360
1680152;14256
1680161;14231
1680169;14158
1680178;14144
1680186;14011
1680194;14010
1680202;13897
1680211;13926
1680219;13801
1680229;13832
1680238;13957
1680247;13872
1680255;13871
1680263;13777
1680271;13825
1680279;13798
1680287;13803
1680296;13768
1680304;13808
1680312;13807
1680320;13802
1680328;13756
1680337;13698
1680345;13704
1680353;13706
1680361;13762
1680369;13757
1680378;13697
1680386;13534
1680394;13414
1680402;13341
1680410;13435
1680419;13460
1680427;13545
1680435;13512
1680443;13627
1680451;13630
1680460;13783
1680468;13684
1680476;13723
1680484;13611
1680492;13700
1680502;13570
1680510;13641
1680520;13577
1680528;14165
1680536;13141
1680545;9846
1680553;6443
1680561;6606
1680570;13766
1680578;15831
1680586;15190
1680595;14547
1680603;14235
1680611;14061
1680619;13753
1680627;13699
1680636;13577
1680644;13550
1680652;13399
1680660;13397
1680668;13293
1680677;13272
1680685;13108
1680693;13148
1680701;12992
1680709;13001
1680718;12800
1680726;12761
1680734;12475
1680742;12350
1680750;12015
1680759;11902
1680767;11611
1680775;11651
1680783;11546
1680791;11690
1680803;11898
1680811;12284
1680819;12686
1680827;13194
1680835;13591
1680844;13993
1680852;14220
1680860;14465
1680868;14497
1680877;14590
1680886;14547
1680894;14623
1680902;14488
1680910;14479
1680918;14355
1680926;14402
