Tempo (ms);Valor
1260695;14372
1260703;14042
1260712;13934
1260720;13538
1260728;13439
1260736;13027
1260744;12904
1260754;12477
1260762;12363
1260770;11956
1260778;11952
1260786;11734
1260795;11955
1260803;11880
1260811;12178
1260819;12265
1260827;12764
1260836;13037
1260844;13595
1260852;13714
1260860;14050
1260868;14044
1260877;14308
1260885;14211
1260893;14365
1260901;14194
1260909;14293
1260918;14099
1260926;14180
1260934;13984
1260942;14103
1260950;13920
1260958;14019
1260970;13909
1260978;14091
1260986;13922
1260994;14070
1261002;13922
1261011;14111
1261019;13917
1261027;14065
1261035;13791
1261043;13806
1261052;13564
1261060;13714
1261069;13556
1261077;13764
1261085;13631
1261094;13845
1261102;13757
1261110;13939
1261118;13775
1261126;13890
1261135;13711
1261143;13842
1261151;13651
1261159;13731
1261167;13510
1261176;13626
1261184;13770
1261192;12414
1261200;8953
1261208;6432
1261217;8252
1261225;15532
1261233;15987
1261241;15304
1261249;14391
1261261;14168
1261269;13767
1261277;13724
1261285;13452
1261293;13551
1261302;13294
1261310;13376
1261318;13123
1261326;13200
1261334;12963
1261342;13020
1261351;12762
1261359;12772
1261367;12480
1261375;12432
1261383;12070
1261392;11967
1261400;11652
1261409;11682
1261417;11549
1261425;11758
1261434;11784
1261442;12112
1261450;12280
1261458;12779
1261466;13066
1261475;13570
1261483;13795
1261491;14126
1261499;14191
1261507;14349
1261516;14322
1261524;14390
1261532;14342
1261543;14493
1261551;14331
1261560;14424
1261568;14170
1261576;14241
1261584;14019
1261592;14130
1261601;13910
1261609;14045
1261617;13923
1261625;14045
1261633;13923
1261641;14043
1261650;13903
1261658;14059
1261666;13954
1261674;14082
1261682;13952
1261691;14038
1261699;13951
1261707;14004
1261715;13786
1261724;13707
1261733;13558
1261741;13687
1261749;13659
1261757;13708
1261765;13663
1261774;13763
1261782;13791
1261790;13849
1261798;13800
1261806;13832
1261815;13789
1261826;13865
1261834;13710
1261842;13787
1261850;13566
1261859;14135
1261867;12783
1261875;9619
1261883;6362
1261891;7452
1261900;14399
1261908;15945
1261916;15132
1261924;14529
1261932;14197
1261940;14027
1261949;13717
1261957;13724
1261965;13560
1261973;13545
1261981;13379
1261990;13357
1261998;13244
1262006;13230
1262014;13106
1262022;13091
1262031;12919
1262039;12795
1262047;12595
1262056;12398
1262064;12191
1262073;11961
1262081;11756
1262089;11683
1262097;11734
1262107;11966
1262117;12023
1262125;12383
1262133;12569
1262141;13092
1262149;13349
1262158;13798
1262166;13955
1262174;14216
1262182;14250
1262190;14389
1262199;14307
1262207;14370
1262215;14252
1262223;14263
1262231;14147
1262239;14170
1262248;14058
1262256;14047
1262264;13960
1262272;13969
1262280;13917
1262289;13904
1262297;13885
1262305;13880
1262313;13885
1262321;13851
1262330;13855
1262338;13864
1262346;13902
1262354;13862
1262362;13860
1262372;13680
1262380;13610
1262388;13534
1262398;13644
1262406;13805
1262415;13706
1262424;13853
1262432;13887
1262440;14073
1262448;13997
1262457;14072
1262465;13987
1262473;14008
1262481;13938
1262489;13959
1262498;13883
1262506;13953
1262514;14150
1262522;12642
1262530;9003
1262538;6120
1262547;8775
1262555;15453
1262563;16004
1262571;15176
1262579;14627
1262588;14342
1262596;14057
1262604;13794
1262612;13734
1262620;13556
1262629;13560
1262637;13374
1262645;13361
1262653;13194
1262661;13192
1262670;12986
1262681;12956
1262689;12956
1262697;12698
1262705;12503
1262714;12217
1262722;12009
1262730;11779
1262738;11685
1262747;11671
1262756;11759
1262764;11888
1262772;12057
1262780;12341
1262788;12717
1262797;13175
1262805;13554
1262813;13923
1262821;14107
1262829;14320
1262838;14357
1262846;14420
1262854;14367
1262862;14471
1262870;14348
1262878;14401
1262887;14269
1262895;14331
1262903;14195
1262911;14252
1262919;14107
1262928;14174
1262936;14005
1262944;14130
1262952;13982
1262963;14103
1262972;14233
1262980;14202
1262988;14227
1262996;14246
1263004;14174
1263013;14028
1263021;13829
1263029;13823
1263037;13828
1263046;13854
1263055;13759
1263063;13832
1263071;13833
1263079;14022
1263087;14023
1263096;14083
1263104;13985
1263112;14100
1263120;14002
1263128;14062
1263137;13875
1263145;13890
1263153;14235
1263161;13620
1263169;10712
1263177;7287
1263186;6726
1263194;13954
1263202;16316
1263210;15802
1263218;14813
1263227;14631
1263235;14274
1263246;14061
1263254;13983
1263262;13912
1263271;13774
1263279;13707
1263287;13571
1263295;13534
1263303;13358
1263312;13335
1263320;13198
1263328;13178
1263336;12967
1263344;12870
1263353;12583
1263361;12439
1263370;12116
1263378;12008
1263386;11767
1263395;11883
1263403;11878
1263411;12111
1263419;12155
1263427;12616
1263436;12852
1263444;13369
1263452;13582
1263460;14001
1263468;14050
1263476;14307
1263485;14198
1263493;14417
1263501;14264
1263509;14410
1263517;14200
1263529;14350
1263537;14271
1263545;14242
1263553;14148
1263561;14191
1263570;14017
1263578;14065
1263586;13996
1263594;14089
1263602;13973
1263611;14087
1263619;13846
1263627;13871
1263635;13684
1263643;13802
1263652;13709
1263660;13872
1263668;13788
1263676;14016
1263684;13936
1263693;14133
1263702;13964
1263710;14098
1263718;13943
1263726;14050
1263735;13875
1263743;13990
1263751;13741
1263759;13839
1263767;13957
1263775;12449
1263784;8884
1263792;7091
1263800;9174
1263808;16222
1263820;16247
1263828;15545
1263836;14684
1263844;14460
1263852;14091
1263860;13967
1263869;13723
1263877;13775
1263885;13606
1263893;13639
1263901;13458
1263910;13509
1263918;13302
1263926;13341
1263934;13090
1263942;13116
1263951;12814
1263959;12767
1263967;12379
1263975;12289
1263983;11892
1263992;11906
1264000;11749
1264008;11960
1264016;11935
1264024;12255
1264034;12310
1264042;12773
1264050;13008
1264058;13531
1264066;13674
1264074;14065
1264083;14064
1264091;14288
1264102;14265
1264110;14421
1264119;14185
1264127;14238
1264135;13989
1264143;14060
1264151;13853
1264159;13972
1264168;13805
1264176;13910
1264184;13730
1264192;13874
1264200;13755
1264209;13958
1264217;13741
1264225;13892
1264233;13651
1264241;13691
1264250;13443
1264258;13597
1264266;13434
1264274;13644
1264282;13568
1264291;13814
1264299;13773
1264307;14045
1264315;13896
1264323;14019
1264332;13862
1264340;13967
1264349;13757
1264357;13865
1264365;13710
1264374;13835
1264384;13702
1264393;11639
1264401;7824
1264409;5954
1264418;10807
1264426;16136
1264434;15733
1264442;15082
1264450;14405
1264458;14349
1264467;13919
1264475;13926
1264483;13701
1264491;13736
1264499;13465
1264508;13552
1264516;13360
1264524;13466
1264532;13266
1264540;13303
1264549;12999
1264557;13028
1264565;12695
1264573;12617
1264581;12266
1264590;12149
1264598;11798
1264606;11817
1264614;11682
1264622;11854
1264631;11855
1264639;12161
1264647;12339
1264655;12842
1264666;13321
1264675;13890
1264683;13969
1264691;14296
1264699;14236
1264707;14410
1264717;14316
1264725;14434
1264733;14211
1264741;14306
1264749;14120
1264758;14190
1264766;13969
1264774;14076
1264782;13882
1264790;13985
1264798;13819
1264807;13938
1264815;13809
1264823;13902
1264831;13741
1264839;13846
1264848;13722
1264856;13815
1264864;13691
1264872;13785
1264880;13698
1264889;13778
1264897;13568
1264905;13460
1264913;13326
1264921;13436
1264930;13419
1264938;13498
1264949;13516
1264957;13802
1264965;13750
1264974;13911
1264982;13758
1264990;13877
1264998;13716
1265006;13870
1265015;13744
1265024;13851
1265032;13645
1265040;14226
1265048;12881
1265057;9573
1265065;5991
1265073;7031
1265081;14208
1265089;15994
1265097;15290
1265106;14700
1265114;14344
1265122;14210
1265130;13925
1265138;13873
1265147;13711
1265155;13694
1265163;13558
1265171;13593
1265179;13465
1265188;13417
1265196;13299
1265204;13265
1265212;13122
1265220;13034
1265229;12862
1265240;12740
1265248;12420
1265256;12332
1265264;12002
1265273;12056
1265281;11938
1265289;12154
1265297;12193
1265305;12492
1265314;12666
1265322;13153
1265330;13439
1265338;13883
1265347;14040
1265356;14315
1265364;14322
1265372;14475
1265380;14394
1265388;14455
1265396;14348
1265405;14386
1265413;14249
1265421;14220
1265429;14083
1265437;14047
1265446;13986
1265454;13969
1265462;13898
1265470;13888
1265478;13869
1265487;13864
1265495;13832
1265503;13827
1265511;13846
1265522;13966
1265531;13952
1265539;13999
1265547;13719
1265555;13672
1265563;13539
1265572;13660
1265580;13554
1265588;13674
1265596;13616
1265604;13764
1265613;13791
1265621;13968
1265629;13911
1265637;13950
1265646;13848
1265655;13843
1265663;13744
1265671;13679
1265679;13550
1265687;13794
1265695;13691
1265704;11626
1265712;7709
1265720;5445
1265728;9806
1265736;15391
1265745;15468
1265753;14645
1265761;14263
1265769;14030
1265777;13828
1265786;13637
1265794;13600
1265805;13582
1265813;13473
1265821;13460
1265830;13279
1265838;13293
1265846;13148
1265854;13131
1265862;12966
1265871;12894
1265879;12659
1265887;12554
1265895;12339
1265903;12177
1265912;11966
1265920;11880
1265928;11845
1265936;11902
1265944;12020
1265953;12188
1265961;12478
1265969;12846
1265977;13322
1265985;13677
1265994;14032
1266003;14188
1266011;14380
1266019;14411
1266027;14508
1266035;14431
1266044;14483
1266052;14329
1266060;14346
1266068;14230
1266076;14316
1266088;14237
1266096;14162
1266104;14149
1266112;14045
1266120;14021
1266129;13950
1266137;13950
1266145;13905
1266153;13899
1266161;13907
1266170;13891
1266178;13837
1266186;13642
1266194;13533
1266202;13478
1266211;13544
1266219;13528
1266227;13575
1266235;13583
1266243;13761
1266252;13820
1266260;13930
1266268;13866
1266276;13941
1266284;13823
1266292;13871
1266301;13742
1266310;13805
1266318;13652
1266326;14163
1266334;12852
1266343;9626
1266351;6032
1266359;7367
1266367;14624
1266378;15768
1266387;14942
1266395;14481
1266403;14253
1266411;13975
1266419;13811
1266428;13765
1266436;13679
1266444;13653
1266452;13509
1266460;13473
1266469;13317
1266477;13288
1266485;13127
1266493;13119
1266501;12873
1266510;12824
1266518;12565
1266526;12503
1266534;12186
1266542;12069
1266551;11855
1266559;11951
1266567;11886
1266575;12138
1266583;12179
1266591;12563
1266600;12773
1266608;13317
1266616;13546
1266624;14036
1266633;14173
1266642;14500
1266650;14436
1266660;14693
1266668;14712
1266678;14749
1266686;14614
1266694;14617
1266702;14495
1266710;14515
1266718;14352
1266727;14387
1266735;14230
1266743;14285
1266751;14161
1266759;14279
1266768;14146
1266776;14239
1266784;14126
1266792;14149
1266800;13872
1266809;13891
1266817;13731
1266825;13837
1266833;13688
1266841;13875
1266850;13740
1266858;13983
1266866;13884
1266874;14075
1266882;13908
1266890;14047
1266899;13847
1266907;14011
1266915;13835
1266923;13927
1266931;13758
1266943;13769
1266951;11471
1266959;8076
1266967;6312
1266975;12172
1266984;16532
1266993;16126
1267001;15139
1267009;14739
1267017;14409
1267026;14285
1267034;13983
1267042;14030
1267050;13831
1267058;13907
1267067;13707
1267075;13773
1267083;13511
1267091;13541
1267099;13274
1267108;13355
1267116;13089
1267124;13104
1267132;12736
1267140;12671
1267149;12270
1267157;12249
1267165;12000
1267173;12139
1267181;12010
1267190;12280
1267198;12317
1267206;12763
1267214;12952
1267225;13643
1267234;13899
1267242;14174
1267250;14232
1267258;14447
1267266;14369
1267274;14544
1267283;14393
1267291;14495
1267299;14320
1267308;14469
1267316;14278
1267325;14410
1267333;14173
1267341;14296
1267349;14095
1267357;14200
1267366;14031
1267374;14148
1267382;13922
1267390;14057
1267398;13773
1267407;13773
1267415;13511
1267423;13642
1267431;13464
1267439;13654
1267448;13542
1267456;13783
1267464;13748
1267472;13976
1267480;13855
1267489;14033
1267497;13891
1267508;14057
1267516;13863
1267524;13902
1267533;13646
1267541;13849
1267549;13679
1267557;11919
1267565;8322
1267574;6536
1267582;10275
1267590;16407
1267598;16009
1267606;15334
1267614;14426
1267624;14324
1267632;13904
1267640;13858
1267648;13588
1267656;13694
1267665;13494
1267673;13578
1267681;13333
1267689;13420
1267697;13197
1267706;13241
1267714;12992
1267722;13016
1267730;12718
1267738;12643
1267747;12281
1267755;12217
1267763;11867
1267771;11838
1267779;11690
1267788;11863
1267799;11995
1267807;12398
1267815;12498
1267823;13019
1267832;13268
1267840;13787
1267848;13900
1267856;14272
1267864;14247
1267873;14472
1267881;14359
1267889;14525
1267897;14352
1267905;14474
1267913;14247
1267922;14322
1267930;14109
1267938;14156
1267947;13934
1267955;14014
1267964;13816
1267972;13913
1267980;13780
1267988;13920
1267996;13811
1268005;13925
1268013;13779
1268021;13858
1268029;13595
1268037;13556
1268046;13334
1268054;13415
1268062;13306
1268070;13450
1268081;13473
1268090;13758
1268098;13656
1268106;13802
1268114;13592
1268122;13717
1268131;13527
1268139;13640
1268147;13431
1268155;13506
1268163;13323
1268172;13836
1268180;12387
1268188;8998
1268196;5549
1268204;7324
1268212;14544
1268221;15702
1268229;14894
1268237;14365
1268245;14054
1268253;13908
1268262;13607
1268271;13595
1268279;13423
1268287;13430
1268295;13325
1268304;13365
1268312;13236
1268320;13250
1268328;13121
1268336;13103
1268345;12971
1268353;12886
1268364;12673
1268372;12667
1268380;12257
1268389;12129
1268397;11816
1268405;11907
1268413;11790
1268421;12050
1268430;12087
1268438;12465
1268446;12718
1268454;13206
1268462;13470
1268471;13900
1268479;14014
1268487;14241
1268495;14216
1268503;14301
1268511;14215
1268520;14250
1268528;14152
1268536;14172
1268544;14027
1268552;14047
1268561;13916
1268569;13923
1268577;13839
1268586;13873
1268594;13851
1268603;13846
1268611;13800
1268619;13754
1268627;13726
1268635;13754
1268647;13795
1268655;13994
1268663;13784
1268671;13722
1268679;13415
1268688;13506
1268696;13467
1268704;13642
1268712;13561
1268720;13702
1268729;13674
1268737;13867
1268745;13857
1268753;13955
1268761;13872
1268770;13913
1268778;13834
1268786;13840
1268794;13754
1268802;13708
1268810;14054
1268819;13684
1268827;11169
1268835;7229
1268843;5736
1268851;11676
1268860;15890
1268868;15574
1268876;14775
1268884;14423
1268892;14214
1268902;13945
1268910;13901
1268918;13800
1268928;13753
1268936;13821
1268946;13630
1268954;13626
1268962;13455
1268970;13434
1268978;13226
1268987;13198
1268995;13002
1269003;12876
1269011;12608
1269019;12424
1269028;12161
1269036;12030
1269044;11916
1269052;11915
1269060;11992
1269069;12100
1269077;12292
1269085;12575
1269093;13008
1269101;13410
1269110;13771
1269118;13995
1269126;14190
1269134;14247
1269142;14330
1269150;14274
1269159;14351
1269167;14218
1269175;14226
1269183;14095
1269191;14150
1269200;13976
1269208;14040
1269219;14019
1269227;13976
1269235;14000
1269244;13972
1269252;14026
1269260;13991
1269269;14031
1269277;14032
1269286;14055
1269294;14049
1269302;14041
1269310;14079
1269318;14096
1269327;14065
1269335;13941
1269343;13829
1269351;13742
1269359;13828
1269368;13774
1269376;13831
1269384;13863
1269392;14023
1269400;13944
1269409;14147
1269417;14056
1269425;14136
1269433;14034
1269441;14108
1269449;13942
1269458;14051
1269466;13791
1269474;13908
1269482;13978
1269490;12428
1269502;6967
1269510;5361
1269518;11100
1269526;15721
1269534;15656
1269543;14915
1269551;14569
1269559;15479
1269567;14253
1269576;13542
1269585;13257
1269593;13564
1269601;13644
1269609;13742
1269617;13628
1269626;13712
1269634;13552
1269642;13642
1269650;13426
1269658;13227
1269667;13141
1269675;12814
1269683;12771
1269691;12907
1269699;11443
1269708;11454
1269716;11258
1269724;11211
1269732;11250
1269740;11876
1269748;12091
1269757;12683
1269765;12955
1269773;13624
1269784;14000
1269793;14374
1269801;14434
1269809;14487
1269817;14480
1269825;14574
1269833;14531
1269842;14500
1269850;14394
1269858;14468
1269866;14214
1269874;14209
1269883;13998
1269891;13795
1269900;13340
1269908;13827
1269916;14244
1269925;14387
1269933;14608
1269941;14492
1269949;13650
1269957;14215
1269966;14529
1269974;14509
1269982;13828
1269990;13438
1269998;13134
1270007;12697
1270015;13098
1270023;13914
1270031;12842
1270039;12867
1270047;12477
1270056;13318
1270067;11806
1270075;12210
1270083;12119
1270092;12816
1270100;12189
1270108;13579
1270116;13600
1270124;13887
1270132;12269
1270141;9595
1270149;6844
1270157;6289
1270165;13427
1270173;16706
1270182;15696
1270190;15033
1270198;14997
1270206;14204
1270215;14072
1270224;14463
1270232;14869
1270240;14892
1270248;14851
1270256;14583
1270265;13768
1270273;13755
1270281;13508
1270289;13578
1270297;13168
1270306;13149
1270314;12666
1270322;12716
1270330;12625
1270338;12491
1270350;12102
1270358;12208
1270366;12129
1270374;12357
1270382;12399
1270391;12848
1270399;13069
1270407;13668
1270415;13861
1270423;14276
1270431;14239
1270440;14481
1270448;14219
1270456;14392
1270464;14134
1270472;14335
1270481;13965
1270489;13944
1270497;13643
1270505;13739
1270513;13375
1270522;13589
1270530;13431
1270539;13661
1270547;13646
1270555;14088
1270564;13718
1270572;14125
1270580;13704
1270588;13748
1270596;13935
1270605;14111
1270613;13836
1270621;14079
1270629;13944
1270640;13891
1270649;13740
1270657;13926
1270665;13774
1270673;13573
1270681;13189
1270690;13916
1270698;14628
1270706;14744
1270714;14225
1270722;14230
1270730;13862
1270739;14496
1270747;13184
1270755;9965
1270763;7000
1270771;7736
1270780;15329
1270788;17277
1270796;16384
1270804;15539
1270812;14844
1270821;14803
1270829;14215
1270837;14063
1270846;13998
1270854;13940
1270863;13462
1270871;13475
1270879;13655
1270887;13584
1270895;13021
1270904;13194
1270912;12724
1270923;12586
1270931;12201
1270939;12737
1270948;12438
1270956;12146
1270964;11678
1270972;11957
1270980;11826
1270989;12057
1270997;12151
1271005;12635
1271013;12778
1271021;13265
1271030;13901
1271038;14477
1271046;13977
1271054;14750
1271062;14697
1271070;14540
1271079;14509
1271087;14516
1271095;14702
1271103;14984
1271111;14857
1271120;14720
1271128;14387
1271136;14452
1271144;14328
1271153;14273
1271162;13722
1271170;13779
1271178;13567
1271186;13908
1271194;13646
1271206;13723
1271214;14073
1271222;14190
1271230;13666
1271238;13625
1271247;13245
1271255;13350
1271263;13044
1271271;13696
1271279;13509
1271288;13524
1271296;13507
1271304;13835
1271312;13562
1271320;13809
1271329;13586
1271337;13627
1271345;13514
1271353;13699
1271361;13371
1271369;13742
1271378;13339
1271386;10777
1271394;6612
1271402;5102
1271410;11106
1271419;15902
1271427;15583
1271435;15008
1271443;14460
1271451;14285
1271460;13884
1271468;13801
1271477;13653
1271487;13496
1271495;13087
1271504;13147
1271512;12762
1271521;12674
1271529;12277
1271537;12327
1271546;11868
1271554;12300
1271562;12134
1271570;12113
1271578;11735
1271587;11520
1271595;11063
1271603;11259
1271611;11288
1271619;11574
1271628;11693
1271636;12140
1271644;12510
1271652;13066
1271660;13486
1271668;13834
1271677;14004
1271685;14489
1271693;14610
1271701;14753
1271709;14642
1271718;14587
1271726;14469
1271734;14534
1271742;14366
1271750;14480
1271759;14378
1271770;14331
1271778;14027
1271786;13994
1271794;13737
1271803;13854
1271811;13659
1271819;13722
1271827;13699
1271836;14002
1271845;13821
1271853;14085
1271861;13957
1271869;14046
1271877;13868
1271886;13924
1271894;13796
1271902;13956
1271910;13942
1271918;14127
1271927;14071
1271935;14192
1271943;14191
1271951;14202
1271959;14082
1271967;14091
1271976;14101
1271984;14088
1271992;14084
1272000;14070
1272008;14051
1272017;14629
1272025;13757
1272033;10122
1272041;6051
1272049;5690
1272061;15053
1272069;16266
1272077;15482
1272085;15017
1272093;14691
1272102;14479
1272110;14146
1272118;14121
1272126;13947
1272134;13943
1272143;13785
1272152;13780
1272160;13635
1272168;13578
1272176;13387
1272185;13257
1272193;12990
1272201;12786
1272209;12543
1272217;12327
1272226;12133
1272234;11931
1272242;11780
1272250;11764
1272258;11861
1272266;11963
1272275;12169
1272283;12372
1272291;12789
1272299;13198
1272307;13691
1272316;13996
1272324;14364
1272332;14502
1272343;14685
1272351;14876
1272360;14781
1272368;14839
1272376;14685
1272384;14668
1272392;14474
1272401;14515
1272409;14398
1272417;14379
1272425;14259
1272433;14289
1272442;14216
1272450;14184
1272458;14120
1272466;14106
1272475;14068
1272484;14073
1272492;14008
1272500;13933
1272508;14031
1272516;14020
1272525;14066
1272533;13972
1272541;13971
1272549;13791
1272557;13691
1272566;13514
1272574;13627
1272582;13601
1272590;13700
1272598;13649
1272606;13811
1272615;13772
1272626;13939
1272634;13991
1272642;13913
1272650;13870
1272659;13778
1272667;13729
1272675;13648
1272683;13562
1272691;14131
1272700;13631
1272708;10555
1272716;6314
1272724;4922
1272732;11340
1272741;15642
1272749;15400
1272757;14632
1272765;14242
1272773;14067
1272782;13727
1272790;13628
1272798;13432
1272807;13368
1272815;13230
1272824;13177
1272832;12978
1272840;12966
1272848;12764
1272856;12715
1272865;12550
1272873;12523
1272881;12304
1272889;12206
1272897;11921
1272909;11748
1272917;11656
1272925;11543
1272933;11591
1272941;11719
1272950;11873
1272958;12121
1272966;12417
1272974;12878
1272982;13267
1272990;13742
1272999;14037
1273007;14339
1273015;14456
1273023;14620
1273031;14639
1273040;14795
1273048;14703
1273056;14768
1273064;14623
1273072;14709
1273081;14545
1273089;14611
1273097;14442
1273105;14486
1273113;14293
1273123;14398
1273131;14273
1273139;14389
1273147;14271
1273155;14409
1273164;14293
1273172;14434
1273180;14311
1273191;14450
1273199;14450
1273208;14464
1273216;14359
1273224;14357
1273232;14122
1273240;14002
1273249;13874
1273257;13955
1273265;13841
1273273;13942
1273281;13900
1273289;14003
1273298;13957
1273306;14098
1273314;13953
1273322;13990
1273330;13822
1273339;13853
1273347;13636
1273355;13639
1273363;13521
1273371;14123
1273380;12474
1273388;8949
1273396;6190
1273404;8264
1273412;15373
1273421;16116
1273429;15227
1273438;14607
1273446;14088
1273454;14025
1273463;13635
1273471;13654
1273482;13516
1273490;13492
1273498;13319
1273507;13281
1273515;13095
1273523;13065
1273531;12884
1273539;12872
1273548;12628
1273556;12604
1273564;12350
1273572;12271
1273580;11950
1273588;11858
1273597;11574
1273605;11645
1273613;11552
1273621;11753
1273629;11810
1273638;12167
1273646;12390
1273654;12956
1273662;13250
1273670;13740
1273679;13883
1273687;14187
1273695;14163
1273703;14369
1273711;14254
1273720;14367
1273728;14246
1273736;14344
1273744;14167
1273753;14261
1273764;14114
1273772;14207
1273780;14013
1273788;14063
1273796;13916
1273806;14024
1273814;13915
1273822;14086
1273830;13921
1273838;14045
1273847;13811
1273855;13844
1273863;13600
1273871;13728
1273879;13546
1273887;13742
1273896;13640
1273904;13875
1273912;13802
1273920;14012
1273928;13849
1273937;13968
1273945;13837
1273953;13948
1273961;13818
1273969;13906
1273978;13715
1273986;13812
1273994;14161
1274002;12991
1274010;9367
1274019;6486
1274027;7288
1274035;15001
1274046;16080
1274054;15546
1274063;14678
1274071;14509
1274079;14098
1274087;13991
1274095;13687
1274104;13712
1274112;13469
1274121;13540
1274129;13286
1274137;13365
1274146;13149
1274154;13209
1274162;12939
1274170;12964
1274178;12636
1274186;12559
1274195;12204
1274203;12132
1274211;11741
1274219;11678
1274227;11460
1274236;11580
1274244;11565
1274252;11889
1274260;12020
1274268;12521
1274277;12880
1274285;13436
1274293;13668
1274301;14009
1274309;14067
1274318;14196
1274329;14202
1274337;14438
1274345;14286
1274353;14354
1274362;14162
1274370;14262
1274378;14032
1274386;14144
1274394;13976
1274403;14077
1274411;13889
1274419;14011
1274428;13895
1274436;13997
1274445;13872
1274453;14034
1274461;13933
1274469;14111
1274477;13993
1274486;14095
1274494;13873
1274502;13857
1274510;13636
1274518;13708
1274526;13587
1274535;13718
1274543;13686
1274551;13808
1274559;13820
1274567;13964
1274576;13898
1274584;13940
1274592;13866
1274600;13898
1274611;13794
1274620;13961
1274628;13755
1274636;14510
1274644;13515
1274652;10337
1274661;6020
1274669;5614
1274677;12739
1274685;15873
1274693;15370
1274702;14804
1274710;14475
1274718;14410
1274726;14085
1274734;14039
1274743;13838
1274752;13855
1274760;13656
1274768;13628
1274776;13424
1274785;13410
1274793;13264
1274801;13265
1274809;13102
1274817;13068
1274825;12890
1274834;12735
1274842;12506
1274850;12252
1274858;12017
1274866;11942
1274875;11911
1274883;11986
1274891;12051
1274902;12416
1274910;12665
1274919;13196
1274927;13466
1274935;13929
1274943;14092
1274951;14419
1274960;14426
1274968;14584
1274976;14465
1274984;14520
1274992;14402
1275001;14448
1275009;14311
1275017;14288
1275025;14179
1275033;14165
1275042;14076
1275050;14084
1275058;14024
1275067;13990
1275075;13967
1275084;13958
1275092;13952
1275100;13944
1275108;13942
1275116;13920
1275124;13930
1275133;13903
1275141;13930
1275149;13833
1275157;13773
1275165;13572
1275174;13494
1275185;13532
1275193;13507
1275201;13549
1275209;13406
1275218;13523
1275226;13517
1275234;13693
1275242;13650
1275250;13689
1275259;13616
1275267;13650
1275275;13568
1275283;13563
1275291;13433
1275300;13734
1275308;13833
1275316;11699
1275324;7552
1275332;4952
1275341;8899
1275349;15267
1275357;15585
1275365;14854
1275373;14366
1275382;14164
1275391;13921
1275399;13705
1275407;13658
1275415;13523
1275423;13550
1275432;13398
1275440;13393
1275448;13265
1275456;13288
1275468;13238
1275476;13141
1275484;13061
1275492;12865
1275500;12727
1275508;12447
1275517;12262
1275525;12017
1275533;11884
1275541;11814
1275549;11870
1275558;11996
1275566;12191
1275574;12469
1275582;12861
1275590;13377
1275599;13805
1275607;14233
1275615;14453
1275623;14647
1275631;14631
1275640;14708
1275648;14585
1275656;14589
1275664;14438
1275672;14452
1275681;14306
1275689;14400
1275697;14279
1275706;14373
1275714;14185
1275722;14267
1275731;14097
1275739;14201
1275750;14183
1275758;14225
1275767;14219
1275775;14216
1275783;14156
1275791;14164
1275799;14157
1275807;14217
1275816;14122
1275824;14057
1275832;13803
1275840;13746
1275848;13663
1275857;13783
1275865;13680
1275873;13801
1275881;13769
1275889;13928
1275898;13878
1275906;13994
1275914;13831
1275922;13928
1275930;13743
1275939;13840
1275947;13635
1275955;13711
1275963;13674
1275971;14250
1275980;12362
1275988;8527
1275996;5224
1276004;7966
1276013;15056
1276022;15954
1276030;15109
1276040;14534
1276048;14321
1276057;14018
1276066;13766
1276074;13692
1276082;13507
1276090;13475
1276098;13345
1276106;13335
1276115;13193
1276123;13195
1276131;13020
1276139;13032
1276147;12842
1276156;12800
1276164;12534
1276172;12475
1276180;12161
1276188;12099
1276197;11889
1276205;11993
1276213;11883
1276221;12101
1276229;12087
1276238;12439
1276246;12673
1276254;13285
1276262;13544
1276270;14040
1276279;14143
1276287;14477
1276295;14413
1276303;14619
1276311;14522
1276323;14692
1276331;14645
1276339;14665
1276347;14514
1276355;14528
1276364;14398
1276373;14441
1276381;14289
1276389;14349
1276397;14212
1276406;14295
1276414;14150
1276422;14199
1276430;14066
1276438;14189
1276446;14071
1276455;14174
1276463;14012
1276471;13970
1276479;13693
1276487;13746
1276496;13589
1276504;13704
1276512;13614
1276520;13856
1276528;13825
1276537;14047
1276545;13968
1276553;14092
1276561;13924
1276569;14032
1276578;13825
1276586;13944
1276594;13716
1276605;13788
1276613;14235
1276622;13550
1276630;10422
1276638;7197
1276646;6650
1276654;14112
1276663;16715
1276671;16198
1276679;15283
1276688;14886
1276696;14543
1276705;14427
1276713;14038
1276721;14036
1276729;13756
1276737;13836
1276745;13602
1276754;13711
1276762;13494
1276770;13548
1276778;13290
1276786;13343
1276795;13022
1276803;12973
1276811;12542
1276819;12428
1276827;12036
1276836;11923
1276844;11632
1276852;11711
1276860;11595
1276868;11802
1276877;11851
1276888;12502
1276896;12833
1276904;13433
1276912;13673
1276921;14207
1276929;14298
1276937;14578
1276945;14448
1276953;14594
1276962;14351
1276970;14434
1276978;14184
1276986;14263
1276994;14083
1277004;14209
1277012;13957
1277020;14052
1277028;13832
1277036;13922
1277044;13706
1277053;13872
1277061;13701
1277069;13823
1277077;13625
1277085;13752
1277094;13501
1277102;13536
1277110;13294
1277118;13355
1277126;13167
1277135;13351
1277143;13323
1277151;13519
1277159;13557
1277170;13872
1277179;13809
1277187;13975
1277195;13771
1277203;13899
1277211;13681
1277220;13764
1277228;13539
1277236;13936
1277244;13744
1277252;11768
1277261;7856
1277269;5742
1277277;9793
1277285;15997
1277293;15876
1277302;15401
1277310;14600
1277318;14436
1277326;14050
1277335;13931
1277343;13629
1277352;13631
1277360;13329
1277368;13313
1277376;13079
1277384;13098
1277393;12907
1277401;12890
1277409;12641
1277417;12573
1277425;12377
1277434;12293
1277442;11983
1277450;11800
1277461;11481
1277469;11629
1277478;11496
1277486;11776
1277494;11764
1277502;12179
1277510;12385
1277519;12959
1277527;13239
1277535;13722
1277543;13848
1277551;14209
1277560;14168
1277568;14358
1277576;14255
1277584;14398
1277592;14301
1277601;14430
1277609;14298
1277617;14347
1277625;14193
1277633;14180
1277641;13953
1277651;14026
1277659;14003
1277667;14022
1277675;13945
1277683;13994
1277692;13976
1277700;14022
1277708;13972
1277716;13990
1277724;13847
1277733;13701
1277744;13631
1277752;13754
1277760;13547
1277768;13679
1277777;13576
1277785;13785
1277793;13740
1277801;13913
1277809;13743
1277818;13867
1277826;13767
1277834;13857
1277842;13741
1277850;13833
1277859;13886
1277867;14291
1277875;12608
1277883;8951
1277891;5904
1277900;8346
1277908;15482
1277916;16211
1277924;15601
1277932;14931
1277940;14615
1277949;14313
1277957;14071
1277965;13898
1277974;13784
1277982;13645
1277991;13596
1277999;13498
1278007;13496
1278015;13363
1278026;13263
1278035;13312
1278043;13046
1278051;12928
1278059;12639
1278067;12506
1278076;12204
1278084;12040
1278092;11842
1278100;11821
1278108;11842
1278117;12011
1278125;12152
1278133;12460
1278141;12839
1278149;13280
1278158;13671
1278166;13985
1278174;14219
1278182;14373
1278190;14480
1278199;14450
1278207;14427
1278215;14359
1278223;14403
1278231;14290
1278239;14224
1278248;14098
1278256;14090
1278264;13975
1278272;14008
1278280;13839
1278290;13915
1278298;13812
1278308;13867
1278316;13964
1278326;13909
1278334;13929
1278342;13834
1278350;13745
1278358;13575
1278366;13497
1278375;13474
1278383;13455
1278391;13514
1278399;13597
1278407;13693
1278416;13818
1278424;13897
1278432;13863
1278440;13871
1278448;13805
1278457;13846
1278465;13760
1278473;13760
1278481;13606
1278489;13961
1278498;13928
1278506;11908
1278514;7675
1278522;4915
1278530;8747
1278538;15282
1278547;15546
1278555;15074
1278563;14464
1278571;14456
1278579;14038
1278588;14023
1278599;13887
1278607;13820
1278615;13723
1278623;13613
1278632;13466
1278641;13365
1278649;13271
1278657;13196
1278665;13038
1278674;12952
1278682;12748
1278690;12615
1278698;12286
1278706;12114
1278715;11824
1278723;11752
1278731;11616
1278739;11810
1278747;11851
1278756;12164
1278764;12364
1278772;12899
1278780;13249
1278788;13772
1278797;13926
1278805;14246
1278813;14241
1278821;14445
1278829;14316
1278838;14461
1278846;14260
1278854;14353
1278862;14137
1278870;14249
1278890;14435
1278898;14371
1278906;14276
1278914;14114
1278922;14105
1278931;13992
1278939;14019
1278948;13899
1278956;13944
1278964;13862
1278973;13981
1278981;13912
1278989;13996
1278997;13839
1279005;13774
1279014;13540
1279022;13684
1279030;13590
1279038;13735
1279046;13641
1279055;13835
1279063;13808
1279071;14042
1279079;13874
1279087;13980
1279096;13785
1279104;13902
1279112;13737
1279120;13844
1279128;13637
1279137;13821
1279145;14081
1279153;12690
1279161;8668
1279172;5009
1279181;9760
1279189;15575
1279197;15687
1279205;15077
1279213;14513
1279222;14410
1279230;14010
1279238;14009
1279246;13790
1279255;13792
1279263;13571
1279272;13640
1279280;13441
1279288;13495
1279296;13233
1279304;13272
1279313;13016
1279321;13077
1279329;12784
1279337;12758
1279345;12377
1279354;12318
1279362;11954
1279370;12000
1279378;11834
1279386;12045
1279395;11988
1279403;12305
1279411;12388
1279419;12926
1279427;13230
1279436;13798
1279444;13990
1279455;14540
1279463;14639
1279471;14860
1279480;14726
1279488;14802
1279496;14576
1279504;14599
1279512;14402
1279521;14502
1279529;14301
1279537;14405
1279545;14189
1279553;14282
1279561;14064
1279571;14171
1279579;13970
1279587;14113
1279595;13924
1279603;14096
1279612;13945
1279620;14101
1279628;13912
1279636;14030
1279644;13774
1279653;13811
1279661;13600
1279669;13799
1279677;13696
1279685;13794
1279694;13661
1279702;13890
1279710;13841
1279718;14048
1279726;13928
1279738;14084
1279746;13949
1279754;14069
1279762;13843
1279770;13976
1279779;13764
1279787;14378
1279795;13905
1279803;11510
1279811;7296
1279820;5484
1279828;10862
1279836;15879
1279844;15628
1279852;15094
1279860;14513
1279869;14482
1279877;14102
1279885;14078
1279894;13836
1279902;13871
1279911;13589
1279919;13619
1279927;13402
1279935;13440
1279943;13217
1279952;13252
1279960;13036
1279968;13044
1279976;12800
1279984;12718
1279993;12355
1280001;12181
1280009;11821
1280017;11742
1280028;11657
1280037;11959
1280045;11934
1280053;12276
1280061;12406
1280069;12988
1280078;13238
1280086;13761
1280094;13876
1280102;14234
1280110;14219
1280119;14475
1280127;14369
1280135;14509
1280143;14348
1280151;14461
1280159;14270
1280168;14374
1280176;14193
1280184;14248
1280192;14098
1280200;14170
1280209;14024
1280218;14107
1280226;13964
1280234;14082
1280242;13995
1280251;14087
1280259;13993
1280267;14140
1280275;14059
1280283;14083
1280292;13936
1280300;13846
1280311;13724
1280319;13963
1280327;13800
1280336;13948
1280344;13804
1280352;13981
1280360;13933
1280368;14133
1280377;13944
1280385;14053
1280393;13919
1280401;14012
1280409;13801
1280418;13875
1280426;13612
1280434;14045
1280442;13848
1280450;11718
1280458;7688
1280467;5493
1280475;10280
1280483;15891
1280491;15758
1280499;15095
1280508;14463
1280516;14327
1280524;13979
1280533;13821
1280541;13641
1280550;13625
1280558;13487
1280566;13446
1280574;13358
1280582;13292
1280594;13151
1280602;13217
1280610;12914
1280618;12854
1280626;12543
1280635;12483
1280643;12168
1280651;12067
1280659;11730
1280667;11718
1280676;11608
1280684;11763
1280692;11785
1280700;12075
1280708;12296
1280717;12791
1280725;13132
1280733;13571
1280741;13824
1280749;14083
1280758;14155
1280766;14264
1280774;14240
1280782;14291
1280790;14239
1280798;14216
1280807;14182
1280815;14192
1280823;14152
1280831;14096
1280839;14052
1280848;13963
1280857;13959
1280865;13906
1280875;13884
1280883;14060
1280892;13938
1280901;14044
1280909;13920
1280917;14008
1280925;13915
1280934;14003
1280942;13898
1280950;13929
1280958;13700
1280966;13634
1280975;13574
1280983;13646
1280991;13583
1280999;13582
1281007;13563
1281016;13650
1281024;13774
1281032;13820
1281040;13822
1281048;13775
1281057;13737
1281065;13679
1281073;13652
1281081;13619
1281089;13541
1281097;14004
1281106;13534
1281114;10600
1281122;6612
1281130;5147
1281138;11433
1281147;15564
1281158;15156
1281166;14613
1281174;14290
1281182;14093
1281191;13836
1281199;13770
1281207;13672
1281216;13623
1281224;13494
1281233;13489
1281241;13393
1281249;13358
1281257;13275
1281265;13128
1281274;12979
1281282;12871
1281290;12760
1281298;12536
1281306;12341
1281315;12097
1281323;11978
1281331;11865
1281339;11913
1281347;11935
1281356;12153
1281364;12306
1281372;12688
1281380;13001
1281388;13524
1281396;13753
1281405;14118
1281413;14222
1281421;14384
1281429;14329
1281437;14473
1281449;14442
1281457;14394
1281465;14333
1281473;14248
1281481;14189
1281490;14128
1281498;14101
1281506;14096
1281514;14086
1281523;14071
1281532;14029
1281540;14060
1281548;14008
1281556;14066
1281564;13987
1281573;14066
1281581;13959
1281589;13976
1281597;13904
1281605;13884
1281614;13689
1281622;13566
1281630;13429
1281638;13543
1281646;13503
1281655;13613
1281663;13524
1281671;13670
1281679;13635
1281687;13841
1281695;13729
1281704;13814
1281712;13705
1281720;13857
1281731;13842
1281740;13869
1281748;13716
1281756;14263
1281764;13807
1281772;10967
1281780;6541
1281789;4997
1281797;11358
1281805;15923
1281813;15710
1281821;14985
1281830;14555
1281839;14407
1281847;14032
1281855;13953
1281863;13743
1281872;13736
1281880;13540
1281888;13486
1281896;13267
1281904;13258
1281913;13087
1281921;13116
1281929;12909
1281937;12920
1281945;12680
1281954;12579
1281962;12247
1281970;12156
1281978;11820
1281986;11785
1281994;11645
1282003;11804
1282014;11943
1282022;12279
1282030;12500
1282039;12927
1282047;13245
1282055;13660
1282063;13890
1282071;14209
1282079;14230
1282088;14384
1282096;14325
1282104;14433
1282112;14307
1282120;14367
1282129;14207
1282137;14261
1282145;14084
1282153;14169
1282162;13989
1282171;14114
1282179;13972
1282187;14101
1282195;13980
1282203;14142
1282212;14012
1282220;14146
1282228;14026
1282236;14198
1282244;14048
1282253;14197
1282261;13981
1282269;13904
1282277;13546
1282285;13626
1282297;13581
1282305;13685
1282313;13566
1282321;13693
1282329;13665
1282338;13916
1282346;13871
1282354;13957
1282362;13797
1282370;13923
1282378;13774
1282387;13825
1282395;13650
1282403;13896
1282411;14129
1282419;12499
1282428;8361
1282436;5299
1282444;8255
1282452;15574
1282460;15924
1282469;15315
1282477;14575
1282485;14531
1282493;14164
1282502;14091
1282511;13901
1282519;13946
1282527;13793
1282535;13856
1282543;13696
1282552;13747
1282560;13557
1282568;13547
1282579;13312
1282587;13302
1282596;12987
1282604;12875
1282612;12522
1282620;12397
1282628;12035
1282637;12002
1282645;11825
1282653;12004
1282661;11992
1282669;12253
1282678;12394
1282686;12877
1282694;13164
1282702;13675
1282710;13886
1282718;14262
1282727;14325
1282735;14565
1282743;14493
1282751;14632
1282759;14548
1282768;14600
1282776;14442
1282784;14528
1282792;14394
1282800;14436
1282809;14310
1282818;14357
1282826;14180
1282834;14241
1282842;14138
1282851;14250
1282859;14189
1282912;15796
1282920;15671
1282928;15239
1282937;15129
1282945;14859
1282953;14844
1282961;14599
1282969;14587
1282978;14317
1282986;14294
1282994;14026
1283002;14015
1283010;13756
1283018;13726
1283027;13825
1283035;13709
1283043;11183
1283051;7595
1283059;5689
1283068;11111
1283076;16169
1283084;15854
1283092;14977
1283100;14406
1283109;14053
1283117;13866
1283125;13489
1283133;13446
1283141;13260
1283150;13250
1283159;13117
1283167;13117
1283175;12952
1283183;12936
1283194;12785
1283203;12824
1283211;12533
1283219;12472
1283227;12133
1283236;12002
1283244;11621
1283252;11513
1283260;11288
1283268;11458
1283277;11489
1283285;11780
1283293;11906
1283301;12328
1283309;12620
1283318;13125
1283326;13386
1283334;13808
1283342;13929
1283350;14118
1283358;14063
1283367;14182
1283375;14102
1283383;14140
1283391;14024
1283399;14055
1283408;13968
1283416;13961
1283424;13854
1283432;13916
1283440;13856
1283449;13875
1283457;13857
1283466;13924
1283476;14013
1283484;14144
1283493;13975
1283501;14028
1283509;13784
1283518;13770
1283526;13623
1283535;13672
1283543;13518
1283551;13624
1283559;13583
1283567;13748
1283576;13736
1283584;13836
1283592;13761
1283600;13874
1283608;13786
1283617;13851
1283625;13753
1283633;13771
1283641;13649
1283649;14265
1283657;13017
1283666;9616
1283674;6217
1283682;6715
1283690;14377
1283698;16130
1283707;15484
1283715;14773
1283723;14411
1283731;14196
1283739;13897
1283748;13728
1283759;13639
1283767;13719
1283775;13555
1283783;13541
1283792;13341
1283800;13308
1283808;13109
1283816;13006
1283824;12766
1283833;12673
1283842;12394
1283850;12243
1283858;11893
1283866;11693
1283875;11516
1283883;11585
1283891;11586
1283899;11784
1283907;11950
1283916;12242
1283924;12614
1283932;13093
1283940;13484
1283948;13812
1283956;14004
1283965;14174
1283973;14264
1283981;14327
1283989;14343
1283997;14356
1284006;14353
1284014;14287
1284022;14287
1284030;14166
1284041;14119
1284050;14197
1284058;14053
1284066;14060
1284074;13963
1284082;13996
1284091;13917
1284099;13959
1284107;13927
1284115;13964
1284123;13923
1284132;13827
1284140;13678
1284148;13599
1284157;13546
1284165;13553
1284174;13562
1284182;13604
1284190;13612
1284198;13658
1284206;13741
1284215;13797
1284223;13842
1284231;13843
1284239;13861
1284247;13813
1284255;13827
1284264;13694
1284272;14081
1284280;14089
1284288;11891
1284296;7597
1284305;4816
1284313;9253
1284321;15575
1284332;15756
1284340;15107
1284349;14856
1284357;14593
1284365;14360
1284373;14144
1284381;14003
1284390;13915
1284398;13826
1284406;13686
1284414;13569
1284422;13479
1284431;13373
1284439;13272
1284447;13136
1284455;13025
1284463;12813
1284472;12666
1284480;12378
1284488;12133
1284497;11891
1284505;11866
1284514;11795
1284522;11944
1284530;11981
1284538;12239
1284546;12503
1284554;13037
1284563;13397
1284571;13864
1284579;14103
1284587;14389
1284595;14395
1284604;14491
1284615;14522
1284623;14541
1284631;14486
1284639;14414
1284648;14336
1284656;14269
1284664;14186
1284672;14181
1284680;14142
1284689;14157
1284697;14102
1284705;14142
1284713;14051
1284721;14073
1284730;13963
1284738;14025
1284746;13959
1284754;14021
1284762;13937
1284771;13969
1284779;13767
1284787;13666
1284795;13534
1284803;13645
1284812;13582
1284821;13660
1284829;13590
1284837;13741
1284845;13738
1284854;13954
1284862;13858
1284870;13947
1284878;13836
1284886;13970
1284898;13923
1284906;13918
1284914;13720
1284922;14330
1284930;13720
1284938;10645
1284947;6135
1284955;4714
1284963;11230
1284971;15645
1284979;15462
1284988;14886
1284996;14488
1285004;14332
1285012;13982
1285020;13951
1285029;13769
1285037;13768
1285045;13581
1285053;13581
1285061;13410
1285070;13479
1285078;13294
1285086;13314
1285094;13119
1285102;13106
1285111;12829
1285119;12753
1285127;12405
1285135;12254
1285144;11939
1285153;11969
1285161;11832
1285169;11999
1285179;12200
1285187;12538
1285197;12785
1285205;13289
1285213;13601
1285221;14003
1285229;14188
1285238;14386
1285246;14345
1285254;14466
1285262;14399
1285270;14453
1285278;14309
1285287;14350
1285295;14210
1285303;14317
1285311;14159
1285319;14223
1285328;14070
1285336;14196
1285344;14066
1285352;14137
1285360;14027
1285369;14122
1285377;13987
1285385;14091
1285393;13974
1285401;14088
1285410;13964
1285418;14051
1285426;13926
1285434;13975
1285442;13773
1285452;13696
1285462;13575
1285470;13745
1285478;13638
1285486;13744
1285495;13698
1285504;13882
1285512;13870
1285520;14003
1285528;13883
1285537;13951
1285545;13855
1285553;13992
1285561;13834
1285569;13847
1285577;13633
1285586;14054
1285594;14039
1285602;11803
1285610;7343
1285618;4807
1285627;8836
1285635;15349
1285643;15594
1285651;15025
1285659;14476
1285668;14378
1285676;13979
1285684;13906
1285692;13682
1285700;13707
1285709;13587
1285717;13593
1285725;13434
1285733;13489
1285741;13331
1285753;13352
1285761;13192
1285769;13109
1285777;12799
1285785;12705
1285794;12361
1285802;12242
1285810;11872
1285819;11878
1285827;11747
1285836;11908
1285844;11937
1285852;12290
1285860;12479
1285868;12995
1285876;13336
1285885;13805
1285893;13960
1285901;14240
1285909;14231
1285917;14387
1285926;14350
1285934;14439
1285942;14317
1285950;14372
1285958;14215
1285967;14254
1285975;14109
1285983;14114
1285991;13976
1285999;14013
1286008;13911
1286016;13974
1286024;13894
1286035;14025
1286043;13909
1286052;14011
1286060;13844
1286068;13931
1286076;13830
1286084;13969
1286093;13861
1286101;13997
1286109;13905
1286117;13930
1286125;13659
1286135;13677
1286143;13579
1286151;13717
1286159;13625
1286167;13728
1286175;13671
1286184;13788
1286192;13818
1286200;13908
1286208;13821
1286216;13888
1286225;13820
1286233;13873
1286241;13819
1286249;13813
1286257;13662
1286266;14120
1286274;13915
1286282;11340
1286290;7088
1286298;4973
1286307;10264
1286318;16016
1286326;15532
1286334;14942
1286342;14575
1286351;14429
1286359;14097
1286367;14066
1286375;13898
1286383;13903
1286392;13741
1286400;13742
1286408;13595
1286416;13570
1286424;13415
1286433;13366
1286441;13170
1286449;13082
1286458;12861
1286466;12734
1286474;12436
1286483;12238
1286491;11975
1286499;11894
1286507;11847
1286515;11987
1286524;12058
1286532;12280
1286540;12535
1286548;12959
1286556;13374
1286565;13776
1286573;14077
1286581;14263
1286589;14445
1286600;14609
1286609;14596
1286617;14675
1286625;14534
1286633;14542
1286641;14407
1286650;14409
1286658;14256
1286666;14254
1286674;14131
1286682;14154
1286691;14048
1286699;14064
1286707;13963
1286715;13958
1286723;13858
1286732;13877
1286740;13816
1286748;13843
1286756;13821
1286764;13852
1286772;13792
1286781;13787
1286790;13762
1286798;13740
1286806;13760
1286814;13693
1286823;13566
1286831;13385
1286839;13351
1286847;13276
1286855;13321
1286864;13334
1286872;13366
1286883;13492
1286891;13683
1286899;13884
1286908;13749
1286916;13736
1286924;13655
1286932;13691
1286940;13608
1286949;13568
1286957;13552
1286965;14109
1286973;12628
1286981;8879
1286990;5692
1286998;7145
1287006;14630
1287014;15859
1287022;15267
1287031;14533
1287039;14216
1287047;13946
1287055;13689
1287063;13533
1287071;13500
1287080;13433
1287088;13466
1287096;13390
1287104;13389
1287113;13194
1287122;13149
1287130;12937
1287138;12855
1287146;12604
1287154;12561
1287163;12241
1287174;12093
1287182;12023
1287190;11838
1287198;11860
1287207;11913
1287215;12104
1287223;12342
1287231;12653
1287239;13074
1287248;13530
1287256;13983
1287264;14338
1287272;14601
1287280;14670
1287289;14791
1287297;14779
1287305;14862
1287313;14815
1287321;14794
1287330;14717
1287338;14696
1287346;14565
1287354;14646
1287362;14569
1287370;14649
1287379;14454
1287387;14450
1287395;14226
1287403;14203
1287411;13957
1287420;13974
1287428;13798
1287437;13792
1287445;13592
1287455;13591
1287464;13529
1287472;13403
1287481;13305
1287489;13207
1287497;13002
1287506;12801
1287514;12642
1287522;12690
1287530;12692
1287538;12779
1287547;12746
1287555;12874
1287563;12869
1287571;13044
1287579;12997
1287588;13068
1287596;12986
1287604;13090
1287612;12949
1287620;13011
1287629;12903
1287637;13151
1287645;13533
1287653;11939
1287661;7872
1287670;4860
1287678;7069
1287686;14544
1287694;15392
1287702;14877
1287710;14190
1287719;14197
1287727;13837
1287738;13842
1287746;13776
1287754;13746
1287763;13610
1287771;13607
1287779;13508
1287787;13582
1287795;13446
1287805;13441
1287813;13284
1287821;13324
1287829;13092
1287837;13006
1287846;12729
1287854;12514
1287862;12246
1287870;12222
1287878;12009
1287887;12231
1287895;12158
1287903;12456
1287911;12594
1287919;13051
1287928;13314
1287936;13799
1287944;13947
1287952;14190
1287960;14156
1287969;14354
1287977;14270
1287985;14378
1287993;14221
1288001;14346
1288009;14200
1288021;14319
1288029;14245
1288037;14302
1288045;14110
1288054;14089
1288062;13870
1288070;13835
1288078;13664
1288086;13728
1288094;13577
1288103;13652
1288111;13545
1288119;13686
1288128;13573
1288136;13817
1288145;13716
1288153;13719
1288161;13474
1288169;13486
1288177;13367
1288186;13492
1288194;13412
1288202;13532
1288210;13450
1288218;13725
1288227;13732
1288235;13913
1288243;13819
1288251;13956
1288259;13832
1288268;13963
1288276;13790
1288284;13876
1288292;13696
1288303;14536
1288312;13078
1288320;9297
1288328;5583
1288336;6978
1288344;14541
1288353;16063
1288361;15355
1288369;14853
1288377;14477
1288385;14322
1288393;13991
1288402;14011
1288410;13784
1288418;13884
1288426;13729
1288434;13797
1288444;13598
1288452;13648
1288460;13411
1288468;13428
1288476;13205
1288485;13237
1288493;12913
1288501;12830
1288509;12492
1288517;12354
1288526;12054
1288534;12068
1288542;11966
1288550;12184
1288558;12182
1288567;12450
1288575;12679
1288583;13245
1288594;13763
1288602;14276
1288611;14385
1288619;14643
1288627;14578
1288635;14712
1288643;14555
1288652;14640
1288660;14484
1288668;14560
1288676;14406
1288684;14469
1288692;14274
1288701;14402
1288709;14238
1288717;14284
1288725;14197
1288733;14373
1288742;14240
1288750;14327
1288758;14247
1288767;14353
1288775;14244
1288784;14362
1288792;14274
1288800;14393
1288808;14192
1288816;14182
1288825;13991
1288833;13986
1288841;13939
1288849;14047
1288857;14000
1288866;14139
1288877;14189
1288885;14452
1288893;14303
1288901;14374
1288910;14191
1288918;14203
1288926;14010
1288934;14103
1288942;13917
1288951;13975
1288959;14467
1288967;13671
1288975;10219
1288983;6784
1288991;6636
1289000;14278
1289008;16316
1289016;15723
1289024;14877
1289032;14563
1289041;14232
1289049;14027
1289057;13800
1289065;13806
1289073;13625
1289082;13592
1289091;13476
1289099;13404
1289107;13237
1289115;13169
1289124;13021
1289132;12909
1289140;12697
1289148;12555
1289159;12238
1289168;12171
1289176;11834
1289184;11750
1289192;11543
1289200;11696
1289209;11658
1289217;11903
1289225;12036
1289233;12438
1289241;12733
1289250;13211
1289258;13473
1289266;13874
1289274;13997
1289282;14235
1289290;14204
1289299;14328
1289307;14297
1289315;14326
1289323;14203
1289331;14211
1289340;14106
1289348;14071
1289356;14023
1289364;14044
1289372;14018
1289381;14054
1289389;14026
1289397;14006
1289405;14013
1289414;13943
1289423;13934
1289431;13804
1289441;13656
1289449;13769
1289458;13695
1289467;13758
1289475;13722
1289483;13887
1289491;13892
1289499;14068
1289508;14036
1289516;14068
1289524;13944
1289532;14006
1289540;13917
1289549;13905
1289557;13777
1289565;13712
1289573;13892
1289581;13819
1289590;11488
1289598;7855
1289606;5948
1289614;10568
1289622;16149
1289630;15872
1289639;15186
1289647;14612
1289655;14316
1289663;14061
1289671;13856
1289680;13702
1289688;13639
1289696;13488
1289704;13461
1289712;13305
1289721;13283
1289732;13177
1289740;13059
1289748;12934
1289756;12736
1289765;12573
1289773;12314
1289782;12139
1289790;11827
1289798;11645
1289807;11520
1289815;11556
1289823;11628
1289831;11809
1289839;12013
1289848;12361
1289856;12798
1289864;13227
1289872;13618
1289880;13938
1289889;14178
1289897;14301
1289905;14485
1289913;14481
1289921;14560
1289929;14493
1289938;14517
1289946;14401
1289954;14402
1289962;14273
1289970;14260
1289979;14087
1289987;14085
1289995;13961
1290003;14043
1290014;14090
1290023;14031
1290031;14001
1290039;13840
1290047;13736
1290055;13650
1290064;13604
1290072;13550
1290080;13594
1290088;13646
1290097;13688
1290106;13804
1290114;13864
1290122;13885
1290130;13793
1290138;13769
1290147;13679
1290155;13652
1290163;13543
1290171;13534
1290179;13482
1290188;13825
1290196;12053
1290204;8567
1290212;6251
1290220;8616
1290228;15541
1290237;16217
1290245;15482
1290253;14927
1290261;14408
1290269;14231
1290278;13870
1290286;13835
1290297;13722
1290305;13719
1290313;13621
1290322;13558
1290330;13405
1290338;13344
1290346;13198
1290354;13136
1290363;12934
1290371;12837
1290379;12604
1290387;12429
1290395;12106
1290404;11953
1290412;11796
1290421;11832
1290429;11857
1290437;12078
1290446;12142
1290454;12522
1290462;12826
1290470;13376
1290478;13690
1290487;14121
1290495;14256
1290503;14521
1290511;14500
1290519;14617
1290527;14507
1290536;14594
1290544;14437
1290552;14460
1290560;14284
1290568;14359
1290580;14231
1290588;14280
1290596;14171
1290604;14190
1290612;14069
1290621;14143
1290629;14114
1290637;14179
1290645;13994
1290653;13851
1290662;13684
1290670;13757
1290678;13671
1290686;13752
1290694;13703
1290703;13866
1290711;13815
1290719;14025
1290728;13967
1290736;14057
1290745;13950
1290753;14079
1290761;13934
1290769;14005
1290777;13853
1290786;13876
1290794;14019
1290802;14190
1290810;11821
1290818;7821
1290826;5008
1290835;9175
1290843;15302
1290851;15748
1290859;15071
1290871;14673
1290879;14335
1290887;14131
1290895;13917
1290903;13851
1290911;13629
1290920;13664
1290928;13502
1290936;13581
1290944;13369
1290952;13380
1290961;13157
1290969;13143
1290977;12913
1290985;12854
1290993;12465
1291002;12363
1291010;12063
1291018;12064
1291026;11842
1291034;12010
1291043;11910
1291051;12179
1291059;12347
1291068;12729
1291076;12922
1291085;13522
1291093;13785
1291101;14156
1291109;14194
1291117;14373
1291126;14308
1291134;14406
1291142;14239
1291153;14357
1291161;14255
1291170;14356
1291178;14246
1291186;14305
1291194;14126
1291202;14174
1291210;13962
1291219;14010
1291227;13858
1291235;14006
1291243;13926
1291251;14073
1291260;13945
1291268;14083
1291276;13823
1291284;13895
1291292;13698
1291301;13812
1291309;13679
1291317;13826
1291325;13697
1291333;13808
1291342;13808
1291350;14013
1291358;13893
1291366;13954
1291374;13745
1291384;13855
1291392;13739
1291400;13689
1291408;13386
1291416;13940
1291425;13402
1291435;8892
1291444;4371
1291452;4736
1291460;12313
1291469;15014
1291477;14630
1291485;14335
1291493;14106
1291501;13994
1291510;13666
1291518;13734
1291526;13533
1291534;13565
1291542;13356
1291550;13384
1291559;13154
1291567;13159
1291575;12856
1291583;12857
1291591;12637
1291600;12663
1291608;12466
1291616;12535
1291624;12394
1291632;12446
1291641;12330
1291649;12459
1291657;12473
1291665;12707
1291673;12769
1291682;13090
1291690;13346
1291698;13773
1291706;13925
1291717;14156
1291726;13995
1291734;14066
1291742;13804
1291750;13953
1291758;13942
1291767;14201
1291776;14135
1291784;14357
1291792;14241
1291800;14478
1291809;14374
1291817;14473
1291825;14234
1291833;14334
1291841;14185
1291849;14286
1291858;14148
1291866;14179
1291874;14020
1291882;14020
1291890;13947
1291899;13971
1291907;13777
1291915;13622
1291923;13454
1291931;13434
1291940;13381
1291948;13365
1291956;13297
1291964;13423
1291972;13545
1291981;13766
1291989;13823
1292000;13939
1292008;13845
1292016;13975
1292025;13854
1292033;13941
1292041;13743
1292049;14361
1292057;14114
1292066;10988
1292075;5744
1292083;3438
1292091;8789
1292099;15082
1292108;15374
1292116;14932
1292124;14591
1292132;14420
1292140;14070
1292148;14009
1292157;13896
1292165;13885
1292173;13788
1292181;13760
1292189;13700
1292198;13731
1292206;13749
1292214;13806
1292222;13825
1292230;13773
1292239;13644
1292247;13437
1292255;13255
1292263;12983
1292271;12804
1292280;12597
1292291;12549
1292299;12732
1292307;12737
1292315;13033
1292324;13226
1292332;13583
1292340;13796
1292348;14158
1292356;14261
1292365;14557
1292373;14679
1292381;14853
1292389;14841
1292398;14996
1292407;14970
1292415;14916
1292423;14717
1292431;14593
1292439;14384
1292447;14222
1292456;14072
1292464;13933
1292472;13844
1292480;13778
1292488;13806
1292497;13724
1292505;13796
1292513;13716
1292521;13789
1292529;13720
1292538;13876
1292546;13701
1292554;13708
1292562;13460
1292573;13508
1292582;13589
1292590;13515
1292598;13601
1292606;13520
1292614;13620
1292623;13694
1292631;13825
1292639;13828
1292647;13833
1292655;13878
1292664;13931
1292672;13919
1292680;13850
1292688;13820
1292696;13842
1292705;14433
1292714;12812
1292722;8625
1292730;4772
1292738;6441
1292746;14237
1292755;15722
1292763;14988
1292771;14417
1292779;14051
1292787;13889
1292796;13608
1292804;13692
1292812;13600
1292820;13835
1292828;13758
1292837;13923
1292845;13748
1292856;13788
1292864;13696
1292872;13549
1292881;13368
1292889;13115
1292897;12791
1292905;12481
1292913;12207
1292922;12099
1292930;11915
1292938;11900
1292946;11880
1292954;12035
1292963;12096
1292971;12531
1292979;12904
1292987;13489
1292995;13839
1293004;14328
1293012;14467
1293020;14632
1293028;14643
1293037;14887
1293046;14936
1293054;15118
1293062;14790
1293070;14823
1293078;14562
1293086;14407
1293095;13976
1293103;14183
1293111;13826
1293119;13887
1293127;13885
1293139;14706
1293147;14484
1293155;14154
1293163;13781
1293171;13651
1293180;12897
1293188;13920
1293196;14094
1293204;13822
1293212;13894
1293221;14211
1293229;14147
1293237;14491
1293245;14409
1293253;14397
1293262;13995
1293270;14005
1293278;13697
1293286;13606
1293294;13360
1293303;13366
1293311;13023
1293319;13267
1293327;13298
1293335;13558
1293345;11001
1293353;7169
1293361;4953
1293369;10512
1293377;15729
1293385;15745
1293394;15009
1293402;14789
1293410;14546
1293421;14525
1293430;14499
1293438;14580
1293446;14370
1293454;14391
1293462;14080
1293470;14122
1293479;13832
1293487;13793
1293495;13540
1293503;13459
1293511;13108
1293520;13129
1293528;12672
1293536;12566
1293544;12124
1293552;12116
1293561;11840
1293569;12082
1293577;11997
1293585;12245
1293593;12258
1293602;13005
1293610;13336
1293618;14019
1293626;14355
1293634;15009
1293642;15160
1293651;15599
1293659;15128
1293668;15587
1293676;15463
1293684;15460
1293693;14839
1293701;15018
1293711;14261
1293720;14349
1293729;14108
1293737;14417
1293745;14840
1293753;14831
1293761;14470
1293769;14516
1293778;14223
1293786;14443
1293794;13857
1293802;13678
1293810;13426
1293819;13728
1293827;13438
1293835;13645
1293843;13962
1293851;14455
1293860;14259
1293868;13953
1293876;13631
1293884;13770
1293892;13399
1293901;13289
1293909;12126
1293917;12649
1293925;13216
1293933;13515
1293942;12239
1293950;9645
1293958;6679
1293966;6487
1293974;11908
1293982;15538
1293994;15420
1294002;14637
1294010;13926
1294018;13972
1294026;12990
1294035;12879
1294044;12095
1294052;13252
1294060;12985
1294068;12528
1294077;11602
1294085;12149
1294093;12198
1294101;11961
1294109;11497
1294118;11672
1294126;11228
1294134;10914
1294142;10582
1294150;10514
1294159;10592
1294167;10295
1294175;10551
1294183;11064
1294191;11178
1294200;11431
1294208;11429
1294216;11389
1294224;12039
1294232;12945
1294241;12565
1294249;12274
1294257;11779
1294265;11253
1294276;10797
1294285;9720
1294293;7508
1294301;2649
1294309;37
1294317;4
1294326;6
1294334;7
1294342;4
1294350;4
1294358;3
1294366;6
1294375;7
1294383;2540
1294391;5579
1294399;8475
1294407;10185
1294416;10618
1294424;12209
1294432;13559
1294440;14212
1294448;15749
1294457;17040
1294465;18461
1294473;19162
1294482;19789
1294490;20434
1294499;21037
1294507;21086
1294515;21535
1294523;21370
1294531;21873
1294540;22971
1294548;22790
1294556;20514
1294564;16650
1294572;14581
1294584;22503
1294592;25047
1294600;24947
1294608;23750
1294616;23265
1294625;22911
1294633;22173
1294641;22024
1294649;22349
1294657;21824
1294665;21587
1294674;20878
1294682;20152
1294690;19566
1294698;18939
1294706;19087
1294715;18350
1294723;18087
1294731;17864
1294739;17174
1294747;16766
1294756;16168
1294764;15914
1294772;15631
1294780;15129
1294788;15012
1294797;15291
1294806;15190
1294814;15520
1294822;15780
1294830;15695
1294839;15695
1294847;14837
1294855;14769
1294866;16293
1294874;15798
1294883;16175
1294891;15985
1294899;15532
1294907;15073
1294915;15127
1294924;14850
1294932;14397
1294940;14154
1294948;14497
1294956;14501
1294964;14177
1294973;13926
1294981;13454
1294989;13737
1294997;13523
1295005;13430
1295014;13696
1295022;13442
1295030;12971
1295038;12641
1295046;12520
1295055;12498
1295063;12410
1295071;12408
1295079;11894
1295087;11865
1295096;11820
1295104;11319
1295112;11886
1295120;12097
1295129;11976
1295138;12086
1295148;12358
1295156;12650
1295164;12450
1295172;12292
1295181;9419
1295190;5110
1295198;3599
1295206;10151
1295214;14003
1295223;14450
1295231;14006
1295239;13455
1295247;13167
1295255;12987
1295263;13090
1295272;13142
1295280;12921
1295288;12749
1295296;12649
1295304;12455
1295313;12848
1295321;12859
1295329;12455
1295337;12403
1295345;12052
1295354;11871
1295362;10847
1295370;11349
1295378;11136
1295386;11404
1295395;11033
1295403;11182
1295411;11008
1295419;11302
1295427;11293
1295439;11725
1295447;12045
1295455;12416
1295463;13477
1295471;13357
1295480;13579
1295488;13664
1295496;13804
1295504;14120
1295513;13674
1295522;13740
1295530;14236
1295538;14280
1295546;13974
1295554;13884
1295562;14120
1295571;14321
1295579;13780
1295587;13282
1295595;13049
1295603;13701
1295612;13012
1295620;12946
1295628;13640
1295636;14626
1295644;14053
1295653;14011
1295661;13704
1295669;13567
1295677;12560
1295685;13860
1295694;14163
1295702;13011
1295710;12649
1295721;13440
1295729;11000
1295738;12656
1295746;14412
1295754;14797
1295762;14011
1295770;12903
1295779;10304
1295787;12762
1295795;10569
1295803;13320
1295812;16979
1295821;14675
1295829;10055
1295837;5914
1295845;6187
1295853;13474
1295862;15351
1295870;15618
1295878;15397
1295886;13840
1295894;13842
1295902;15787
1295911;15329
1295919;14563
1295927;14123
1295935;14344
1295943;13944
1295952;13406
1295960;13185
1295968;14249
1295976;14073
1295984;13254
1295993;12618
1296004;12443
1296012;13256
1296020;13037
1296028;12021
1296037;11983
1296045;11885
1296053;11713
1296061;10492
1296069;12416
1296078;12509
1296086;13274
1296094;13453
1296102;13766
1296110;13912
1296119;14512
1296127;14432
1296136;14802
1296144;14821
1296152;14560
1296161;14048
1296169;14865
1296177;15377
1296185;15280
1296193;14817
1296201;14832
1296210;14610
1296218;14791
1296226;14964
1296234;15321
1296242;15074
1296251;15568
1296259;15969
1296267;16034
1296275;15664
1296286;16031
1296295;16003
1296303;16075
1296311;16238
1296319;16854
1296327;16809
1296336;18113
1296344;18357
1296352;18539
1296360;18317
1296368;17749
1296377;18076
1296385;18985
1296393;20317
1296401;20615
1296409;20025
1296418;20083
1296426;19785
1296434;20968
1296442;20267
1296450;19726
1296460;19651
1296468;19634
1296476;17566
1296484;13177
1296492;8649
1296500;9409
1296509;15626
1296517;16109
1296525;14515
1296533;13549
1296541;13107
1296550;13106
1296558;13096
1296569;13397
1296577;13391
1296585;13930
1296594;14286
1296602;15202
1296610;15930
1296618;16487
1296626;16241
1296635;16323
1296643;15982
1296651;16028
1296659;15607
1296667;15187
1296676;13973
1296684;12681
1296692;11396
1296700;11051
1296708;10229
1296717;9780
1296725;8903
1296733;8379
1296741;7471
1296749;7111
1296758;6838
1296766;6879
1296774;6399
1296782;6637
1296790;6666
1296798;6658
1296807;6333
1296815;6249
1296824;6050
1296832;6068
1296840;6087
1296849;5827
1296857;5457
1296867;5760
1296875;6853
1296883;6860
1296892;7332
1296900;8140
1296908;8099
1296917;8409
1296925;8361
1296934;8022
1296942;8218
1296950;9364
1296958;8864
1296966;8703
1296975;8550
1296983;8839
1296991;8981
1296999;9360
1297007;9544
1297016;10016
1297024;10224
1297032;10460
1297040;10983
1297048;11462
1297057;12143
1297065;12525
1297073;12958
1297081;13041
1297089;13287
1297097;13811
1297106;12330
1297114;7777
1297122;5708
1297130;6457
1297138;14027
1297147;18056
1297166;16174
1297174;15146
1297182;14808
1297191;14691
1297199;14827
1297207;14407
1297215;14447
1297223;14440
1297232;15974
1297240;15850
1297248;15340
1297256;14815
1297264;14849
1297273;14064
1297281;13924
1297290;13895
1297298;13635
1297306;12832
1297315;12666
1297323;12788
1297331;12365
1297339;12073
1297347;11918
1297356;11914
1297364;12273
1297372;12640
1297380;12101
1297388;12424
1297396;13196
1297405;13417
1297413;13362
1297421;13204
1297429;13181
1297437;13628
1297449;14201
1297457;14406
1297465;15246
1297473;14932
1297481;15091
1297490;15605
1297498;15685
1297506;15247
1297514;15000
1297522;14922
1297531;14400
1297539;14422
1297547;14449
1297555;15546
1297563;15252
1297572;15252
1297580;15483
1297588;15593
1297596;15867
1297604;15486
1297614;16059
1297622;16860
1297630;16263
1297638;16104
1297646;16026
1297655;15325
1297663;16149
1297671;16274
1297679;14605
1297687;15399
1297695;16051
1297704;16100
1297712;16228
1297720;15116
1297731;9269
1297740;7558
1297748;9752
1297756;15916
1297764;17036
1297772;16880
1297780;15540
1297789;14341
1297797;14336
1297805;13803
1297813;13193
1297821;13585
1297830;13515
1297838;13920
1297846;13764
1297854;13544
1297862;13520
1297871;13314
1297879;12851
1297887;12578
1297895;12199
1297903;13264
1297912;12682
1297920;12290
1297928;12085
1297937;11958
1297945;12000
1297954;10922
1297962;10340
1297970;11375
1297978;9514
1297986;10006
1297994;12430
1298003;13797
1298011;14000
1298022;13708
1298030;13508
1298039;13729
1298047;14142
1298055;14328
1298063;14662
1298071;14883
1298079;15289
1298088;14070
1298096;14546
1298104;15108
1298112;15246
1298120;15575
1298129;14548
1298137;14622
1298145;14552
1298153;14771
1298161;14489
1298170;15207
1298178;15266
1298186;15974
1298194;15096
1298202;14293
1298211;13858
1298219;14014
1298227;13201
1298235;14216
1298243;13577
1298253;14476
1298261;14817
1298269;14363
1298277;14491
1298285;13841
1298294;13864
1298305;14493
1298313;14485
1298321;13303
1298329;13934
1298338;12970
1298346;15294
1298354;14820
1298362;10412
1298370;7147
1298378;5708
1298387;11436
1298395;14788
1298403;16122
1298411;15717
1298419;16396
1298428;16452
1298436;16020
1298444;15672
1298452;15388
1298460;15393
1298469;15159
1298477;15805
1298485;15467
1298493;15210
1298501;15539
1298510;15352
1298518;14688
1298526;14032
1298534;13649
1298542;12917
1298551;12566
1298559;12184
1298568;12226
1298576;12167
1298586;12603
1298595;12628
1298603;12751
1298611;13150
1298620;13893
1298628;14304
1298637;14760
1298645;14804
1298653;15016
1298661;14971
1298669;14970
1298678;14800
1298686;15272
1298694;15510
1298702;16160
1298710;16302
1298718;16927
1298727;16488
1298735;16532
1298743;15826
1298751;15209
1298759;15185
1298768;14929
1298776;14178
1298784;13732
1298792;13432
1298800;12516
1298809;12222
1298817;11910
1298825;10841
1298833;9681
1298841;9209
1298850;10067
1298858;11333
1298866;13370
1298877;14349
1298885;14755
1298894;14754
1298902;15510
1298910;16235
1298918;16627
1298926;17033
1298935;17126
1298944;17032
1298952;17390
1298960;18242
1298968;17535
1298977;13044
1298985;8546
1298993;9212
1299001;16895
1299009;19520
1299017;19339
1299026;18383
1299034;18955
1299042;18310
1299050;17064
1299058;15157
1299067;14746
1299075;14910
1299083;13767
1299091;11575
1299099;12512
1299108;11965
1299116;12402
1299124;12382
1299132;12038
1299140;10554
1299149;10753
1299160;11383
1299168;11516
1299176;12263
1299184;11492
1299193;10949
1299201;11689
1299209;11569
1299217;11640
1299225;12506
1299234;13150
1299242;12844
1299250;13186
1299259;14698
1299267;15030
1299276;15363
1299284;15020
1299292;16014
1299300;15914
1299308;14856
1299316;15153
1299325;14896
1299333;13577
1299341;12402
1299349;12056
1299357;10894
1299366;9905
1299374;10210
1299382;9917
1299390;9851
1299398;10693
1299407;11424
1299415;12066
1299423;12098
1299431;12702
1299442;12154
1299451;12914
1299459;13553
1299467;14306
1299475;14112
1299483;14468
1299492;15537
1299500;15479
1299508;13971
1299516;14806
1299524;15179
1299533;14757
1299541;13620
1299549;12322
1299557;11957
1299565;11831
1299574;11049
1299582;8911
1299590;4726
1299598;3877
1299607;10599
1299615;13894
1299624;12359
1299632;13087
1299640;13358
1299648;12914
1299656;12266
1299665;12110
1299673;11775
1299681;11784
1299689;11590
1299697;11402
1299706;11539
1299714;11482
1299725;11410
1299733;11346
1299741;10983
1299750;11137
1299758;10023
1299766;9504
1299774;9070
1299782;7651
1299791;9363
1299799;10299
1299807;9848
1299815;9937
1299823;10064
1299832;10743
1299840;11705
1299848;13199
1299856;13833
1299864;14895
1299873;14734
1299881;15736
1299889;15477
1299897;14759
1299905;14698
1299913;15097
1299922;14434
1299930;13882
1299938;12976
1299946;13213
1299955;11445
1299964;12557
1299972;12729
1299980;11716
1299988;11665
1299996;11959
1300005;12053
1300016;11466
1300024;11644
1300032;12928
1300040;13377
1300049;12830
1300057;13170
1300065;12642
1300073;12366
1300081;13179
1300090;12180
1300098;13294
1300106;13012
1300114;13065
1300122;13616
1300131;14381
1300139;13952
1300147;13464
1300155;12337
1300163;15066
1300172;15651
1300180;13947
1300188;13986
1300196;11325
1300204;7217
1300212;5761
1300221;12880
1300229;16816
1300237;15516
1300245;13167
1300253;14697
1300262;13687
1300271;12650
1300279;11956
1300287;11738
1300297;11716
1300306;11175
1300315;12827
1300323;13044
1300331;13090
1300339;13061
1300348;13688
1300356;13975
1300364;14462
1300372;14819
1300380;14927
1300389;14950
1300397;14931
1300405;14955
1300413;14867
1300421;14910
1300430;14931
1300438;15067
1300446;15212
1300454;15482
1300462;15744
1300471;16016
1300479;15897
1300487;15888
1300495;15540
1300503;15131
1300511;14159
1300520;13575
1300528;11644
1300536;11266
1300544;12585
1300552;12184
1300561;11562
1300569;11276
1300580;11338
1300588;11646
1300596;11614
1300605;10970
1300613;11809
1300621;11436
1300630;11227
1300638;13427
1300647;13483
1300655;13809
1300663;14721
1300671;15765
1300679;15631
1300688;17245
1300696;16836
1300704;19147
1300712;19786
1300720;19098
1300729;18725
1300737;18217
1300745;17194
1300753;16270
1300761;14824
1300770;14561
1300778;12508
1300786;10254
1300794;6148
1300802;3222
1300810;6511
1300819;13830
1300827;14249
1300835;13839
1300843;13371
1300851;13280
1300860;11986
1300871;13994
1300879;14159
1300887;14121
1300895;13900
1300904;13720
1300912;13528
1300920;13441
1300928;13136
1300936;13850
1300945;14018
1300954;13559
1300962;13166
1300970;12931
1300978;12275
1300987;12691
1300995;12677
1301003;12505
1301011;12249
1301019;11947
1301028;12199
1301036;12708
1301044;13420
1301052;14224
1301060;14752
1301069;15961
1301077;16447
1301085;16583
1301093;16335
1301101;16588
1301110;15694
1301118;16004
1301126;16358
1301134;15623
1301142;14695
1301154;14295
1301162;13985
1301170;13837
1301178;13452
1301186;13652
1301194;13414
1301203;12980
1301211;13377
1301219;13423
1301227;14091
1301235;13999
1301244;13393
1301252;13105
1301260;13141
1301268;13187
1301277;12612
1301286;12433
1301294;13304
1301302;13618
1301310;13299
1301318;14327
1301327;14199
1301335;13779
1301343;14057
1301351;13750
1301359;13477
1301368;14759
1301376;13882
1301384;10043
1301392;5422
1301400;5301
1301409;13537
1301417;16719
1301425;15862
1301436;14824
1301444;14475
1301453;14042
1301461;14447
1301469;15268
1301477;15030
1301485;15122
1301494;14214
1301502;14455
1301510;15048
1301518;15124
1301526;14421
1301534;13817
1301543;13974
1301551;14470
1301559;14076
1301567;13389
1301575;12527
1301584;12549
1301592;12532
1301600;12253
1301609;12145
1301617;12600
1301626;13151
1301634;13167
1301642;12928
1301650;12699
1301658;13101
1301667;12422
1301675;12998
1301683;13476
1301691;13142
1301699;13789
1301708;13103
1301719;13803
1301727;13610
1301735;12571
1301743;11335
1301752;12524
1301760;13902
1301768;13334
1301776;13007
1301784;13322
1301793;12530
1301801;13235
1301809;13122
1301817;12899
1301825;13913
1301833;14650
1301842;13659
1301850;13872
1301858;13592
1301866;14585
1301874;14386
1301883;13571
1301891;13564
1301899;14400
1301907;13963
1301915;14323
1301925;15573
1301933;15544
1301941;15178
1301949;16336
1301957;17564
1301966;17749
1301974;17210
1301982;17139
1301990;18356
1302001;14398
1302010;10656
1302018;6971
1302026;11247
1302034;17324
1302042;18969
1302051;17325
1302059;15473
1302067;15833
1302075;15266
1302083;14506
1302092;15049
1302100;15990
1302108;15528
1302116;15305
1302124;13931
1302132;13080
1302141;12694
1302149;13450
1302157;13471
1302165;12806
1302173;12688
1302182;12958
1302190;12599
1302198;11975
1302206;11837
1302214;11559
1302223;12099
1302231;12910
1302240;12159
1302248;11712
1302256;11402
1302265;12900
1302273;14236
1302281;13274
1302292;13908
1302300;14108
1302309;14359
1302317;13459
1302325;12158
1302333;13491
1302341;12658
1302350;12639
1302358;12463
1302366;12772
1302374;13048
1302382;13363
1302391;13633
1302399;13036
1302407;11460
1302415;13119
1302423;12975
1302431;12892
1302440;13690
1302448;14062
1302456;14398
1302464;13736
1302472;13280
1302481;13974
1302489;13257
1302497;12694
1302505;12762
1302513;12678
1302522;12319
1302530;12526
1302538;12598
1302546;12389
1302555;12460
1302564;13096
1302574;12903
1302582;11743
1302590;11033
1302598;11247
1302608;11902
1302616;11513
1302624;7408
1302632;2689
1302640;1605
1302649;9441
1302657;12682
1302665;12622
1302673;12015
1302681;11502
1302690;10749
1302698;10675
1302706;9921
1302714;9014
1302722;7894
1302730;7687
1302739;8066
1302747;8845
1302755;9446
1302763;10145
1302771;10690
1302780;11360
1302788;11725
1302796;12970
1302804;13207
1302812;13166
1302821;13128
1302829;13103
1302837;13425
1302845;13574
1302853;13620
1302893;16591
1302902;16939
1302910;16868
1302919;16856
1302927;16487
1302935;16538
1302943;16165
1302952;15795
1302960;15636
1302968;15753
1302976;15846
1302984;16431
1302993;16426
1303001;16670
1303009;16451
1303017;16454
1303025;16050
1303034;15970
1303042;15430
1303050;15546
1303058;15237
1303066;15421
1303075;15094
1303083;15083
1303091;15464
1303099;15449
1303107;15456
1303116;15516
1303124;15083
1303132;14995
1303140;14782
1303148;14902
1303156;14837
1303165;14890
1303176;14700
1303184;15001
1303192;14954
1303201;14872
1303209;14548
1303217;15140
1303226;14800
1303234;12343
1303242;8065
1303251;6048
1303259;11958
1303267;16380
1303275;15714
1303283;14793
1303292;13986
1303300;13791
1303308;13357
1303316;13111
1303324;12647
1303333;12571
1303341;12228
1303349;12469
1303357;12109
1303365;12019
1303374;11953
1303382;11989
1303390;11714
1303398;11701
1303406;11470
1303415;11509
1303423;11083
1303431;10906
1303439;10547
1303447;10675
1303459;10932
1303467;11443
1303475;11523
1303483;12149
1303491;12357
1303500;12750
1303508;13129
1303516;13888
1303524;14186
1303532;14195
1303542;14236
1303550;14480
1303558;14700
1303566;14601
1303574;14711
1303582;14317
1303591;13982
1303599;13829
1303607;13992
1303615;14514
1303623;13816
1303632;14167
1303640;14202
1303648;14370
1303656;13542
1303664;13641
1303673;13606
1303681;14046
1303689;13971
1303697;13721
1303705;13654
1303714;13965
1303722;13647
1303730;14359
1303741;14037
1303749;14017
1303758;14249
1303766;14010
1303774;13883
1303782;13975
1303790;14084
1303799;14418
1303807;14459
1303815;13073
1303823;9970
1303831;7981
1303839;9964
1303848;16545
1303856;17149
1303865;16737
1303873;15071
1303881;15241
1303890;15161
1303898;14848
1303906;14683
1303914;15342
1303922;15888
1303931;14166
1303939;13724
1303947;13403
1303955;13028
1303963;13999
1303972;14072
1303980;13694
1303988;12930
1303996;12811
1304004;13120
1304013;13394
1304024;12960
1304032;13636
1304040;14468
1304048;15941
1304057;14955
1304065;12829
1304073;13719
1304081;15713
1304089;15795
1304098;15765
1304106;16751
1304114;18054
1304122;16214
1304130;17162
1304138;14990
1304147;14919
1304155;16356
1304163;16562
1304171;15350
1304179;14781
1304189;15075
1304197;15093
1304205;15302
1304213;15516
1304221;14677
1304230;14513
1304238;15228
1304246;14404
1304254;14227
1304262;14407
1304271;14397
1304279;14255
1304287;13806
1304295;13620
1304303;13655
1304315;13728
1304323;13276
1304331;13289
1304339;13228
1304347;13333
1304356;13091
1304364;13036
1304372;12884
1304380;13241
1304388;12679
1304397;10408
1304405;7581
1304413;6022
1304421;10398
1304429;14321
1304438;14074
1304446;13501
1304454;13065
1304462;12948
1304470;12770
1304478;12685
1304487;12665
1304495;12681
1304503;12675
1304511;12605
1304520;12548
1304529;12276
1304537;12007
1304545;11731
1304553;11658
1304561;11470
1304570;11366
1304578;11135
1304586;10967
1304597;10720
1304605;10484
1304614;10462
1304622;10370
1304630;10418
1304638;10441
1304646;10632
1304655;10862
1304663;11212
1304671;11500
1304679;11779
1304687;12006
1304696;12242
1304704;12436
1304712;12417
1304720;12434
1304728;12294
1304737;12383
1304745;12577
1304753;12663
1304761;12692
1304769;12886
1304777;12802
1304786;13097
1304794;13227
1304802;13401
1304810;13320
1304818;13332
1304827;13259
1304835;13411
1304844;13318
1304852;13464
1304860;13350
1304869;13566
1304879;13713
1304887;13912
1304896;14033
1304904;14139
1304913;14149
1304921;14227
1304929;14221
1304937;14278
1304945;14103
1304954;14095
1304962;14450
1304970;13206
1304978;9818
1304986;7196
1304995;7530
1305003;14644
1305011;15964
1305019;15626
1305027;14881
1305036;14820
1305044;14474
1305052;14464
1305060;14146
1305068;14156
1305076;13846
1305085;13902
1305093;13583
1305101;13553
1305109;13165
1305117;13137
1305126;12734
1305134;12714
1305142;12345
1305150;12338
1305161;11956
1305170;11836
1305178;11547
1305186;11563
1305194;11486
1305202;11664
1305212;11723
1305220;12014
1305228;12207
1305236;12682
1305244;12910
1305253;13346
1305261;13460
1305269;13788
1305277;13813
1305285;14011
1305294;13953
1305302;14140
1305310;13987
1305318;14074
1305326;13881
1305335;13936
1305343;13732
1305351;13852
1305359;13690
1305367;13875
1305375;13745
1305384;13942
1305392;13877
1305400;13961
1305408;13731
1305416;13882
1305425;13683
1305433;13854
1305444;13875
1305452;14108
1305460;14144
1305469;14354
1305477;14300
1305485;14454
1305493;14347
1305501;14500
1305510;14321
1305519;14351
1305527;14109
1305535;14654
1305543;13902
1305552;11477
1305560;8099
1305568;6868
1305576;12490
1305584;16444
1305593;16000
1305601;15500
1305609;15027
1305617;14984
1305625;14572
1305634;14621
1305642;14382
1305650;14464
1305658;14228
1305666;14277
1305674;13955
1305683;13947
1305691;13627
1305699;13578
1305707;13285
1305715;13275
1305724;12955
1305735;12829
1305743;12491
1305751;12385
1305759;12156
1305768;12265
1305776;12215
1305784;12435
1305792;12518
1305800;12916
1305809;13128
1305817;13582
1305825;13841
1305833;14302
1305841;14450
1305851;14723
1305859;14679
1305867;14865
1305875;14721
1305883;14814
1305892;14625
1305900;14717
1305908;14568
1305916;14638
1305924;14477
1305933;14565
1305941;14391
1305949;14532
1305957;14427
1305965;14542
1305974;14456
1305982;14449
1305990;14218
1305998;14245
1306006;14147
1306018;14323
1306026;14430
1306034;14476
1306042;14233
1306050;14380
1306058;14313
1306067;14494
1306075;14390
1306083;14502
1306091;14308
1306099;14306
1306108;14008
1306116;14564
1306124;13445
1306132;10552
1306140;7017
1306149;6214
1306157;12756
1306165;15767
1306174;15216
1306182;14727
1306191;14269
1306199;14226
1306207;13829
1306215;13874
1306223;13706
1306232;13721
1306240;13568
1306248;13610
1306256;13402
1306264;13462
1306273;13236
1306281;13200
1306289;12966
1306300;12940
1306308;12624
1306317;12594
1306325;12176
1306333;12128
1306341;11809
1306349;11948
1306358;11878
1306366;12180
1306374;12301
1306382;12777
1306390;13009
1306398;13544
1306407;13802
1306415;14246
1306423;14364
1306431;14633
1306439;14623
1306448;14833
1306456;14725
1306464;14763
1306472;14567
1306480;14544
1306489;14297
1306497;14263
1306505;14036
1306514;13982
1306522;13784
1306531;13823
1306539;13741
1306547;13775
1306555;13627
1306563;13626
1306572;13457
1306583;13461
1306591;13301
1306599;13364
1306607;13151
1306616;13276
1306624;13135
1306632;13358
1306640;13341
1306648;13573
1306657;13498
1306665;13659
1306673;13551
1306681;13667
1306689;13496
1306697;13628
1306706;13920
1306714;12540
1306722;8944
1306730;5787
1306738;6749
1306747;14000
1306755;15217
1306763;14845
1306771;14255
1306779;14101
1306788;13739
1306796;13577
1306804;13409
1306812;13345
1306820;13261
1306830;13228
1306838;13210
1306846;13195
1306854;13171
1306862;13110
1306873;13067
1306882;13121
1306890;12925
1306898;12856
1306906;12540
1306915;12457
1306923;12265
1306931;12425
1306939;12483
1306947;12744
1306956;12845
1306964;13151
1306972;13334
1306980;13714
1306988;13965
1306996;14221
1307005;14359
1307013;14558
1307021;14582
1307029;14599
1307037;14588
1307046;14563
1307054;14533
1307062;14529
1307070;14476
1307078;14417
1307087;14413
1307095;14349
1307103;14365
1307111;14173
1307119;14322
1307128;14220
1307136;14304
1307145;14094
1307155;14109
1307163;14048
1307172;13905
1307180;13850
1307188;13790
1307197;13894
1307205;14056
1307214;14155
1307222;14214
1307230;14339
1307238;14455
1307246;14428
1307255;14429
1307263;14409
1307271;14445
1307279;14305
1307287;14347
1307295;14863
1307304;13669
1307312;10301
1307320;7139
1307328;7738
1307336;14656
1307345;15858
1307353;15320
1307361;14566
1307369;14478
1307377;14210
1307386;14157
1307394;13914
1307402;13971
1307410;13801
1307418;13887
1307427;13660
1307438;13752
1307446;13686
1307454;13465
1307462;13267
1307471;13118
1307479;12919
1307487;12714
1307495;12437
1307503;12311
1307513;12127
1307521;12106
1307529;11962
1307537;12054
1307545;12022
1307554;12242
1307562;12421
1307570;12886
1307578;13168
1307586;13654
1307594;13751
1307603;14111
1307611;14163
1307619;14438
1307627;14246
1307635;14453
1307644;14303
1307652;14434
1307660;14190
1307668;14309
1307676;14076
1307685;14202
1307693;13921
1307701;14118
1307709;13906
1307720;14061
1307729;13995
1307737;14014
1307745;13838
1307753;13797
1307761;13550
1307770;13522
1307778;13292
1307786;13308
1307794;13203
1307802;13350
1307811;13237
1307820;13445
1307828;13365
1307836;13559
1307844;13395
1307853;13585
1307861;13402
1307869;13471
1307877;13224
1307885;13638
1307894;13405
1307902;11539
1307910;7839
1307918;5752
1307926;9272
1307934;15010
1307943;15019
1307951;14641
1307959;14140
1307967;14093
1307975;13597
1307984;13665
1307992;13478
1308003;13582
1308011;13470
1308019;13590
1308028;13357
1308036;13481
1308044;13230
1308052;13272
1308060;13041
1308069;13243
1308077;12999
1308085;13060
1308093;12729
1308101;12755
1308110;12438
1308118;12571
1308126;12599
1308134;13003
1308142;12963
1308152;13330
1308160;13494
1308168;14060
1308176;14244
1308184;14628
1308193;14646
1308201;14895
1308209;14695
1308217;14890
1308225;14676
1308233;14830
1308242;14617
1308250;14757
1308258;14487
1308266;14673
1308274;14476
1308283;14613
1308294;14480
1308302;14687
1308310;14481
1308318;14604
1308327;14369
1308335;14548
1308343;14304
1308351;14425
1308359;14173
1308368;14264
1308376;14024
1308384;14156
1308392;13763
1308400;13804
1308409;13516
1308417;13693
1308425;13560
1308433;13744
1308441;13577
1308450;13857
1308458;13752
1308466;13965
1308475;13713
1308483;13811
1308492;13598
1308500;13694
1308508;13505
1308516;13522
1308524;13551
1308532;13698
1308541;11658
1308549;8181
1308557;5875
1308565;9570
1308577;15495
1308585;15528
1308593;14630
1308601;14462
1308609;14097
1308617;13993
1308626;13739
1308634;13892
1308642;13642
1308650;13681
1308658;13525
1308667;13660
1308675;13387
1308683;13500
1308691;13306
1308699;13341
1308708;13001
1308716;13001
1308724;12704
1308732;12614
1308740;12287
1308749;12240
1308757;12125
1308765;12296
1308773;12203
1308781;12420
1308790;12521
1308798;12787
1308807;13056
1308815;13590
1308823;13810
1308831;14057
1308840;14162
1308848;14326
1308859;14327
1308867;14504
1308876;14266
1308884;14484
1308892;14185
1308900;14332
1308908;14079
1308916;14174
1308925;13973
1308933;14127
1308941;13877
1308949;14021
1308957;13913
1308966;13969
1308974;13755
1308982;13831
1308990;13684
1308998;13738
1309007;13540
1309015;13634
1309023;13522
1309031;13613
1309039;13413
1309048;13347
1309056;13132
1309064;13083
1309072;13024
1309080;12978
1309089;12926
1309097;13014
1309106;13008
1309114;13106
1309122;13138
1309130;13165
1309141;13177
1309149;13369
1309158;13184
1309166;13298
1309175;13101
1309183;13827
1309191;13176
1309199;10495
1309207;6788
1309215;5827
1309224;11826
1309232;15398
1309240;15047
1309248;14445
1309256;14100
1309265;13956
1309273;13636
1309281;13609
1309289;13428
1309297;13383
1309306;13214
1309314;13267
1309322;13128
1309330;13110
1309338;12992
1309347;12914
1309355;12738
1309363;12663
1309371;12511
1309379;12380
1309388;12192
1309396;11968
1309404;11938
1309412;11818
1309423;11869
1309432;12175
1309440;12131
1309448;12489
1309456;12672
1309464;13197
1309473;13450
1309482;13979
1309490;14137
1309498;14319
1309506;14335
1309514;14347
1309523;14281
1309531;14362
1309539;14255
1309547;14280
1309555;14236
1309564;14244
1309572;14220
1309580;14174
1309588;14094
1309596;14081
1309605;14069
1309613;14035
1309621;13997
1309629;13999
1309637;14001
1309646;13987
1309654;13980
1309662;13908
1309670;13945
1309678;13904
1309687;14017
1309695;13948
1309703;13984
1309714;13826
1309722;13753
1309731;13810
1309739;13712
1309747;13791
1309755;13836
1309763;13958
1309772;14033
1309780;14170
1309789;14128
1309797;14147
1309805;14106
1309814;14131
1309822;14102
1309830;14072
1309838;14503
1309846;14118
1309854;11705
1309863;8205
1309871;7028
1309879;12442
1309887;16471
1309895;16088
1309904;15468
1309912;14935
1309920;14753
1309928;14330
1309936;14352
1309945;14093
1309953;14158
1309961;13896
1309969;13958
1309977;13817
1309986;13784
1309997;13635
1310005;13580
1310013;13474
1310021;13299
1310030;13159
1310038;12914
1310046;12708
1310054;12557
1310062;12366
1310071;12327
1310079;12278
1310087;12449
1310095;12562
1310103;12857
1310113;13034
1310121;13440
1310129;13808
1310137;14312
1310145;14322
1310153;14525
1310162;14611
1310170;14802
1310178;14640
1310186;14988
1310194;14601
1310203;14459
1310211;14329
1310219;14439
1310227;14241
1310235;14319
1310244;14206
1310252;14292
1310260;14229
1310268;14305
1310279;14308
1310288;14681
1310296;14939
1310304;15194
1310312;15142
1310320;15345
1310329;15382
1310337;15368
1310345;15313
1310353;15356
1310361;15176
1310370;15034
1310378;14867
1310386;15015
1310394;14900
1310402;14894
1310410;14670
1310419;14808
1310427;14737
1310435;14998
1310444;14834
1310452;14936
1310461;14730
1310469;14773
1310477;14515
1310485;14672
1310493;14333
1310502;14967
1310510;13769
1310518;10774
1310526;7474
1310534;8098
1310543;14594
1310551;16466
1310562;15586
1310570;15127
1310578;14741
1310587;14566
1310595;14253
1310603;14217
1310611;14048
1310619;14085
1310628;13840
1310636;13859
1310644;13570
1310652;13449
1310660;13105
1310669;13163
1310677;12919
1310685;13036
1310693;13069
1310701;12949
1310710;12513
1310718;12549
1310726;12349
1310734;12572
1310742;12418
1310750;12745
1310759;12659
1310768;12938
1310776;13067
1310784;13899
1310792;14241
1310801;15249
1310809;15089
1310817;14384
1310825;14554
1310833;15194
1310845;14783
1310853;14510
1310861;14667
1310869;15259
1310877;14903
1310886;14416
1310894;14223
1310902;14807
1310910;15271
1310918;15805
1310927;15481
1310935;15557
1310943;16109
1310951;17158
1310959;17530
1310968;18201
1310976;18416
1310984;18818
1310992;18585
1311000;18725
1311009;18796
1311017;18668
1311025;17998
1311033;17868
1311041;17066
1311049;17262
1311058;16454
1311066;16401
1311074;16201
1311082;16276
1311091;15707
1311100;15648
1311108;15801
1311116;15695
1311124;15455
1311134;15325
1311143;14953
1311152;14884
1311160;15227
1311168;14982
1311176;11840
1311185;9067
1311193;8241
1311201;13713
1311209;16271
1311217;15988
1311226;15136
1311234;14752
1311242;14347
1311250;14097
1311258;13594
1311267;13722
1311275;13309
1311283;13307
1311291;13000
1311299;13082
1311308;12817
1311316;12786
1311324;12371
1311332;12266
1311340;11906
1311348;11762
1311357;11255
1311365;11059
1311373;10458
1311381;10222
1311389;9893
1311398;10083
1311406;10052
1311417;10390
1311425;10418
1311433;10853
1311442;10996
1311450;11442
1311458;11485
1311466;11836
1311475;11865
1311484;12102
1311492;12042
1311500;12336
1311508;12348
1311516;12447
1311525;12301
1311533;12557
1311541;12331
1311549;12436
1311557;12251
1311566;12370
1311574;12255
1311582;12409
1311590;12293
1311598;12446
1311607;12334
1311615;12429
1311623;12308
1311631;12507
1311639;12403
1311647;12527
1311656;12516
1311664;12614
1311672;12527
1311680;12473
1311688;12282
1311700;12295
1311708;12063
1311716;12132
1311724;11835
1311732;11901
1311741;11634
1311749;11732
1311757;11499
1311765;11473
1311773;11150
1311783;11182
1311791;10941
1311799;11019
1311807;10762
1311815;11273
1311824;11212
1311832;8369
1311840;4121
1311848;3189
1311856;8763
1311865;13608
1311873;13438
1311881;12906
1311889;12481
1311897;12371
1311906;12109
1311914;12028
1311922;11901
1311930;11900
1311938;11829
1311946;11795
1311955;11715
1311963;11671
1311971;11622
1311982;11699
1311991;11552
1311999;11604
1312007;11322
1312015;11325
1312023;10995
1312031;10964
1312040;10787
1312048;10920
1312056;10920
1312064;11197
1312072;11206
1312081;11516
1312089;11645
1312097;12031
1312105;12243
1312114;12626
1312123;12819
1312131;13120
1312139;13137
1312147;13228
1312155;13157
1312164;13175
1312172;13049
1312180;13072
1312188;12982
1312196;12942
1312205;12860
1312213;12826
1312221;12782
1312229;12770
1312237;12780
1312246;12785
1312254;12840
1312262;12784
1312273;12852
1312281;13079
1312290;13030
1312298;13206
1312306;13128
1312314;13226
1312322;13096
1312330;13144
1312339;13050
1312347;13176
1312355;13179
1312363;13331
1312371;13433
1312380;13706
1312388;13840
1312396;13975
1312404;14003
1312412;14046
1312421;14050
1312429;13994
1312437;13880
1312446;13838
1312454;14349
1312463;13121
1312471;9753
1312479;6530
1312487;7486
1312495;14846
1312504;16153
1312512;15469
1312520;14911
1312528;14569
1312536;14554
1312545;14233
1312556;14259
1312564;14322
1312572;14229
1312580;14215
1312589;14130
1312597;14088
1312605;14006
1312613;13937
1312621;13825
1312630;13725
1312638;13630
1312646;13480
1312654;13268
1312662;13028
1312670;12840
1312679;12702
1312687;12695
1312695;12689
1312703;12863
1312711;12919
1312720;13145
1312728;13363
1312736;13826
1312744;14086
1312752;14563
1312761;14655
1312770;14896
1312778;14902
1312786;15185
1312794;15089
1312803;15208
1312811;15058
1312819;15199
1312827;15029
1312838;15104
1312847;15052
1312855;15012
1312863;14924
1312871;14873
1312879;14787
1312888;14826
1312896;14817
1312904;14911
1312912;14867
1312920;14881
1312929;14762
1312937;14737
1312945;14543
1312953;14588
1312961;14421
1312969;14523
1312978;14450
1312986;14592
1312994;14518
1313002;14747
1313010;14641
1313019;14750
1313027;14620
1313035;14762
1313043;14542
1313051;14635
1313060;14394
1313068;14816
1313076;14331
1313085;12136
1313093;8677
1313102;7491
1313110;12393
1313120;17079
1313129;16326
1313137;15680
1313146;14989
1313154;14808
1313162;14413
1313170;14283
1313178;14009
1313187;14057
1313195;13827
1313203;13830
1313211;13652
1313219;13835
1313228;13658
1313236;13753
1313244;13529
1313252;13569
1313260;13262
1313268;13247
1313277;12878
1313285;12815
1313293;12452
1313301;12578
1313309;12400
1313318;12640
1313326;12581
1313334;12943
1313342;12985
1313350;13484
1313359;13671
1313367;14177
1313375;14209
1313383;14553
1313392;14475
1313403;14777
1313411;14716
1313419;14784
1313427;14584
1313435;14647
1313444;14441
1313453;14533
1313461;14313
1313469;14383
1313477;14187
1313486;14285
1313494;14023
1313502;14138
1313510;13944
1313518;14149
1313527;13950
1313535;14111
1313543;13807
1313551;13855
1313559;13591
1313567;13742
1313576;13535
1313584;13756
1313592;13615
1313600;13862
1313608;13798
1313617;14026
1313625;13801
1313633;13956
1313641;13739
1313649;13861
1313658;13651
1313666;13771
1313674;13729
1313682;13867
1313693;10630
1313702;7702
1313710;6549
1313718;13076
1313726;16075
1313734;15750
1313743;14932
1313751;14638
1313759;14213
1313767;14088
1313776;13707
1313785;13785
1313793;13510
1313801;13604
1313809;13295
1313817;13378
1313826;13091
1313834;13185
1313842;12883
1313850;12965
1313858;12630
1313866;12649
1313875;12237
1313883;12133
1313891;11738
1313899;11757
1313907;11504
1313916;11670
1313924;11572
1313932;11833
1313940;11951
1313948;12418
1313957;12657
1313965;13167
1313976;13515
1313984;13974
1313992;13856
1314001;14142
1314009;14008
1314017;14164
1314025;13913
1314033;14094
1314042;13869
1314050;13998
1314058;13713
1314066;13804
1314074;13614
1314083;13765
1314092;13542
1314100;13680
1314108;13485
1314116;13639
1314125;13479
1314133;13642
1314141;13445
1314149;13566
1314157;13338
1314166;13405
1314174;13255
1314182;13360
1314190;13230
1314198;13396
1314206;13326
1314215;13530
1314223;13505
1314231;13616
1314239;13527
1314247;13588
1314259;13496
1314267;13710
1314275;13477
1314283;13794
1314291;13775
1314300;12192
1314308;8375
1314316;5601
1314324;8336
1314332;14986
1314341;15290
1314349;14892
1314357;14221
1314365;14191
1314373;13788
1314382;13723
1314390;13490
1314398;13559
1314406;13359
1314414;13398
1314424;13210
1314432;13216
1314440;13062
1314448;13045
1314456;12865
1314465;12791
1314473;12593
1314481;12510
1314489;12266
1314497;12094
1314505;11879
1314514;11771
1314522;11729
1314530;11830
1314541;12029
1314550;12470
1314558;12591
1314566;13137
1314574;13365
1314582;13856
1314590;13937
1314599;14230
1314607;14195
1314615;14342
1314623;14207
1314631;14304
1314640;14139
1314648;14148
1314656;13986
1314664;14057
1314672;13938
1314681;13926
1314689;13813
1314697;13835
1314705;13751
1314713;13780
1314722;13771
1314730;13869
1314738;13854
1314747;13868
1314755;13817
1314764;13758
1314772;13624
1314780;13516
1314788;13492
1314796;13446
1314804;13480
1314813;13477
1314824;13575
1314832;13818
1314840;13728
1314849;13860
1314857;13739
1314865;13851
1314873;13723
1314881;13775
1314889;13650
1314898;13673
1314906;14204
1314914;13461
1314922;10239
1314930;6147
1314939;5332
1314947;12400
1314955;15415
1314963;15217
1314971;14688
1314980;14485
1314988;14219
1314996;13930
1315004;13836
1315012;13722
1315021;13702
1315029;13559
1315037;13567
1315045;13432
1315053;13415
1315062;13235
1315070;13217
1315079;13033
1315087;12976
1315095;12701
1315103;12618
1315114;12332
1315122;12123
1315131;12005
1315139;11866
1315148;11939
1315156;12022
1315164;12231
1315172;12423
1315180;12791
1315188;13142
1315197;13527
1315205;13853
1315213;14080
1315221;14210
1315229;14277
1315238;14343
1315246;14244
1315254;14280
1315262;14209
1315270;14238
1315279;14130
1315287;14182
1315295;14067
1315303;14103
1315311;13992
1315320;14097
1315328;14029
1315336;14151
1315344;14038
1315352;14150
1315361;14032
1315369;14162
1315377;14031
1315385;14134
1315405;14112
1315413;14001
1315421;13871
1315429;13821
1315437;13798
1315447;13743
1315455;13728
1315463;13747
1315471;13892
1315479;13827
1315487;13878
1315496;13830
1315504;13864
1315512;13774
1315520;13798
1315528;13571
1315537;14130
1315545;13785
1315553;11280
1315561;6934
1315569;4940
1315578;10197
1315586;15359
1315594;15365
1315602;14972
1315610;14519
1315619;14448
1315627;14037
1315635;14084
1315643;13843
1315651;13903
1315660;13611
1315668;13698
1315676;13475
1315687;13520
1315695;13422
1315704;13324
1315712;13079
1315720;13000
1315728;12794
1315736;12691
1315745;12396
1315753;12337
1315761;12061
1315770;12083
1315778;12015
1315786;12222
1315795;12225
1315803;12531
1315811;12684
1315819;13220
1315827;13446
1315836;13906
1315844;13987
1315852;14316
1315860;14231
1315868;14404
1315877;14210
1315885;14357
1315893;14140
1315901;14262
1315909;14044
1315918;14153
1315926;13898
1315934;14057
1315942;13844
1315950;13978
1315959;13759
1315970;13950
1315978;13861
1315986;13941
1315994;13854
1316003;13976
1316011;13862
1316019;14015
1316027;13855
1316035;13989
1316044;13805
1316052;13784
1316060;13480
1316068;13595
1316077;13481
1316086;13664
1316094;13528
1316102;13706
1316110;13547
1316118;13814
1316126;13709
1316135;13897
1316143;13680
1316151;13839
1316159;13624
1316167;13740
1316176;13531
1316184;13731
1316192;14149
1316200;13038
1316208;9184
1316217;5639
1316225;6309
1316233;13909
1316241;15480
1316249;15225
1316261;14479
1316269;14482
1316277;14027
1316285;14025
1316293;13753
1316302;13832
1316310;13597
1316318;13702
1316326;13432
1316334;13511
1316343;13281
1316351;13320
1316359;12993
1316367;13036
1316375;12694
1316383;12655
1316392;12226
1316400;12194
1316408;11763
1316417;11770
1316425;11504
1316434;11729
1316442;11631
1316450;11956
1316458;12005
1316466;12537
1316475;12720
1316483;13226
1316491;13342
1316499;13674
1316507;13628
1316516;13857
1316524;13716
1316532;13897
1316543;13788
1316551;13958
1316560;13705
1316568;13832
1316576;13586
1316584;13697
1316592;13446
1316601;13572
1316609;13342
1316617;13495
1316625;13278
1316633;13473
1316642;13257
1316650;13438
1316658;13243
1316666;13377
1316674;13150
1316682;13284
1316691;13102
1316699;13264
1316707;13003
1316715;12990
1316723;12614
1316733;12679
1316741;12535
1316749;12643
1316757;12462
1316765;12539
1316774;12400
1316782;12633
1316790;12587
1316798;12695
1316806;12511
1316815;12564
1316826;12422
1316834;12619
1316842;12354
1316850;12705
1316859;12863
1316867;11210
1316875;7122
1316883;4293
1316891;7020
1316900;13914
1316908;14394
1316916;13965
1316924;13361
1316932;13341
1316941;12955
1316949;12996
1316957;12788
1316965;12927
1316973;12715
1316982;12797
1316990;12648
1316998;12784
1317006;12620
1317014;12683
1317022;12542
1317031;12600
1317039;12391
1317047;12354
1317055;12126
1317064;12057
1317073;11862
1317081;11878
1317089;11883
1317097;12017
1317107;12123
1317117;12481
1317125;12529
1317133;13071
1317141;13327
1317149;13847
1317158;13993
1317166;14374
1317174;14371
1317182;14603
1317190;14507
1317199;14660
1317207;14556
1317215;14659
1317223;14490
1317231;14553
1317240;14386
1317248;14438
1317256;14348
1317264;14416
1317272;14305
1317281;14420
1317289;14328
1317297;14392
1317305;14333
1317313;14392
1317321;14381
1317330;14409
1317338;14419
1317346;14426
1317354;14385
1317362;14279
1317371;14180
1317380;13993
1317390;13936
1317398;14207
1317406;14086
1317415;14236
1317423;14175
1317432;14415
1317440;14374
1317448;14531
1317457;14390
1317465;14478
1317473;14349
1317481;14429
1317489;14299
1317498;14303
1317506;14309
1317514;14652
1317522;12839
1317530;9002
1317539;5930
1317547;8956
1317555;15561
1317563;16118
1317571;15403
1317580;14927
1317588;14772
1317596;14494
1317604;14385
1317612;14288
1317620;14204
1317629;14064
1317637;14040
1317645;13897
1317653;13853
1317661;13701
1317670;13673
1317681;13570
1317689;13354
1317697;13258
1317705;12945
1317714;12847
1317722;12524
1317730;12422
1317738;12230
1317747;12282
1317756;12296
1317764;12468
1317772;12604
1317780;12854
1317788;13153
1317797;13543
1317805;13917
1317813;14207
1317821;14441
1317829;14565
1317838;14642
1317846;14633
1317854;14664
1317862;14589
1317870;14590
1317879;14453
1317887;14491
1317895;14374
1317903;14401
1317911;14236
1317919;14298
1317928;14166
1317936;14228
1317944;14089
1317952;14195
1317964;14211
1317972;14165
1317980;14187
1317988;14138
1317996;14199
1318004;14144
1318013;14155
1318021;14101
1318029;14006
1318037;13831
1318045;13691
1318055;13675
1318063;13619
1318071;13659
1318079;13661
1318087;13756
1318096;13778
1318104;13954
1318112;13913
1318120;13984
1318128;13856
1318137;13937
1318145;13809
1318153;13864
1318161;13664
1318169;14121
1318178;13867
1318186;11715
1318194;7816
1318202;5863
1318210;10871
1318218;16048
1318227;15654
1318235;15070
1318246;14490
1318254;14313
1318263;14018
1318271;13920
1318279;13798
1318287;13754
1318295;13616
1318303;13614
1318312;13485
1318320;13520
1318328;13394
1318336;13357
1318344;13162
1318353;13114
1318361;12842
1318370;12743
1318378;12414
1318386;12312
1318395;12034
1318403;12107
1318411;11967
1318419;12182
1318427;12156
1318436;12475
1318444;12578
1318452;13046
1318460;13253
1318468;13763
1318477;13871
1318485;14264
1318493;14237
1318501;14480
1318509;14313
1318518;14472
1318529;14355
1318537;14430
1318545;14317
1318553;14287
1318562;14114
1318570;14115
1318578;14006
1318586;14057
1318594;13907
1318602;14044
1318611;13917
1318619;14066
1318627;13965
1318635;14117
1318643;13987
1318652;14067
1318660;13857
1318668;13902
1318676;13617
1318684;13665
1318694;13434
1318702;13579
1318710;13466
1318718;13721
1318726;13629
1318735;13889
1318743;13713
1318751;13854
1318759;13650
1318767;13784
1318776;13530
1318784;13677
1318792;13415
1318800;13564
1318811;13777
1318820;11877
1318828;8051
1318836;5688
1318844;9593
1318852;15813
1318861;15622
1318869;15063
1318877;14340
1318885;14248
1318893;13806
1318902;13730
1318910;13440
1318918;13496
1318926;13253
1318934;13391
1318942;13183
1318951;13344
1318959;13076
1318967;13187
1318975;12916
1318983;12987
1318992;12660
1319000;12683
1319008;12308
1319016;12262
1319025;11906
1319034;12008
1319042;11819
1319050;12082
1319058;12034
1319066;12394
1319075;12466
1319083;12953
1319091;13161
1319102;13837
1319110;14004
1319119;14328
1319127;14243
1319135;14478
1319143;14333
1319151;14490
1319160;14292
1319168;14426
1319176;14178
1319184;14276
1319192;14003
1319201;14126
1319209;13894
1319217;14023
1319225;13792
1319233;13957
1319241;13777
1319250;13982
1319258;13833
1319266;14020
1319274;13830
1319282;13995
1319291;13814
1319299;13967
1319307;13805
1319315;13989
1319323;13856
1319332;13999
1319341;13796
1319349;13826
1319357;13575
1319365;13690
1319374;13552
1319384;13646
1319393;13549
1319401;13761
1319409;13683
1319418;13972
1319426;13789
1319434;13932
1319442;13712
1319450;13875
1319459;13600
1319467;13709
1319475;13584
1319483;14255
1319491;12485
1319500;8890
1319508;5527
1319516;7657
1319524;14494
1319532;15664
1319540;14955
1319549;14580
1319557;14277
1319565;14159
1319573;13838
1319581;13889
1319590;13664
1319598;13716
1319606;13516
1319614;13556
1319622;13352
1319631;13375
1319639;13184
1319647;13199
1319655;12991
1319666;13012
1319675;12681
1319683;12647
1319691;12263
1319699;12243
1319707;11896
1319716;12050
1319725;11885
1319733;12184
1319741;12182
1319749;12560
1319758;12748
1319766;13341
1319774;13565
1319782;14024
1319790;14096
1319799;14414
1319807;14360
1319815;14558
1319823;14469
1319831;14588
1319839;14413
1319848;14486
1319856;14332
1319864;14374
1319872;14231
1319880;14234
1319889;14106
1319897;14120
1319905;14019
1319913;14060
1319921;13981
1319930;13979
1319938;13918
1319949;14090
1319957;13960
1319965;14074
1319974;13870
1319982;14012
1319990;13837
1319998;13948
1320006;13690
1320015;13660
1320023;13440
1320031;13582
1320040;13467
1320048;13605
1320057;13473
1320065;13614
1320073;13578
1320081;13758
1320089;13680
1320098;13776
1320106;13673
1320114;13708
1320122;13560
1320130;13542
1320138;13405
1320147;13987
1320155;13586
1320163;10871
1320171;6795
1320179;5244
1320188;11187
1320196;15422
1320204;15249
1320212;14539
1320220;14235
1320232;14017
1320240;13714
1320248;13756
1320256;13552
1320264;13578
1320273;13360
1320281;13399
1320289;13214
1320297;13248
1320305;13089
1320314;13064
1320322;12847
1320330;12812
1320338;12583
1320346;12515
1320356;12268
1320364;12104
1320372;11889
1320380;11906
1320388;11909
1320397;12047
1320405;12143
1320413;12351
1320421;12674
1320429;13055
1320438;13459
1320446;13746
1320454;14021
1320462;14157
1320470;14350
1320478;14320
1320487;14412
1320495;14332
1320503;14371
1320511;14228
1320522;14196
1320531;14272
1320539;14140
1320547;14147
1320555;14002
1320563;14067
1320572;13990
1320580;14035
1320588;13986
1320596;14013
1320604;13969
1320613;13985
1320621;13964
1320629;13975
1320637;13973
1320645;13988
1320654;13985
1320662;13867
1320671;13742
1320679;13585
1320687;13615
1320696;13621
