Tempo (ms);Valor
1560897;15299
1560905;14967
1560914;14937
1560922;14555
1560930;14558
1560938;14228
1560946;14333
1560955;14073
1560963;14150
1560971;13933
1560979;14088
1560987;13894
1560996;14046
1561004;13881
1561012;14001
1561020;13821
1561028;13923
1561038;13809
1561046;13957
1561054;13833
1561062;13887
1561070;13710
1561079;13802
1561087;13715
1561095;13773
1561103;13645
1561111;13680
1561119;13526
1561128;13422
1561136;13278
1561144;13305
1561152;13240
1561160;13249
1561172;13245
1561180;13543
1561188;13395
1561196;13624
1561204;13466
1561213;13594
1561221;13428
1561229;13550
1561237;13354
1561245;13450
1561254;13227
1561262;13394
1561270;13720
1561278;12383
1561286;8670
1561295;5825
1561303;7284
1561311;14597
1561319;15464
1561327;14881
1561336;14191
1561344;14035
1561352;13795
1561361;13655
1561369;13518
1561378;13519
1561386;13476
1561394;13416
1561402;13331
1561410;13262
1561418;13211
1561427;13086
1561435;13050
1561443;12935
1561451;12876
1561463;12809
1561471;12552
1561479;12427
1561487;12040
1561495;11931
1561503;11659
1561512;11708
1561520;11585
1561528;11720
1561536;11789
1561544;12154
1561553;12508
1561561;12987
1561569;13389
1561577;13798
1561585;14044
1561594;14246
1561602;14319
1561610;14395
1561618;14435
1561626;14426
1561635;14433
1561643;14364
1561651;14353
1561659;14273
1561667;14276
1561677;14136
1561685;14131
1561693;14010
1561701;14021
1561709;13892
1561718;13946
1561726;13803
1561734;13932
1561745;13999
1561753;13988
1561762;14026
1561770;13918
1561778;13928
1561786;13821
1561794;13853
1561802;13800
1561811;13826
1561819;13824
1561827;13872
1561835;13913
1561843;13930
1561852;13965
1561860;13934
1561868;13873
1561876;13702
1561884;13619
1561893;13549
1561901;13626
1561909;13564
1561917;13584
1561925;13513
1561934;13689
1561942;13663
1561950;13841
1561958;13770
1561966;13884
1561975;13751
1561983;13832
1561991;13636
1562000;13724
1562008;13487
1562017;13618
1562027;13906
1562035;11849
1562043;8082
1562051;5790
1562061;9679
1562069;15755
1562077;15690
1562085;14955
1562093;14365
1562102;14254
1562110;13946
1562118;13837
1562126;13709
1562134;13725
1562142;13608
1562151;13615
1562159;13485
1562167;13526
1562175;13359
1562183;13383
1562192;13142
1562200;13129
1562208;12892
1562216;12891
1562224;12533
1562233;12480
1562241;12081
1562249;11977
1562257;11590
1562265;11679
1562274;11536
1562282;11800
1562290;11751
1562298;12208
1562309;12765
1562318;13311
1562326;13651
1562334;14032
1562342;14203
1562350;14410
1562359;14387
1562367;14500
1562376;14416
1562384;14505
1562392;14360
1562401;14407
1562409;14266
1562417;14341
1562425;14176
1562433;14230
1562441;14020
1562450;14117
1562458;13916
1562466;14079
1562474;13913
1562482;14074
1562491;13896
1562499;14092
1562507;13925
1562515;14085
1562523;13861
1562532;14032
1562540;13807
1562548;13956
1562556;13725
1562564;13845
1562573;13590
1562581;13735
1562589;13544
1562600;13733
1562608;13616
1562617;13669
1562625;13522
1562633;13653
1562641;13420
1562649;13463
1562658;13182
1562666;13296
1562674;13161
1562682;13362
1562691;13189
1562700;13367
1562708;13262
1562716;13475
1562724;13425
1562732;13668
1562740;13506
1562749;13740
1562757;13543
1562765;13700
1562773;13400
1562781;13496
1562790;13683
1562798;13747
1562806;11239
1562814;7389
1562822;4944
1562831;9655
1562839;15125
1562847;15387
1562855;14563
1562863;14357
1562872;14024
1562883;14017
1562891;13840
1562899;13897
1562907;13667
1562916;13813
1562924;13620
1562932;13729
1562940;13457
1562948;13560
1562957;13247
1562965;13277
1562973;12968
1562981;13031
1562989;12710
1562998;12737
1563006;12386
1563014;12363
1563023;11919
1563031;11963
1563039;11710
1563048;11903
1563056;11795
1563064;12133
1563072;12282
1563080;12867
1563089;13112
1563097;13665
1563105;13791
1563113;14200
1563121;14172
1563130;14468
1563138;14315
1563146;14497
1563154;14310
1563165;14535
1563174;14335
1563182;14462
1563190;14219
1563198;14393
1563206;14165
1563215;14295
1563223;14048
1563231;14217
1563239;13985
1563247;14135
1563256;13903
1563264;14086
1563272;13906
1563280;14101
1563288;13873
1563297;14040
1563305;13847
1563313;14077
1563321;13886
1563329;14041
1563337;13850
1563347;14057
1563355;13823
1563363;13888
1563371;13576
1563379;13700
1563388;13554
1563396;13727
1563404;13565
1563412;13705
1563420;13615
1563429;13786
1563437;13745
1563448;13999
1563456;13840
1563464;14009
1563473;13810
1563481;14017
1563489;13784
1563497;13915
1563505;14191
1563514;14051
1563522;11230
1563530;7327
1563538;5236
1563546;11073
1563555;15755
1563563;15712
1563571;14800
1563579;14612
1563587;14276
1563596;14182
1563604;13896
1563612;13967
1563620;13755
1563628;13853
1563636;13648
1563645;13685
1563653;13457
1563662;13533
1563670;13377
1563678;13388
1563687;13193
1563695;13155
1563703;12919
1563711;12825
1563719;12508
1563731;12310
1563739;11956
1563747;11996
1563755;11753
1563763;11951
1563772;11892
1563780;12282
1563788;12414
1563796;13009
1563804;13262
1563813;13782
1563821;13969
1563829;14347
1563837;14259
1563845;14468
1563854;14366
1563862;14502
1563870;14339
1563878;14460
1563886;14381
1563895;14442
1563903;14337
1563911;14372
1563919;14187
1563927;14161
1563935;14042
1563944;14074
1563952;13991
1563960;14006
1563968;13939
1563977;13904
1563986;13906
1563994;13895
1564002;13908
1564010;13892
1564020;13895
1564029;14049
1564038;13761
1564046;13797
1564054;13611
1564062;13738
1564071;13576
1564079;13765
1564087;13706
1564095;13869
1564103;13789
1564112;13917
1564120;13823
1564128;13910
1564136;13819
1564144;13857
1564153;13745
1564161;13728
1564169;13571
1564177;14025
1564185;13568
1564194;10985
1564202;7470
1564210;6046
1564218;12069
1564226;16289
1564234;15746
1564243;14935
1564251;14400
1564259;14192
1564267;14034
1564275;13729
1564284;13665
1564292;13513
1564303;13513
1564311;13650
1564319;13467
1564328;13499
1564336;13313
1564344;13321
1564352;13130
1564361;13070
1564370;12841
1564378;12746
1564386;12481
1564394;12279
1564402;12015
1564411;11834
1564419;11720
1564427;11707
1564435;11719
1564443;11805
1564452;12059
1564460;12443
1564468;12896
1564476;13303
1564484;13743
1564493;14006
1564501;14226
1564509;14269
1564517;14419
1564525;14347
1564534;14469
1564542;14389
1564550;14488
1564558;14342
1564566;14426
1564574;14262
1564586;14266
1564594;14310
1564602;14171
1564610;14155
1564618;14078
1564627;14096
1564635;14049
1564643;14043
1564651;13989
1564659;13957
1564669;13959
1564677;13971
1564685;13976
1564693;13880
1564701;13921
1564710;13703
1564718;13615
1564726;13498
1564734;13523
1564742;13409
1564751;13537
1564759;13522
1564767;13738
1564775;13712
1564783;13838
1564792;13704
1564800;13822
1564808;13693
1564816;13850
1564824;13666
1564833;13733
1564841;13497
1564849;14032
1564857;13675
1564868;9966
1564877;6573
1564885;6262
1564893;13624
1564901;16037
1564909;15340
1564918;14668
1564926;14277
1564934;14202
1564942;13914
1564950;13857
1564958;13743
1564967;13766
1564976;13592
1564984;13589
1564992;13410
1565000;13413
1565009;13231
1565017;13227
1565025;12967
1565033;12955
1565041;12663
1565050;12633
1565058;12258
1565066;12150
1565074;11759
1565082;11706
1565091;11407
1565099;11584
1565107;11500
1565115;11836
1565123;11873
1565132;12448
1565140;12706
1565151;13515
1565159;13928
1565167;14262
1565176;14345
1565184;14478
1565192;14420
1565200;14522
1565208;14412
1565217;14521
1565225;14397
1565233;14483
1565241;14307
1565249;14431
1565257;14253
1565266;14348
1565274;14147
1565282;14250
1565291;14050
1565299;14195
1565308;13983
1565316;14142
1565324;13968
1565332;14094
1565340;13860
1565349;14041
1565357;13816
1565365;13951
1565373;13722
1565381;13888
1565390;13717
1565398;13902
1565406;13727
1565414;13874
1565422;13617
1565431;13667
1565442;13450
1565450;13589
1565458;13452
1565466;13564
1565475;13404
1565483;13591
1565491;13515
1565499;13786
1565507;13678
1565516;13860
1565524;13650
1565532;13807
1565540;13572
1565548;13711
1565556;13455
1565565;13733
1565573;13913
1565581;12459
1565589;8409
1565597;5390
1565606;7297
1565614;14802
1565623;15546
1565631;15125
1565639;14395
1565648;14431
1565656;13959
1565664;13963
1565672;13671
1565680;13777
1565689;13488
1565697;13608
1565705;13372
1565713;13516
1565724;13318
1565733;13459
1565741;13178
1565749;13225
1565757;12919
1565765;12931
1565774;12575
1565782;12535
1565790;12096
1565798;12063
1565806;11701
1565815;11830
1565823;11658
1565831;11935
1565839;11873
1565847;12374
1565855;12606
1565864;13258
1565872;13469
1565880;14005
1565888;14061
1565896;14416
1565905;14279
1565913;14504
1565921;14295
1565929;14461
1565937;14263
1565947;14393
1565955;14176
1565963;14324
1565971;14119
1565979;14217
1565988;14023
1565996;14128
1566007;14014
1566015;14194
1566023;13978
1566032;14147
1566040;13924
1566048;14064
1566056;13813
1566064;13972
1566073;13745
1566081;13906
1566089;13691
1566097;13858
1566105;13644
1566114;13789
1566122;13621
1566130;13848
1566138;13633
1566146;13821
1566154;13529
1566163;13568
1566171;13256
1566179;13400
1566187;13267
1566195;13463
1566204;13300
1566212;13489
1566220;13376
1566228;13592
1566236;13508
1566245;13716
1566253;13576
1566262;13727
1566270;13629
1566278;13731
1566289;13583
1566298;13761
1566306;14095
1566314;13374
1566322;9924
1566331;6166
1566339;5433
1566347;12610
1566355;15476
1566363;15275
1566372;14439
1566380;14447
1566388;14067
1566396;14092
1566404;13833
1566413;13959
1566421;13772
1566429;13896
1566437;13646
1566445;13740
1566454;13510
1566462;13565
1566470;13353
1566478;13445
1566486;13195
1566494;13154
1566503;12849
1566511;12741
1566519;12421
1566527;12273
1566535;11960
1566544;11880
1566552;11736
1566560;11823
1566571;11884
1566579;12388
1566588;12515
1566596;13129
1566604;13356
1566612;13908
1566620;14000
1566630;14362
1566638;14281
1566646;14491
1566654;14339
1566662;14471
1566671;14278
1566679;14405
1566687;14213
1566695;14329
1566703;14157
1566712;14237
1566720;14100
1566728;14205
1566736;14078
1566744;14125
1566753;13997
1566761;14043
1566769;13944
1566777;13990
1566785;13922
1566793;13971
1566802;13915
1566810;13935
1566818;13885
1566826;13910
1566834;13868
1566843;13868
1566851;13839
1566862;13976
1566870;13785
1566878;13916
1566887;13733
1566895;13842
1566903;13678
1566911;13788
1566919;13621
1566928;13655
1566937;13374
1566945;13378
1566953;13175
1566961;13257
1566970;13158
1566978;13256
1566986;13191
1566994;13311
1567002;13328
1567011;13488
1567019;13453
1567027;13511
1567035;13502
1567043;13582
1567052;13547
1567060;13542
1567068;13501
1567076;13599
1567084;13926
1567092;12259
1567101;8429
1567109;5421
1567117;7704
1567125;14723
1567133;15616
1567145;14842
1567153;14462
1567161;14429
1567169;14050
1567177;14032
1567186;13867
1567194;13884
1567202;13705
1567210;13724
1567218;13562
1567227;13544
1567235;13394
1567243;13355
1567252;13231
1567260;13180
1567269;13079
1567277;12958
1567285;12759
1567293;12525
1567301;12254
1567310;12022
1567318;11856
1567326;11749
1567334;11769
1567342;11782
1567351;12007
1567359;12173
1567367;12639
1567375;13010
1567383;13510
1567391;13801
1567400;14156
1567408;14191
1567416;14412
1567427;14491
1567436;14476
1567444;14528
1567452;14383
1567460;14406
1567468;14336
1567476;14361
1567485;14330
1567493;14310
1567501;14211
1567509;14177
1567517;14171
1567526;14118
1567534;14089
1567542;14026
1567550;14025
1567558;13920
1567567;13952
1567576;13878
1567584;13927
1567592;13806
1567600;13841
1567609;13706
1567617;13790
1567625;13680
1567633;13788
1567641;13608
1567650;13704
1567658;13549
1567666;13668
1567674;13542
1567682;13708
1567690;13561
1567699;13656
1567710;13460
1567718;13375
1567726;13331
1567735;13369
1567743;13362
1567751;13401
1567759;13429
1567767;13540
1567775;13600
1567784;13720
1567792;13674
1567800;13791
1567808;13765
1567816;13837
1567825;13760
1567833;13814
1567841;13622
1567849;14302
1567857;13483
1567866;10626
1567874;6767
1567882;6214
1567890;12880
1567898;16058
1567908;15369
1567916;14821
1567924;14400
1567932;14432
1567940;14048
1567949;14067
1567957;13807
1567965;13910
1567973;13627
1567981;13723
1567993;13579
1568001;13610
1568009;13460
1568017;13428
1568025;13215
1568034;13158
1568042;12906
1568050;12834
1568058;12557
1568066;12392
1568074;11987
1568083;11930
1568091;11719
1568099;11822
1568107;11718
1568115;12032
1568124;12116
1568132;12623
1568140;12904
1568148;13548
1568156;13765
1568165;14198
1568173;14258
1568181;14567
1568189;14451
1568197;14677
1568206;14470
1568214;14653
1568223;14419
1568231;14574
1568239;14302
1568248;14431
1568256;14173
1568264;14308
1568272;14031
1568283;14159
1568292;14032
1568300;14068
1568308;13908
1568316;13980
1568324;13829
1568333;13967
1568341;13780
1568349;13912
1568357;13759
1568365;13907
1568374;13737
1568382;13905
1568390;13710
1568398;13867
1568406;13640
1568414;13868
1568423;13735
1568431;13965
1568439;13735
1568447;13817
1568455;13496
1568464;13627
1568472;13432
1568480;13634
1568488;13440
1568496;13658
1568505;13534
1568513;13820
1568521;13703
1568530;13924
1568538;13718
1568547;13928
1568555;13729
1568565;13945
1568573;13788
1568582;13848
1568591;13817
1568599;14201
1568607;12207
1568615;8738
1568623;6177
1568632;9396
1568640;15717
1568648;16012
1568656;15036
1568664;14562
1568673;14153
1568681;14159
1568689;13729
1568697;13760
1568705;13462
1568713;13585
1568722;13338
1568730;13485
1568738;13235
1568746;13369
1568754;13101
1568763;13217
1568771;12951
1568779;13045
1568787;12722
1568795;12738
1568804;12356
1568812;12285
1568820;11846
1568828;11816
1568836;11546
1568848;11810
1568856;11770
1568864;12090
1568872;12141
1568880;12765
1568889;13012
1568898;13626
1568906;13784
1568914;14223
1568922;14173
1568931;14485
1568939;14345
1568947;14550
1568955;14365
1568963;14537
1568972;14293
1568980;14457
1568988;14182
1568996;14307
1569004;14049
1569012;14177
1569021;13926
1569029;14073
1569037;13857
1569045;14017
1569053;13869
1569062;14029
1569070;13902
1569078;14115
1569086;13969
1569094;14082
1569103;13956
1569111;14082
1569119;13915
1569130;14134
1569138;13977
1569147;14159
1569155;13935
1569163;14083
1569171;13837
1569179;13998
1569188;13726
1569196;13785
1569205;13451
1569213;13631
1569221;13445
1569230;13678
1569238;13484
1569246;13678
1569254;13517
1569262;13769
1569271;13617
1569279;13738
1569287;13562
1569295;13734
1569303;13530
1569311;13655
1569320;13429
1569328;13495
1569336;13839
1569344;13473
1569352;10676
1569361;7175
1569369;5705
1569377;11885
1569385;15839
1569393;15467
1569402;14644
1569413;14368
1569421;14039
1569429;13978
1569437;13610
1569446;13709
1569454;13449
1569462;13570
1569470;13313
1569478;13425
1569487;13158
1569495;13252
1569503;12978
1569511;13037
1569519;12753
1569529;12810
1569537;12463
1569545;12416
1569553;12040
1569561;11921
1569570;11542
1569578;11513
1569586;11373
1569594;11541
1569602;11537
1569610;11823
1569619;12072
1569627;12581
1569635;12957
1569643;13478
1569651;13723
1569660;13995
1569668;14090
1569676;14200
1569684;14196
1569692;14279
1569704;14236
1569712;14454
1569720;14227
1569728;14369
1569736;14116
1569745;14224
1569753;13985
1569761;14081
1569769;13860
1569777;13978
1569786;13809
1569794;13920
1569802;13767
1569810;13920
1569818;13819
1569827;13925
1569835;13816
1569843;13870
1569852;13768
1569860;13847
1569869;13754
1569877;13819
1569885;13698
1569893;13711
1569901;13659
1569910;13694
1569918;13673
1569926;13695
1569934;13662
1569942;13610
1569950;13474
1569959;13332
1569967;13343
1569975;13317
1569986;13326
1569994;13548
1570003;13406
1570011;13607
1570019;13575
1570027;13740
1570035;13593
1570044;13674
1570052;13559
1570060;13627
1570068;13489
1570076;13498
1570085;13608
1570093;13868
1570101;11929
1570109;8094
1570117;5374
1570126;8638
1570134;15254
1570142;15626
1570150;14931
1570158;14408
1570167;14267
1570175;14013
1570183;13856
1570191;13749
1570200;13753
1570209;13628
1570217;13662
1570225;13562
1570233;13590
1570241;13405
1570249;13401
1570258;13173
1570269;13091
1570277;13155
1570285;12924
1570294;12836
1570302;12545
1570310;12389
1570318;12064
1570326;11927
1570334;11782
1570343;11823
1570351;11847
1570359;11989
1570367;12286
1570375;12728
1570384;13212
1570392;13632
1570400;14006
1570408;14220
1570416;14391
1570425;14437
1570433;14514
1570441;14457
1570449;14512
1570457;14366
1570466;14403
1570474;14263
1570482;14303
1570490;14120
1570499;14160
1570508;14024
1570516;14106
1570524;13877
1570532;13978
1570540;13758
1570552;13853
1570560;13950
1570568;13897
1570576;13873
1570584;13815
1570593;13824
1570601;13808
1570609;13787
1570617;13769
1570625;13751
1570633;13776
1570642;13691
1570650;13695
1570658;13630
1570666;13694
1570674;13619
1570683;13743
1570691;13628
1570699;13652
1570707;13431
1570715;13461
1570724;13362
1570732;13533
1570740;13447
1570748;13674
1570756;13632
1570765;13902
1570773;13855
1570781;14064
1570789;13877
1570797;14016
1570806;13810
1570815;13956
1570823;13771
1570833;13875
1570841;13863
1570850;14427
1570859;13216
1570867;9762
1570875;6093
1570883;6402
1570892;13746
1570900;15835
1570908;15131
1570916;14539
1570924;14208
1570932;14072
1570941;13725
1570949;13744
1570957;13545
1570965;13594
1570973;13368
1570982;13499
1570990;13338
1570998;13449
1571006;13231
1571014;13327
1571023;13095
1571031;13186
1571039;12889
1571047;12943
1571055;12527
1571064;12487
1571072;12073
1571080;12069
1571088;11713
1571096;11868
1571105;11665
1571113;11946
1571124;12134
1571132;12634
1571140;12975
1571149;13498
1571157;13800
1571165;14237
1571173;14344
1571182;14562
1571191;14510
1571199;14639
1571207;14508
1571215;14665
1571223;14520
1571231;14631
1571240;14428
1571248;14515
1571256;14271
1571264;14363
1571272;14140
1571281;14320
1571289;14077
1571297;14257
1571305;14081
1571313;14286
1571322;14113
1571330;14313
1571338;14060
1571346;14225
1571354;13985
1571363;14151
1571371;13916
1571379;14120
1571387;13839
1571395;14036
1571407;13964
1571415;14085
1571423;13918
1571431;14017
1571439;13841
1571448;13943
1571456;13776
1571464;13897
1571472;13608
1571481;13659
1571490;13415
1571498;13595
1571506;13471
1571514;13702
1571522;13526
1571530;13767
1571539;13647
1571547;13956
1571555;13818
1571563;13997
1571571;13728
1571580;13897
1571588;13670
1571596;13794
1571604;13525
1571612;13655
1571621;13979
1571629;13380
1571637;10088
1571645;6662
1571653;5991
1571662;13130
1571670;15719
1571678;15338
1571689;14357
1571697;14370
1571706;13979
1571714;13954
1571722;13676
1571730;13761
1571738;13508
1571747;13657
1571755;13393
1571763;13526
1571771;13254
1571779;13372
1571788;13061
1571797;13183
1571805;12847
1571813;12962
1571821;12606
1571830;12596
1571838;12196
1571846;12181
1571854;11785
1571862;11874
1571870;11648
1571879;11933
1571887;11838
1571895;12228
1571903;12353
1571911;12969
1571920;13228
1571928;13840
1571936;13976
1571944;14355
1571952;14307
1571961;14560
1571972;14473
1571980;14718
1571988;14463
1571996;14581
1572005;14306
1572013;14462
1572021;14224
1572029;14371
1572037;14116
1572046;14296
1572054;14027
1572062;14170
1572070;13930
1572078;14143
1572087;13938
1572095;14117
1572103;13874
1572111;14055
1572120;13813
1572129;13960
1572137;13770
1572145;13963
1572153;13774
1572161;13939
1572169;13731
1572178;13857
1572186;13701
1572194;13793
1572202;13508
1572210;13491
1572219;13273
1572227;13416
1572235;13282
1572243;13429
1572254;13389
1572263;13716
1572271;13578
1572279;13791
1572287;13611
1572295;13820
1572304;13571
1572312;13761
1572320;13565
1572328;13730
1572336;13451
1572345;14107
1572353;13445
1572361;10971
1572369;7377
1572377;6437
1572386;12365
1572394;16331
1572402;15521
1572410;14908
1572418;14205
1572426;14203
1572435;13859
1572443;13871
1572451;13638
1572460;13737
1572468;13560
1572477;13643
1572485;13442
1572493;13477
1572501;13295
1572509;13324
1572518;13117
1572526;13066
1572534;12833
1572545;12797
1572553;12423
1572562;12332
1572570;11860
1572578;11826
1572586;11521
1572594;11718
1572603;11594
1572611;11883
1572619;11893
1572627;12384
1572635;12629
1572644;13215
1572652;13421
1572660;13902
1572668;14022
1572676;14400
1572685;14348
1572693;14524
1572701;14440
1572709;14573
1572717;14423
1572726;14491
1572734;14350
1572742;14392
1572750;14228
1572758;14271
1572766;14152
1572776;14148
1572784;14064
1572792;14055
1572800;13987
1572808;14002
1572817;13997
1572828;14222
1572836;14040
1572844;14130
1572852;13892
1572861;13920
1572869;13610
1572877;13706
1572885;13508
1572893;13683
1572902;13550
1572910;13750
1572918;13700
1572926;13887
1572934;13785
1572943;13882
1572951;13743
1572959;13812
1572967;13655
1572975;13711
1572984;13591
1572992;13626
1573000;13576
1573008;14086
1573016;12503
1573025;8934
1573033;6254
1573041;8129
1573049;15483
1573057;16194
1573065;15392
1573074;14646
1573083;14268
1573091;14016
1573099;13768
1573110;13691
1573118;13456
1573127;13492
1573135;13243
1573143;13313
1573151;13085
1573160;13168
1573168;12946
1573176;12947
1573184;12733
1573192;12746
1573201;12484
1573209;12402
1573217;12105
1573225;11903
1573233;11605
1573242;11545
1573250;11479
1573258;11596
1573266;11687
1573274;11926
1573283;12267
1573291;12735
1573299;13181
1573307;13650
1573315;14060
1573324;14290
1573332;14487
1573340;14550
1573348;14640
1573356;14562
1573364;14622
1573373;14513
1573381;14538
1573392;14553
1573400;14443
1573409;14472
1573417;14271
1573425;14284
1573433;14138
1573442;14166
1573450;14037
1573459;14026
1573467;13912
1573475;13935
1573483;13857
1573491;13884
1573500;13825
1573508;13818
1573516;13814
1573524;13787
1573532;13740
1573541;13591
1573549;13475
1573557;13366
1573565;13379
1573573;13325
1573582;13399
1573590;13423
1573598;13579
1573606;13596
1573614;13744
1573623;13696
1573631;13810
1573639;13671
1573647;13750
1573655;13573
1573663;13644
1573675;13584
1573683;14199
1573691;13349
1573699;9940
1573708;5846
1573716;5191
1573724;12569
1573732;15674
1573740;15237
1573750;14594
1573758;14379
1573766;14169
1573774;13938
1573782;13868
1573790;13746
1573799;13701
1573807;13572
1573815;13550
1573823;13405
1573831;13425
1573840;13293
1573848;13276
1573856;13082
1573864;13093
1573872;12909
1573881;12893
1573889;12603
1573897;12560
1573905;12190
1573913;12130
1573922;11832
1573930;11991
1573938;11909
1573946;12193
1573954;12236
1573966;12880
1573974;13397
1573982;13799
1573990;14193
1573998;14437
1574007;14605
1574015;14717
1574023;14709
1574031;14730
1574039;14607
1574049;14627
1574057;14521
1574065;14559
1574073;14485
1574081;14555
1574089;14433
1574098;14462
1574106;14290
1574114;14338
1574122;14164
1574130;14248
1574139;14115
1574147;14230
1574155;14004
1574163;14084
1574171;13893
1574180;14022
1574188;13854
1574196;14039
1574204;13841
1574212;14015
1574221;13830
1574229;14030
1574237;13754
1574248;13761
1574256;13611
1574265;13617
1574273;13557
1574281;13564
1574289;13487
1574297;13570
1574306;13483
1574314;13629
1574322;13550
1574330;13637
1574338;13531
1574346;13642
1574355;13539
1574364;13637
1574372;13451
1574380;13518
1574388;13462
1574397;14121
1574405;12345
1574413;8507
1574421;4871
1574429;6813
1574438;14201
1574446;15583
1574454;14823
1574462;14476
1574470;14132
1574479;14125
1574487;13754
1574495;13879
1574503;13575
1574511;13699
1574520;13415
1574531;13531
1574539;13411
1574547;13412
1574555;13204
1574564;13203
1574572;13006
1574580;12963
1574588;12667
1574596;12646
1574605;12266
1574613;12179
1574621;11803
1574629;11797
1574637;11558
1574646;11734
1574654;11643
1574662;11987
1574670;12083
1574678;12674
1574686;12930
1574695;13533
1574704;13674
1574712;14134
1574720;14057
1574728;14339
1574737;14183
1574745;14403
1574753;14181
1574761;14347
1574769;14102
1574778;14298
1574786;14048
1574794;14227
1574802;13989
1574813;14165
1574822;14041
1574830;14121
1574838;13903
1574846;14067
1574854;13931
1574863;14107
1574871;13913
1574879;14104
1574887;13953
1574895;14156
1574904;13918
1574912;14036
1574920;13794
1574928;13977
1574936;13754
1574945;13939
1574953;13717
1574961;13896
1574969;13679
1574977;13864
1574985;13680
1574994;13845
1575002;13516
1575010;13588
1575019;13343
1575027;13536
1575036;13335
1575044;13520
1575052;13335
1575060;13635
1575068;13503
1575077;13784
1575085;13622
1575096;13904
1575104;13781
1575112;13973
1575121;13747
1575129;13845
1575137;13575
1575145;13701
1575153;14028
1575162;13030
1575170;9291
1575178;5893
1575186;6307
1575194;13956
1575203;15661
1575211;15339
1575219;14526
1575227;14589
1575235;14141
1575244;14147
1575252;13893
1575260;14034
1575268;13805
1575276;13936
1575284;13649
1575293;13756
1575301;13476
1575309;13633
1575317;13374
1575325;13475
1575334;13155
1575342;13212
1575351;12868
1575359;12816
1575367;12387
1575376;12326
1575386;11915
1575395;12084
1575403;11870
1575411;12106
1575420;12004
1575428;12406
1575436;12555
1575444;13184
1575452;13389
1575461;13998
1575469;14091
1575477;14441
1575485;14289
1575493;14539
1575502;14350
1575510;14530
1575518;14311
1575526;14477
1575534;14222
1575543;14379
1575551;14156
1575559;14318
1575567;14101
1575575;14220
1575583;13988
1575592;14148
1575600;13946
1575608;14085
1575616;13884
1575624;14014
1575633;13852
1575641;13982
1575649;13843
1575657;13909
1575668;13808
1575677;14083
1575685;13835
1575693;14018
1575701;13792
1575709;13978
1575719;13778
1575727;13968
1575735;13725
1575743;13963
1575751;13729
1575760;13904
1575768;13687
1575776;13809
1575784;13517
1575792;13621
1575801;13407
1575809;13636
1575817;13502
1575825;13711
1575833;13591
1575842;13779
1575850;13688
1575858;13906
1575866;13742
1575874;13831
1575882;13678
1575891;13763
1575899;13598
1575907;13640
1575915;13413
1575923;13795
1575932;13550
1575940;11406
1575951;6468
1575959;6430
1575967;13237
1575976;15904
1575984;15125
1575992;14572
1576000;14093
1576008;14164
1576017;13748
1576026;13803
1576034;13498
1576042;13601
1576050;13353
1576059;13460
1576067;13219
1576075;13304
1576083;13049
1576091;13123
1576100;12888
1576108;12924
1576116;12679
1576124;12646
1576132;12325
1576141;12250
1576149;11900
1576157;11774
1576165;11556
1576173;11642
1576182;11633
1576190;11817
1576198;11915
1576206;12283
1576214;12696
1576222;13213
1576234;13688
1576242;14216
1576250;14221
1576258;14505
1576266;14345
1576275;14573
1576283;14422
1576291;14597
1576299;14390
1576307;14544
1576316;14358
1576325;14460
1576333;14280
1576341;14353
1576349;14154
1576358;14248
1576366;14090
1576374;14145
1576382;14012
1576390;14083
1576399;13974
1576407;14070
1576415;13968
1576423;14042
1576431;13939
1576440;13990
1576448;13910
1576456;13890
1576464;13816
1576472;13837
1576481;13810
1576489;13822
1576497;13805
1576505;13777
1576546;15755
1576554;15228
1576562;14912
1576571;14477
1576579;14410
1576587;14058
1576595;14091
1576603;13881
1576612;14015
1576620;13871
1576628;13989
1576636;13740
1576644;13842
1576653;13612
1576661;13736
1576669;13445
1576677;13560
1576685;13272
1576694;13991
1576702;12762
1576710;9790
1576718;6414
1576726;6600
1576734;13487
1576743;15735
1576751;14806
1576759;14260
1576767;13631
1576775;13655
1576784;13229
1576792;13292
1576800;13033
1576808;13137
1576817;12867
1576826;12996
1576836;12798
1576844;12955
1576852;12683
1576860;12736
1576870;12465
1576878;12501
1576886;12162
1576894;12175
1576902;11782
1576911;11735
1576919;11308
1576927;11321
1576935;11027
1576943;11220
1576952;11092
1576960;11475
1576968;11509
1576976;12096
1576984;12371
1576993;13023
1577001;13223
1577009;13768
1577017;13784
1577025;14113
1577033;13971
1577042;14220
1577050;14075
1577058;14291
1577066;14087
1577074;14225
1577083;14002
1577091;14130
1577099;13872
1577107;13995
1577118;13784
1577127;13938
1577135;13674
1577143;13817
1577151;13602
1577159;13803
1577168;13631
1577177;13837
1577185;13632
1577193;13835
1577201;13588
1577210;13818
1577218;13604
1577226;13793
1577234;13536
1577242;13748
1577251;13555
1577259;13782
1577267;13561
1577275;13761
1577283;13542
1577292;13764
1577300;13597
1577308;13793
1577316;13551
1577324;13668
1577332;13382
1577341;13516
1577349;13327
1577357;13530
1577365;13337
1577373;13528
1577382;13457
1577390;13674
1577401;13684
1577409;13991
1577417;13756
1577426;13934
1577434;13687
1577442;13847
1577450;13562
1577458;13654
1577467;13978
1577476;13671
1577484;10733
1577492;7079
1577500;5527
1577509;11861
1577517;15718
1577525;15607
1577533;14718
1577541;14647
1577550;14331
1577558;14316
1577566;13996
1577574;14106
1577582;13860
1577591;13947
1577599;13686
1577607;13772
1577615;13578
1577623;13640
1577631;13408
1577640;13411
1577648;13176
1577656;13188
1577664;12900
1577672;12833
1577684;12496
1577692;12541
1577700;12060
1577708;12115
1577716;11823
1577725;12042
1577733;11925
1577741;12331
1577749;12460
1577757;13092
1577766;13367
1577774;13968
1577782;14116
1577790;14498
1577799;14494
1577808;14757
1577816;14617
1577824;14790
1577832;14625
1577840;14750
1577849;14536
1577857;14660
1577865;14504
1577873;14608
1577881;14449
1577890;14475
1577898;14305
1577906;14316
1577914;14113
1577922;14177
1577930;14040
1577939;14075
1577947;13991
1577955;14048
1577966;13951
1577975;14191
1577983;13970
1577991;14101
1577999;13859
1578007;14037
1578015;13806
1578024;13998
1578032;13801
1578040;13946
1578048;13746
1578056;13847
1578065;13657
1578073;13802
1578081;13649
1578089;13781
1578097;13606
1578106;13615
1578114;13387
1578122;13364
1578131;13196
1578139;13293
1578148;13220
1578156;13284
1578164;13207
1578172;13332
1578180;13337
1578189;13523
1578197;13528
1578205;13568
1578213;13481
1578221;13455
1578230;13391
1578238;13393
1578246;13313
1578257;14090
1578265;12878
1578274;9737
1578282;6263
1578290;6977
1578298;14006
1578306;15792
1578314;15005
1578323;14468
1578331;14134
1578339;14120
1578347;13823
1578355;13874
1578364;13752
1578372;13735
1578380;13567
1578388;13579
1578396;13430
1578405;13355
1578413;13191
1578421;13193
1578429;13098
1578437;13103
1578446;12968
1578454;12796
1578462;12523
1578470;12257
1578479;11979
1578488;11759
1578496;11688
1578504;11604
1578512;11675
1578520;11714
1578529;11938
1578540;12486
1578548;12807
1578556;13347
1578564;13576
1578573;13995
1578581;14129
1578589;14434
1578597;14426
1578605;14632
1578614;14654
1578622;14802
1578630;14783
1578638;14814
1578646;14666
1578654;14652
1578663;14478
1578671;14419
1578679;14268
1578687;14219
1578695;14088
1578704;14086
1578712;14078
1578720;14065
1578728;14107
1578736;14121
1578745;14170
1578753;14068
1578761;14009
1578769;13832
1578777;13736
1578787;13648
1578795;13683
1578803;13729
1578811;13935
1578821;14200
1578830;14216
1578839;14351
1578847;14231
1578855;14284
1578863;14151
1578872;14185
1578880;14053
1578888;14129
1578896;14053
1578904;14050
1578913;13884
1578921;14383
1578929;13309
1578937;10187
1578945;7176
1578953;7222
1578962;14418
1578970;16551
1578978;15843
1578986;15181
1578994;14687
1579003;14505
1579011;14314
1579019;14153
1579027;14072
1579035;13898
1579044;13833
1579052;13657
1579060;13632
1579068;13410
1579076;13386
1579085;13147
1579093;13082
1579112;12946
1579120;12823
1579129;12403
1579137;12151
1579146;11801
1579154;11634
1579162;11532
1579171;11651
1579179;11729
1579187;11922
1579195;12164
1579203;12598
1579212;13089
1579220;13500
1579228;13857
1579236;14087
1579244;14269
1579252;14287
1579261;14356
1579269;14283
1579277;14306
1579285;14165
1579293;14230
1579302;14135
1579310;14173
1579318;14008
1579326;14042
1579334;13900
1579343;13974
1579351;13858
1579359;13947
1579367;13841
1579375;13993
1579384;13894
1579395;14013
1579403;13994
1579411;13806
1579419;13776
1579428;13755
1579436;13699
1579444;13651
1579452;13641
1579461;13737
1579470;13758
1579478;13848
1579486;13792
1579494;13850
1579502;13734
1579511;13778
1579519;13725
1579527;13760
1579535;13632
1579543;13636
1579551;13998
1579560;13150
1579568;10039
1579576;7254
1579584;6908
1579592;14015
1579601;16331
1579609;15828
1579617;14960
1579625;14615
1579633;14208
1579642;14071
1579650;13681
1579658;13735
1579666;13504
1579674;13608
1579686;13477
1579694;13562
1579702;13412
1579710;13362
1579718;13237
1579727;13172
1579735;12963
1579743;12870
1579751;12561
1579759;12419
1579768;12030
1579777;11849
1579785;11540
1579793;11604
1579801;11471
1579810;11658
1579818;11714
1579826;12169
1579834;12480
1579842;13114
1579850;13432
1579859;13959
1579867;14067
1579875;14380
1579883;14276
1579891;14523
1579900;14397
1579908;14575
1579916;14377
1579924;14522
1579932;14303
1579941;14457
1579949;14193
1579957;14302
1579968;14108
1579976;14151
1579985;13986
1579993;14009
1580001;13857
1580009;13912
1580017;13800
1580026;13828
1580034;13688
1580042;13812
1580050;13659
1580058;13758
1580067;13544
1580075;13706
1580084;13612
1580092;13811
1580100;13692
1580109;13896
1580117;13728
1580125;13956
1580133;13791
1580141;13953
1580150;13712
1580158;13806
1580166;13543
1580174;14218
1580182;12938
1580190;9954
1580199;6279
1580207;6592
1580215;13886
1580223;16142
1580231;15372
1580240;14997
1580251;14530
1580259;14289
1580267;13894
1580275;13944
1580284;13718
1580292;13769
1580300;13538
1580308;13648
1580316;13396
1580325;13483
1580333;13232
1580341;13271
1580349;12920
1580357;12960
1580366;12614
1580374;12641
1580382;12229
1580390;12162
1580398;11692
1580407;11732
1580416;11498
1580424;11699
1580432;11587
1580440;11950
1580449;12059
1580457;12692
1580465;12940
1580473;13571
1580481;13691
1580489;14126
1580498;14067
1580506;14351
1580514;14168
1580522;14379
1580534;14247
1580542;14423
1580550;14196
1580558;14336
1580566;14125
1580574;14287
1580583;14075
1580591;14216
1580599;14014
1580607;14197
1580615;13987
1580624;14182
1580632;13937
1580640;14083
1580648;13844
1580656;13890
1580665;13537
1580673;13626
1580681;13378
1580689;13563
1580697;13354
1580706;13582
1580714;13442
1580722;13715
1580730;13565
1580739;13763
1580748;13523
1580756;13645
1580764;13471
1580772;13645
1580780;13387
1580788;13467
1580797;13222
1580805;13810
1580816;10948
1580824;6866
1580833;3947
1580841;8609
1580849;14436
1580857;14905
1580865;14134
1580873;14118
1580882;13879
1580890;14004
1580898;13788
1580906;14043
1580914;13870
1580923;14119
1580931;13859
1580939;13949
1580947;13729
1580955;13872
1580964;13642
1580972;13767
1580980;13473
1580988;13533
1580996;13159
1581005;13136
1581013;12723
1581021;12593
1581029;12022
1581037;12012
1581046;11746
1581054;12006
1581062;11948
1581071;12208
1581079;12370
1581087;12934
1581096;13233
1581107;13973
1581115;14090
1581123;14474
1581132;14358
1581140;14619
1581148;14404
1581156;14542
1581164;14267
1581172;14426
1581181;14223
1581189;14425
1581197;14216
1581205;14389
1581213;14117
1581222;14219
1581230;13937
1581238;14056
1581246;13805
1581254;13942
1581263;13707
1581271;13914
1581279;13740
1581287;13888
1581295;13711
1581304;13849
1581312;13666
1581320;13850
1581328;13675
1581336;13700
1581345;13393
1581353;13479
1581361;13428
1581370;13557
1581378;13478
1581389;13831
1581397;13762
1581405;14051
1581413;13910
1581422;14153
1581431;13940
1581439;14131
1581447;13927
1581455;14065
1581463;13804
1581471;13900
1581480;14343
1581488;13871
1581496;10513
1581504;6349
1581512;4909
1581521;11765
1581529;15671
1581537;15600
1581545;14793
1581553;14668
1581562;14363
1581570;14245
1581578;13994
1581586;14023
1581594;13841
1581603;13950
1581611;13838
1581619;13901
1581627;13775
1581635;13780
1581644;13615
1581652;13559
1581660;13398
1581671;13437
1581679;13090
1581688;13076
1581696;12620
1581704;12533
1581712;12127
1581720;12191
1581729;11955
1581738;12123
1581746;12030
1581754;12414
1581762;12649
1581770;13283
1581779;13564
1581787;14128
1581795;14258
1581803;14610
1581811;14587
1581820;14775
1581828;14662
1581836;14737
1581844;14571
1581852;14637
1581861;14545
1581869;14591
1581877;14471
1581885;14502
1581893;14381
1581902;14364
1581910;14246
1581918;14256
1581926;14194
1581934;14174
1581943;14126
1581954;14220
1581962;14072
1581970;14227
1581978;14008
1581987;14149
1581995;13927
1582003;14007
1582011;13789
1582019;13892
1582028;13734
1582036;13857
1582045;13726
1582053;13871
1582061;13743
1582070;13777
1582078;13561
1582086;13572
1582094;13456
1582102;13554
1582110;13493
1582119;13621
1582127;13576
1582135;13686
1582143;13714
1582151;13835
1582160;13779
1582168;13814
1582176;13796
1582184;13780
1582192;13737
1582201;13704
1582209;13627
1582217;14065
1582225;13471
1582236;9603
1582245;6718
1582253;7846
1582261;14876
1582269;16170
1582277;15376
1582286;14792
1582294;14347
1582302;14297
1582310;14020
1582318;13966
1582327;13782
1582335;13807
1582343;13630
1582351;13645
1582359;13490
1582367;13490
1582377;13369
1582385;13327
1582393;13178
1582401;13083
1582409;12933
1582418;12789
1582426;12595
1582434;12370
1582442;12099
1582450;11852
1582459;11732
1582467;11729
1582475;11817
1582483;11859
1582491;12121
1582500;12432
1582508;12978
1582516;13379
1582527;13952
1582535;14378
1582544;14407
1582552;14564
1582560;14518
1582568;14610
1582576;14510
1582585;14551
1582593;14461
1582601;14495
1582609;14415
1582617;14421
1582626;14325
1582634;14291
1582642;14238
1582650;14196
1582658;14125
1582666;14054
1582675;14038
1582683;13990
1582691;13950
1582700;13890
1582708;13918
1582717;13880
1582725;13872
1582733;13735
1582741;13671
1582749;13498
1582758;13497
1582766;13376
1582774;13472
1582782;13416
1582790;13582
1582799;13571
1582810;13732
1582818;13871
1582826;13762
1582834;13795
1582843;13717
1582851;13734
1582859;13679
1582867;13650
1582875;13524
1582884;14091
1582892;13227
1582900;10254
1582908;7250
1582916;6866
1582925;13757
1582933;16362
1582941;15784
1582949;14986
1582957;14513
1582966;14261
1582974;14067
1582982;13821
1582990;13806
1582998;13649
1583006;13677
1583015;13530
1583023;13563
1583032;13367
1583040;13382
1583048;13175
1583057;13199
1583065;12919
1583073;12904
1583081;12592
1583092;12428
1583101;12259
1583109;11897
1583117;11622
1583125;11467
1583133;11440
1583142;11491
1583150;11587
1583158;11914
1583166;12391
1583174;12926
1583183;13378
1583191;13835
1583199;14097
1583207;14360
1583215;14382
1583224;14493
1583232;14463
1583240;14597
1583248;14498
1583256;14626
1583265;14527
1583273;14620
1583281;14442
1583289;14525
1583297;14328
1583305;14387
1583314;14174
1583322;14253
1583330;14032
1583339;14140
1583347;13926
1583356;14067
1583364;13877
1583374;13986
1583382;14021
1583391;13940
1583400;13870
1583408;13826
1583416;13766
1583424;13769
1583432;13655
1583441;13680
1583449;13493
1583457;13402
1583465;13129
1583473;13197
1583482;13119
1583490;13287
1583498;13191
1583506;13335
1583514;13250
1583523;13444
1583531;13414
1583539;13586
1583547;13462
1583555;13598
1583564;13448
1583572;13586
1583580;13380
1583588;13530
1583596;13905
1583604;13047
1583613;9512
1583621;6102
1583629;6110
1583637;13500
1583645;15737
1583654;15491
1583665;14601
1583673;14520
1583681;14183
1583689;14011
1583698;13818
1583707;13800
1583715;13663
1583723;13697
1583731;13546
1583740;13577
1583748;13359
1583756;13383
1583764;13199
1583772;13230
1583781;12926
1583789;12877
1583797;12505
1583805;12424
1583813;12018
1583822;11891
1583830;11486
1583838;11506
1583846;11340
1583854;11578
1583863;11491
1583871;11921
1583879;12155
1583887;12879
1583895;13203
1583903;13839
1583912;13936
1583920;14313
1583928;14219
1583936;14446
1583948;14380
1583956;14471
1583964;14297
1583972;14297
1583980;14133
1583988;14187
1583997;14020
1584005;14111
1584014;13938
1584022;14019
1584030;13807
1584039;13911
1584047;13721
1584055;13842
1584063;13630
1584071;13802
1584080;13635
1584088;13815
1584096;13623
1584104;13810
1584112;13596
1584121;13784
1584129;13550
1584137;13715
1584145;13465
1584153;13633
1584162;13436
1584170;13618
1584178;13397
1584186;13588
1584194;13419
1584202;13623
1584211;13426
1584219;13648
1584230;13592
1584238;13736
1584247;13513
1584255;13499
1584263;13273
1584271;13384
1584279;13276
1584287;13495
1584296;13357
1584304;13547
1584313;13451
1584321;13696
1584329;13638
1584338;13805
1584346;13616
1584354;13831
1584362;13676
1584370;13843
1584379;13601
1584387;13674
1584395;14013
1584403;13590
1584411;10567
1584420;6691
1584428;5246
1584436;11318
1584444;15259
1584452;15389
1584461;14659
1584469;14601
1584477;14256
1584485;14249
1584493;13922
1584502;14000
1584513;13800
1584521;13968
1584529;13745
1584537;13860
1584546;13609
1584554;13701
1584562;13472
1584570;13550
1584578;13216
1584586;13258
1584595;12915
1584603;12917
1584611;12475
1584619;12383
1584627;11944
1584636;11950
1584645;11683
1584653;11873
1584661;11726
1584669;12085
1584678;12228
1584686;12907
1584694;13231
1584702;13845
1584710;13960
1584719;14380
1584727;14358
1584735;14607
1584743;14431
1584751;14601
1584760;14370
1584768;14505
1584776;14304
1584784;14437
1584795;14307
1584804;14501
1584812;14245
1584820;14370
1584828;14120
1584836;14250
1584845;14013
1584853;14169
1584861;13931
1584869;14104
1584877;13857
1584886;13997
1584894;13773
1584902;13922
1584910;13652
1584918;13841
1584926;13669
1584935;13892
1584943;13687
1584951;13884
1584959;13682
1584968;13873
1584977;13677
1584985;13873
1584993;13684
1585001;13864
1585009;13667
1585018;13834
1585026;13612
1585034;13753
1585042;13537
1585050;13674
1585059;13507
1585067;13616
1585078;13508
1585086;13763
1585094;13511
1585103;13626
1585111;13379
1585119;13525
1585127;13338
1585135;13549
1585144;13311
1585152;13500
1585160;13223
1585168;13296
1585176;13021
1585185;13220
1585193;13045
1585201;13247
1585209;13024
1585217;13207
1585225;13100
1585234;13371
1585242;13251
1585250;13445
1585258;13253
1585266;13419
1585275;13246
1585283;13373
1585292;13128
1585300;13822
1585308;13183
1585317;10610
1585325;6361
1585333;4948
1585341;10478
1585349;15107
1585358;15015
1585369;14579
1585377;14307
1585385;14310
1585393;13912
1585402;14020
1585410;13746
1585418;13888
1585426;13629
1585434;13780
1585443;13508
1585451;13675
1585459;13379
1585467;13486
1585475;13190
1585484;13242
1585492;12940
1585500;12988
1585508;12647
1585516;12621
1585524;12225
1585533;12122
1585541;11760
1585549;11828
1585557;11658
1585565;11833
1585574;11837
1585582;12187
1585590;12463
1585598;13061
1585607;13404
1585616;13904
1585624;14144
1585632;14406
1585640;14418
1585650;14668
1585660;14539
1585668;14678
1585676;14429
1585684;14577
1585692;14332
1585701;14486
1585709;14275
1585717;14421
1585725;14186
1585733;14326
1585742;14107
1585750;14223
1585758;14019
1585766;14133
1585774;13924
1585783;14045
1585791;13872
1585799;13988
1585807;13876
1585815;14001
1585823;13850
1585832;13966
1585840;13837
1585848;13926
1585856;13800
1585864;13848
1585873;13749
1585881;13832
1585889;13756
1585897;13826
1585905;13793
1585914;13817
1585922;13781
1585933;13956
1585941;13838
1585949;13989
1585958;13777
1585966;13962
1585974;13739
1585983;13871
1585991;13674
1586000;13793
1586008;13630
1586016;13756
1586024;13544
1586032;13648
1586041;13502
1586049;13612
1586057;13455
1586065;13551
1586073;13408
1586082;13512
1586090;13367
1586098;13325
1586106;13112
1586114;13161
1586122;13112
1586131;13197
1586139;13113
1586147;13160
1586155;13172
1586163;13268
1586172;13330
1586180;13347
1586188;13303
1586196;13301
1586204;13317
1586216;13392
1586224;13389
1586232;13807
1586240;12100
1586248;8509
1586257;5335
1586265;7443
1586273;14322
1586281;15325
1586290;14665
1586299;14341
1586307;14128
1586315;14025
1586323;13724
1586331;13734
1586340;13588
1586348;13633
1586356;13519
1586364;13546
1586372;13430
1586381;13438
1586389;13340
1586397;13335
1586405;13247
1586413;13191
1586422;13061
1586430;12971
1586438;12822
1586446;12603
1586454;12353
1586462;12058
1586471;11865
1586479;11728
1586487;11757
1586498;11983
1586506;12056
1586515;12488
1586523;12779
1586531;13386
1586539;13708
1586547;14182
1586556;14350
1586564;14626
1586572;14600
1586580;14720
1586588;14686
1586597;14734
1586606;14672
1586614;14694
1586622;14615
1586630;14635
1586639;14549
1586647;14526
1586655;14444
1586663;14420
1586671;14374
1586680;14316
1586688;14279
1586696;14263
1586704;14292
1586712;14247
1586721;14281
1586729;14227
1586737;14266
1586745;14166
1586753;14193
1586761;14071
1586770;14140
1586778;14009
1586789;14035
1586797;14195
1586806;14045
1586814;14075
1586822;13965
1586830;13967
1586838;13850
1586846;13933
1586855;13919
1586863;13959
1586871;13899
1586879;13895
1586887;13839
1586896;13838
1586904;13798
1586912;13757
1586920;13730
1586929;13683
1586938;13683
1586946;13620
1586954;13674
1586962;13631
1586970;13667
1586979;13534
1586987;13454
1586995;13230
1587003;13319
1587011;13252
1587020;13325
1587028;13252
1587036;13424
1587044;13365
1587052;13590
1587060;13539
1587072;13617
1587080;13742
1587088;13602
1587096;13548
1587105;13435
1587113;13643
1587121;13444
1587129;11539
1587137;8305
1587145;6522
1587154;10245
1587162;15711
1587170;15560
1587178;14787
1587186;14196
1587195;13950
1587203;13817
1587211;13523
1587219;13493
1587227;13346
1587236;13389
1587244;13275
1587252;13346
1587261;13242
1587269;13331
1587278;13143
1587286;13186
1587294;12955
1587302;12985
1587310;12716
1587319;12699
1587327;12323
1587335;12218
1587343;11800
1587354;11579
1587363;11500
1587371;11406
1587379;11432
1587387;11543
1587395;11782
1587404;12171
1587412;12651
1587420;13183
1587428;13606
1587436;14012
1587444;14183
1587453;14413
1587461;14426
1587469;14548
1587477;14512
1587485;14616
1587494;14486
1587502;14525
1587510;14381
1587518;14463
1587526;14253
1587535;14333
1587543;14122
1587551;14202
1587559;14014
1587567;14106
1587577;13900
1587585;14023
1587593;13878
1587601;14010
1587609;13848
1587618;14024
1587626;13836
1587637;13973
1587645;13976
1587653;13955
1587662;13895
1587670;13895
1587678;13831
1587686;13857
1587694;13786
1587703;13847
1587711;13758
1587719;13831
1587727;13688
1587735;13745
1587743;13623
1587752;13724
1587760;13588
1587768;13712
1587776;13570
1587784;13667
1587793;13493
1587801;13556
1587809;13285
1587817;13357
1587825;13237
1587834;13427
1587842;13295
1587850;13457
1587858;13287
1587866;13515
1587875;13411
1587884;13700
1587892;13551
1587900;13725
1587908;13517
1587919;13648
1587927;13597
1587936;13578
1587944;13931
1587952;12824
1587961;9494
1587969;6471
1587977;6991
1587985;14151
1587993;15574
1588002;15102
1588010;14273
1588018;14172
1588026;13879
1588034;13809
1588042;13525
1588051;13589
1588059;13358
1588067;13471
1588075;13280
1588083;13388
1588092;13159
1588100;13267
1588108;13023
1588116;13129
1588124;12833
1588133;12864
1588141;12472
1588149;12502
1588157;12094
1588165;12030
1588174;11566
1588182;11568
1588190;11252
1588198;11422
1588209;11459
1588218;11810
1588226;11988
1588234;12548
1588242;12935
1588250;13544
1588259;13749
1588267;14141
1588276;14166
1588284;14378
1588292;14253
1588301;14463
1588309;14334
1588317;14525
1588325;14362
1588333;14503
1588342;14303
1588350;14453
1588358;14210
1588366;14364
1588374;14138
1588382;14272
1588391;14020
1588399;14170
1588407;13906
1588415;14093
1588423;13912
1588432;14120
1588440;13931
1588448;14099
1588456;13870
1588464;14026
1588473;13777
1588481;13930
1588492;13760
1588500;13890
1588508;13658
1588517;13756
1588525;13562
1588533;13690
1588541;13512
1588549;13657
1588558;13434
1588566;13588
1588575;13467
1588583;13656
1588591;13495
1588600;13670
1588608;13413
1588616;13483
1588624;13194
1588632;13346
1588641;13140
1588649;13330
1588657;13119
1588665;13354
1588673;13212
1588681;13506
1588690;13409
1588698;13652
1588706;13461
1588714;13612
1588722;13381
1588731;13513
1588739;13239
1588747;13963
1588755;13122
1588763;10487
1588775;5878
1588783;7222
1588791;14256
1588799;15661
1588807;14868
1588816;14429
1588824;14103
1588832;14098
1588840;13742
1588848;13835
1588857;13610
1588865;13743
1588873;13482
1588882;13603
1588890;13356
1588899;13492
1588907;13206
1588915;13308
1588923;13009
1588931;13104
1588940;12798
1588948;12871
1588956;12462
1588964;12401
1588972;11959
1588980;11842
1588989;11429
1588997;11517
1589005;11341
1589013;11597
1589021;11570
1589030;12017
1589038;12240
1589046;12916
1589057;13491
1589065;14123
1589074;14209
1589082;14541
1589090;14413
1589098;14656
1589106;14452
1589115;14623
1589123;14435
1589131;14595
1589139;14346
1589147;14494
1589156;14312
1589164;14526
1589172;14349
1589180;14532
1589188;14326
1589198;14481
1589206;14240
1589214;14395
1589222;14161
1589230;14327
1589239;14073
1589247;14211
1589255;13986
1589263;14118
1589271;13925
1589279;14127
1589288;13969
1589296;14148
1589304;14014
1589312;14127
1589320;13956
1589329;14095
1589340;13995
1589348;14249
1589356;14012
1589364;14130
1589373;13897
1589381;14071
1589389;13840
1589397;14000
1589405;13757
1589414;13950
1589422;13718
1589430;13798
1589438;13457
1589446;13532
1589455;13294
1589463;13489
1589471;13309
1589479;13490
1589487;13296
1589496;13546
1589504;13424
1589512;13654
1589521;13524
1589529;13673
1589538;13484
1589546;13598
1589554;13388
1589562;13470
1589570;13444
1589578;13913
1589587;12242
1589595;8700
1589603;5619
1589611;7614
1589619;14579
1589631;15483
1589639;14652
1589647;14421
1589655;14069
1589663;13991
1589672;13608
1589680;13719
1589688;13456
1589696;13610
1589704;13350
1589713;13480
1589721;13236
1589729;13376
1589737;13154
1589745;13271
1589754;13005
1589762;13077
1589770;12794
1589778;12794
1589786;12418
1589795;12312
1589803;11875
1589811;11774
1589819;11485
1589827;11521
1589836;11414
1589844;11671
1589852;11763
1589861;12186
1589869;12537
1589878;13143
1589886;13522
1589894;13994
1589902;14216
1589913;14615
1589922;14540
1589930;14752
1589938;14550
1589946;14720
1589954;14463
1589962;14614
1589971;14392
1589979;14536
1589987;14289
1589995;14404
1590003;14184
1590012;14325
1590020;14134
1590028;14257
1590036;14110
1590044;14253
1590053;14134
1590061;14277
1590069;14112
1590077;14226
1590085;14101
1590094;14200
1590102;14069
1590110;14123
1590118;13997
1590126;14028
1590135;13985
1590143;14078
1590151;14010
1590159;14061
1590168;14003
1590177;14024
1590185;13958
1590195;14105
1590203;13920
1590212;14052
1590221;13802
1590229;13925
1590237;13725
1590245;13853
1590253;13649
1590262;13783
1590270;13547
1590278;13630
1590286;13345
1590294;13453
1590302;13317
1590311;13481
1590319;13339
1590327;13442
1590335;13375
1590343;13555
1590352;13556
1590360;13669
1590368;13566
1590376;13640
1590384;13549
1590393;13563
1590401;13425
1590409;13753
1590417;13527
1590425;11517
1590434;7983
1590442;6237
1590450;10653
1590458;15761
1590466;15543
1590478;14777
1590486;14351
1590494;14373
1590502;13969
1590510;13984
1590519;13750
1590528;13827
1590536;13647
1590544;13734
1590552;13511
1590561;13527
1590569;13333
1590577;13351
1590585;13111
1590593;13087
1590601;12885
1590610;12828
1590618;12547
1590626;12345
1590634;12041
1590642;11836
1590651;11540
1590659;11422
1590667;11385
1590675;11499
1590683;11570
1590692;11775
1590700;12132
1590708;12581
1590716;13038
1590724;13439
1590733;13809
1590741;13969
1590749;14166
1590760;14359
1590768;14295
1590777;14452
1590785;14315
1590793;14409
1590801;14257
1590809;14315
1590818;14176
1590826;14229
1590834;14120
1590843;14155
1590851;14041
1590860;14102
1590868;14013
1590876;14069
1590884;13992
1590892;14016
1590900;13971
1590909;14019
1590917;13978
1590925;14001
1590933;13966
1590941;13945
1590950;13947
1590958;13951
1590966;14007
1590974;13979
1590982;13951
1590991;13879
1590999;13897
1591007;13842
1591015;13873
1591023;13772
1591032;13812
1591043;13922
1591051;13856
1591059;13949
1591067;13811
1591076;13889
1591084;13683
1591092;13696
1591100;13531
1591108;13545
1591117;13438
1591125;13487
1591133;13408
1591141;13464
1591150;13497
1591159;13599
1591167;13674
1591175;13728
1591183;13741
1591191;13723
1591199;13719
1591208;13647
1591216;13604
1591224;13614
1591232;13990
1591240;12510
1591249;9181
1591257;6583
1591265;8342
1591273;15132
1591281;15955
1591290;15164
1591298;14587
1591306;14214
1591314;14142
1591322;13801
1591334;13708
1591342;13770
1591350;13611
1591358;13579
1591366;13426
1591375;13367
1591383;13254
1591391;13194
1591399;13086
1591407;13011
1591416;12880
1591424;12743
1591432;12596
1591440;12390
1591448;12129
1591457;11814
1591465;11599
1591474;11369
1591482;11374
1591490;11342
1591498;11481
1591507;11604
1591515;11996
1591523;12327
1591531;12920
1591539;13269
1591548;13718
1591556;13874
1591564;14166
1591572;14112
1591580;14298
1591589;14181
1591597;14340
1591605;14186
1591616;14271
1591624;14313
1591633;14208
1591641;14182
1591649;14094
1591657;14039
1591665;13968
1591674;13867
1591682;13859
1591690;13816
1591698;13850
1591706;13818
1591715;13876
1591723;13831
1591731;13906
1591739;13837
1591747;13871
1591756;13788
1591764;13892
1591772;13788
1591780;13858
1591789;13723
1591798;13810
1591806;13689
1591814;13801
1591822;13659
1591830;13806
1591838;13663
1591847;13800
1591855;13643
1591863;13804
1591871;13668
1591879;13815
1591888;13607
1591899;13712
1591907;13758
1591915;13765
1591923;13657
1591932;13551
1591940;13374
1591948;13393
1591956;13324
1591964;13387
1591973;13324
1591981;13380
1591989;13327
1591997;13503
1592005;13520
1592014;13655
1592022;13520
1592030;13621
1592038;13463
1592046;13514
1592055;13326
1592063;13494
1592071;13755
1592079;12566
1592087;8970
1592095;6141
1592104;7155
1592112;14392
1592121;15381
1592129;14997
1592137;14232
1592146;14239
1592154;13903
1592162;13888
1592170;13611
1592182;13700
1592190;13647
1592198;13648
1592206;13493
1592214;13464
1592222;13292
1592231;13311
1592239;13155
1592247;13161
1592255;12959
1592263;12953
1592272;12693
1592280;12608
1592288;12226
1592296;12115
1592304;11701
1592313;11662
1592321;11426
1592329;11623
1592337;11616
1592345;11961
1592354;12052
1592362;12653
1592370;12980
1592378;13589
1592386;13765
1592394;14200
1592403;14188
1592411;14454
1592419;14334
1592427;14545
1592436;14313
1592445;14495
1592453;14220
1592463;14338
1592471;14266
1592479;14307
1592489;14148
1592497;14226
1592505;14065
1592513;14123
1592521;13943
1592530;14072
1592538;13917
1592546;14067
1592554;13934
1592562;14070
1592571;13879
1592579;14045
1592587;13882
1592595;14041
1592603;13836
1592612;13970
1592620;13773
1592628;13927
1592636;13721
1592644;13876
1592653;13683
1592661;13846
1592669;13624
1592677;13778
1592685;13571
1592694;13775
1592702;13560
1592710;13764
1592718;13570
1592726;13716
1592734;13425
1592743;13499
1592754;13331
1592762;13511
1592770;13373
1592778;13464
1592787;13323
1592795;13539
1592803;13485
1592812;13739
1592820;13605
1592829;13773
1592837;13580
1592845;13716
1592853;13479
1592861;13592
1592870;13427
1592878;13991
1592886;12397
1592894;9002
1592902;5881
1592911;7699
1592919;14652
1592927;15792
1592935;14943
1592943;14534
1592952;14165
1592960;14142
1592968;13718
1592976;13790
1592984;13524
1592993;13664
1593001;13421
1593009;13542
1593017;13289
1593025;13426
1593037;13206
1593045;13338
1593053;13069
1593061;13104
1593069;12805
1593078;12830
1593086;12447
1593094;12389
1593102;11881
1593110;11835
1593118;11493
1593127;11632
1593135;11456
1593144;11755
1593152;11740
1593160;12282
1593169;12545
1593177;13248
1593185;13519
1593193;14069
1593201;14095
1593210;14448
1593218;14329
1593226;14577
1593234;14395
1593242;14580
1593251;14352
1593259;14502
1593267;14271
1593275;14424
1593283;14155
1593292;14293
1593300;14089
1593308;14236
1593319;14128
1593327;14325
1593336;14101
1593344;14231
1593352;14040
1593360;14198
1593368;13959
1593377;14118
1593385;13906
1593393;14069
1593401;13855
1593409;14043
1593417;13837
1593426;14002
1593434;13767
1593442;13970
1593451;13742
1593459;13888
1593468;13665
1593476;13801
1593484;13620
1593492;13838
1593500;13657
1593509;13856
1593517;13672
1593525;13868
1593533;13614
1593541;13712
1593550;13423
1593558;13580
1593566;13415
1593574;13610
1593582;13442
1593591;13597
1593602;13581
1593610;13910
1593618;13752
1593626;13939
1593635;13742
1593643;13906
1593651;13656
1593659;13803
1593667;13531
1593676;13910
1593684;13841
1593692;12226
1593700;8294
1593708;6118
1593716;9245
1593725;15698
1593733;15680
1593741;15159
1593749;14407
1593757;14433
1593766;14018
1593774;14032
1593783;13799
1593791;13876
1593799;13660
1593808;13750
1593816;13518
1593824;13580
1593832;13309
1593840;13373
1593849;13146
1593857;13179
1593865;12900
1593873;12921
1593884;12640
1593893;12668
1593901;12188
1593909;12141
1593917;11710
1593925;11755
1593934;11543
1593942;11809
1593950;11747
1593958;12133
1593966;12270
1593975;12901
1593983;13200
1593991;13786
1593999;13940
1594007;14386
1594015;14401
1594024;14695
1594032;14613
1594040;14798
1594048;14609
1594056;14698
1594065;14509
1594073;14581
1594081;14426
1594089;14530
1594098;14326
1594107;14389
1594115;14226
1594123;14261
1594131;14124
1594139;14186
1594148;14062
1594156;14137
1594164;14038
1594175;14208
1594183;14053
1594192;14209
1594200;13967
1594208;14111
1594216;13869
1594224;13979
1594233;13764
1594241;13945
1594249;13705
1594257;13856
1594265;13674
1594274;13839
1594282;13695
1594290;13859
1594298;13713
1594306;13850
1594314;13657
1594323;13709
1594331;13450
1594339;13514
1594347;13389
1594355;13538
1594364;13461
1594372;13583
1594380;13539
1594388;13725
1594396;13775
1594406;13901
1594414;13816
1594422;13872
1594430;13807
1594438;13816
1594447;13740
1594458;13830
1594466;14190
1594474;13708
1594482;10823
1594491;7663
1594499;6600
1594507;12904
1594515;16163
1594523;15701
1594532;14755
1594540;14371
1594548;14079
1594556;13972
1594564;13664
1594573;13728
1594581;13517
1594589;13554
1594597;13403
1594605;13450
1594614;13309
1594622;13318
1594630;13137
1594638;13091
1594646;12933
1594654;12844
1594663;12613
1594671;12452
1594679;12172
1594687;11976
1594695;11677
1594704;11447
1594712;11328
1594721;11339
1594729;11391
1594739;11731
1594748;11872
1594756;12395
1594764;12672
1594773;13262
1594781;13527
1594790;13971
1594798;14036
1594806;14321
1594814;14314
1594822;14472
1594831;14344
1594839;14452
1594847;14318
1594855;14352
1594863;14234
1594872;14272
1594880;14164
1594888;14153
1594896;14029
1594904;14001
1594913;13950
1594921;14012
1594929;13992
1594937;13997
1594945;13967
1594953;13964
1594962;13917
1594970;13852
1594978;13859
1594986;13823
1594994;13884
1595003;13883
1595011;13921
1595022;14006
1595030;13912
1595038;14008
1595047;13850
1595055;13921
1595063;13782
1595071;13882
1595080;13763
1595089;13752
1595097;13535
1595105;13505
1595113;13378
1595121;13438
1595130;13376
1595138;13412
1595146;13367
1595154;13459
1595162;13496
1595171;13619
1595179;13603
1595187;13603
1595195;13605
1595203;13573
1595212;13560
1595220;13508
1595228;13444
1595236;13904
1595244;13262
1595252;10398
1595261;7106
1595269;6189
1595277;12678
1595285;15910
1595293;15462
1595305;14555
1595313;14231
1595321;14137
1595329;13799
1595337;13717
1595346;13547
1595354;13542
1595362;13393
1595370;13382
1595378;13278
1595387;13253
1595395;13149
1595404;13075
1595412;12980
1595420;12894
1595429;12787
1595437;12604
1595445;12392
1595453;12088
1595461;11881
1595470;11603
1595478;11469
1595486;11343
1595494;11435
1595502;11452
1595511;11659
1595519;11856
1595527;12327
1595535;12714
1595543;13279
1595551;13542
1595560;13959
1595568;14046
1595576;14294
1595584;14204
1595596;14336
1595604;14430
1595612;14350
1595620;14342
1595628;14265
1595636;14283
1595645;14212
1595653;14131
1595661;14060
1595669;14027
1595677;14034
1595686;13996
1595694;14010
1595702;13953
1595710;13916
1595719;13840
1595728;13886
1595736;13824
1595744;13864
1595752;13788
1595760;13871
1595769;13821
1595777;13903
1595785;13782
1595793;13885
1595801;13742
1595810;13814
1595818;13657
1595826;13784
1595834;13658
1595842;13775
1595850;13633
1595859;13796
1595867;13636
1595878;13717
1595886;13713
1595895;13561
1595903;13537
1595911;13571
1595919;13606
1595927;13588
1595935;13526
1595944;13579
1595952;13641
1595960;13812
1595968;13810
1595976;13872
1595985;13810
1595993;13846
1596001;13719
1596009;13763
1596017;13575
1596026;13981
1596034;13650
1596043;11498
1596051;7542
1596059;5703
1596068;10160
1596076;15680
1596084;15441
1596092;14838
1596100;14231
1596109;14222
1596117;13835
1596125;13858
1596133;13611
1596141;13728
1596150;13509
1596161;13613
1596169;13555
1596177;13483
1596185;13372
1596194;13329
1596202;13167
1596210;13115
1596218;12943
1596226;12866
1596234;12611
1596243;12480
1596251;12113
1596259;11955
1596267;11647
1596275;11665
1596284;11546
1596292;11728
1596300;11752
1596308;12143
1596316;12346
1596325;12990
1596333;13312
1596341;13870
1596349;14003
1596358;14397
1596367;14365
1596375;14601
1596383;14445
1596391;14601
1596399;14361
1596408;14477
1596416;14257
1596424;14404
1596432;14162
1596481;16144
1596489;16010
1596498;15405
1596506;15257
1596514;14768
1596522;14733
1596530;14375
1596539;14405
1596547;14047
1596555;14084
1596563;13794
1596571;13873
1596580;13613
1596588;13688
1596596;13474
1596604;13617
1596612;13415
1596621;13520
1596629;13325
1596637;13469
1596645;13292
1596653;13416
1596662;13211
1596671;13185
1596679;12929
1596687;13010
1596695;12897
1596703;13020
1596712;12890
1596720;12995
1596728;13010
1596736;13181
1596744;13190
1596753;13292
1596764;13249
1596772;13481
1596780;13251
1596788;13389
1596797;13140
1596805;13280
1596813;13694
1596821;12831
1596829;9356
1596838;6079
1596846;6083
1596854;13496
1596862;15476
1596870;15037
1596879;14240
1596887;14133
1596895;13837
1596903;13740
1596911;13523
1596920;13536
1596928;13384
1596936;13416
1596944;13270
1596952;13319
1596961;13185
1596969;13183
1596977;13090
1596985;13039
1596993;12951
1597001;12894
1597011;12753
1597019;12611
1597027;12402
1597035;12156
1597043;11915
1597054;11840
1597063;11676
1597071;11825
1597079;11745
1597087;12053
1597096;12175
1597104;12712
1597112;12999
1597120;13575
1597128;13813
1597137;14201
1597145;14287
1597153;14496
1597161;14436
1597169;14546
1597178;14464
1597186;14490
1597194;14373
1597202;14407
1597210;14291
1597219;14293
1597227;14252
1597235;14213
1597243;14138
1597251;14134
1597260;14111
1597268;14085
1597276;14073
1597284;14049
1597292;14030
1597300;13956
1597309;13971
1597317;13932
1597325;13972
1597345;14314
1597353;14427
1597361;14152
1597369;14078
1597378;13804
1597386;13799
1597395;13599
1597403;13647
1597411;13595
1597419;13756
1597427;13791
1597436;13889
1597444;13852
1597452;13867
1597460;13806
1597468;13825
1597477;13774
1597485;13719
1597493;13657
1597501;13580
1597509;13975
1597518;13756
1597526;11321
1597534;7312
1597542;5261
1597550;10568
1597559;15851
1597567;15513
1597575;14868
1597583;14348
1597591;14289
1597599;13958
1597608;13864
1597616;13680
1597627;13716
1597635;13796
1597644;13629
1597652;13611
1597660;13436
1597668;13391
1597676;13263
1597684;13201
1597694;13026
1597702;12928
1597710;12736
1597718;12577
1597726;12370
1597735;12127
1597743;11875
1597751;11709
1597759;11697
1597767;11666
1597776;11772
1597784;11908
1597792;12232
1597800;12573
1597808;13103
1597817;13456
1597825;13877
1597833;14037
1597841;14316
1597849;14308
1597858;14467
1597866;14374
1597874;14481
1597882;14364
1597890;14477
1597898;14327
1597910;14420
1597918;14466
1597926;14313
1597934;14313
1597943;14244
1597951;14253
1597959;14204
1597967;14167
1597975;14145
1597983;14145
1597992;14210
1598001;14169
1598009;14181
1598017;14014
1598025;13889
1598034;13741
1598042;13765
1598050;13660
1598058;13771
1598066;13734
1598075;13879
1598083;13862
1598091;14010
1598099;13919
1598107;14049
1598116;13948
1598124;14081
1598132;13918
1598140;14028
1598148;13824
1598157;13945
1598165;14183
1598173;13886
1598181;11145
1598192;7039
1598201;7534
1598209;15032
1598217;16701
1598225;15908
1598233;15083
1598242;14665
1598250;14452
1598258;14248
1598266;13966
1598274;13915
1598282;13754
1598291;13752
1598299;13575
1598307;13584
1598315;13407
1598323;13408
1598332;13219
1598341;13242
1598349;12995
1598357;12987
1598365;12697
1598374;12634
1598382;12250
1598390;12136
1598398;11720
1598406;11727
1598415;11512
1598423;11730
1598431;11672
1598439;12056
1598447;12191
1598456;12799
1598464;13030
1598475;13780
1598483;14130
1598491;14377
1598500;14382
1598508;14467
1598516;14391
1598524;14468
1598532;14372
1598541;14392
1598549;14232
1598557;14262
1598565;14082
1598573;14138
1598582;13944
1598590;14029
1598598;13862
1598606;13939
1598614;13789
1598622;13916
1598631;13765
1598639;13924
1598648;13733
1598656;13803
1598664;13452
1598673;13539
1598681;13391
1598689;13573
1598697;13435
1598705;13695
1598714;13606
1598722;13905
1598730;13825
1598738;14057
1598746;13831
1598755;13992
1598766;13903
1598774;14007
1598782;13843
1598790;13849
1598799;13625
1598807;14172
1598815;13543
1598823;10891
1598831;6842
1598840;5328
1598848;11636
1598856;16022
1598864;15428
1598872;14881
1598881;14270
1598889;14302
1598897;13907
1598905;13938
1598913;13658
1598921;13777
1598930;13515
1598938;13634
1598946;13366
1598954;13444
1598962;13153
1598971;13296
1598980;12996
1598988;13095
1598996;12784
1599004;12828
1599013;12417
1599021;12354
1599029;11894
1599037;11811
1599048;11514
1599057;11697
1599065;11602
1599073;11805
1599081;11833
1599089;12326
1599098;12628
1599106;13265
1599114;13530
1599122;14023
1599130;14066
1599139;14375
1599147;14245
1599155;14453
1599163;14258
1599171;14402
1599180;14149
1599188;14299
1599196;14073
1599204;14231
1599212;13971
1599220;14129
1599229;13914
1599237;14098
1599245;13842
1599253;14002
1599261;13783
1599270;13967
1599278;13771
1599286;13990
1599295;13806
1599303;14041
1599312;13818
1599320;13971
1599330;13737
1599338;13802
1599347;13497
1599356;13649
1599364;13448
1599372;13686
1599380;13551
1599388;13759
1599397;13609
1599405;13853
1599413;13676
1599421;13894
1599429;13652
1599438;13808
1599446;13549
1599454;13712
1599462;13466
1599470;13709
1599479;14152
1599487;12987
1599495;8892
1599503;5139
1599511;5812
1599519;13960
1599528;15584
1599536;15272
1599544;14498
1599552;14528
1599560;14084
1599569;14003
1599577;13703
1599585;13804
1599593;13582
1599601;13671
1599613;13444
1599621;13634
1599629;13306
1599637;13424
1599645;13103
1599654;13195
1599662;12882
1599671;12943
1599679;12539
1599687;12527
1599696;12092
1599704;12068
1599712;11671
1599720;11793
1599728;11607
1599737;11887
1599745;11815
1599753;12276
1599761;12479
1599769;13128
1599778;13366
1599786;13920
1599794;14034
1599802;14443
1599810;14387
1599818;14635
1599827;14495
1599835;14657
1599843;14460
1599851;14613
1599859;14455
1599868;14597
1599876;14451
1599884;14533
1599895;14398
1599903;14623
1599912;14362
1599920;14491
1599928;14242
1599936;14400
1599944;14120
1599953;14276
1599961;14022
1599970;14198
1599978;13952
1599986;14123
1599995;13861
1600003;14021
1600011;13823
1600019;14012
1600027;13804
1600036;14014
1600044;13815
1600052;13921
1600060;13617
1600068;13633
1600077;13410
1600085;13624
1600093;13494
1600101;13665
1600109;13596
1600118;13787
1600126;13709
1600134;13874
1600142;13741
1600150;13837
1600158;13715
1600167;13818
1600175;13711
1600186;13874
1600194;13616
1600202;14154
1600211;13817
1600219;11566
1600227;7137
1600235;5122
1600243;9482
1600252;15528
1600260;15445
1600268;14937
1600276;14336
1600284;14352
1600294;13902
1600302;13902
1600310;13659
1600318;13723
1600326;13494
1600335;13613
1600343;13457
1600351;13553
1600359;13347
1600367;13402
1600376;13187
1600384;13207
1600392;12979
1600400;12908
1600408;12634
1600417;12477
1600425;12135
1600433;11986
1600441;11763
1600449;11692
1600457;11613
1600469;11890
1600477;11901
1600485;12324
1600493;12517
1600502;13148
1600510;13399
1600518;13929
1600526;13996
1600534;14314
1600542;14219
1600551;14378
1600559;14228
1600567;14373
1600575;14173
1600583;14297
1600592;14132
1600600;14213
1600609;14081
1600617;14193
1600625;14050
1600634;14136
1600642;14017
1600650;14090
1600658;13967
1600666;14021
1600675;13942
1600683;14041
1600691;14020
1600699;14049
1600707;14015
1600716;13988
1600724;13963
1600732;13900
1600740;13864
1600751;13976
1600760;13843
1600768;13975
1600776;13776
1600784;13897
1600792;13717
1600801;13808
1600809;13632
1600817;13760
1600825;13588
1600833;13694
1600841;13578
1600850;13697
1600858;13573
1600866;13580
1600874;13358
1600882;13319
1600891;13197
1600899;13284
1600907;13213
1600915;13270
1600924;13232
1600933;13331
1600941;13395
1600949;13488
1600957;13496
1600965;13530
1600974;13554
1600982;13516
1600990;13527
1600998;13452
1601006;13411
1601015;13600
1601023;13859
1601034;10797
1601042;6566
1601050;5310
1601059;11174
1601067;15533
1601075;15183
1601083;14680
1601091;14324
1601100;14268
1601108;13943
1601116;13915
1601124;13784
1601132;13801
1601140;13707
1601149;13693
1601157;13587
1601165;13578
1601173;13524
1601181;13453
1601190;13324
1601198;13217
1601206;13139
1601214;12975
1601222;12837
1601231;12630
1601239;12438
1601248;12146
1601256;11993
1601264;11841
1601273;11898
1601281;11851
1601289;12059
1601297;12204
1601305;12667
1601317;13364
1601325;13780
1601333;14222
1601341;14387
1601349;14623
1601358;14648
1601366;14758
1601374;14692
1601382;14707
1601390;14634
1601399;14614
1601407;14539
1601415;14515
1601423;14451
1601431;14363
1601439;14275
1601448;14242
1601456;14238
1601464;14175
1601472;14207
1601480;14142
1601489;14174
1601497;14128
1601505;14163
1601513;14084
1601521;14134
1601530;14019
1601538;14107
1601546;13991
1601555;14108
1601563;13993
1601572;14112
1601580;13957
1601588;14074
1601596;13860
1601607;13920
1601616;14014
1601624;13928
1601632;13914
1601640;13889
1601648;13829
1601657;13694
1601665;13542
1601673;13490
1601681;13454
1601689;13494
1601698;13473
1601706;13491
1601714;13481
1601722;13647
1601730;13673
1601738;13811
1601747;13753
1601755;13835
1601763;13719
1601771;13810
1601779;13671
1601788;13735
1601796;13528
1601804;14228
1601812;13128
1601820;10045
1601829;6552
1601837;6615
1601845;13572
1601853;15997
1601861;15192
1601870;14644
1601879;14154
1601889;14069
1601897;13944
1601905;13840
1601914;13740
1601922;13689
1601931;13582
1601939;13570
1601947;13442
1601956;13384
1601964;13227
1601972;13202
1601980;13015
1601988;13016
1601997;12834
1602005;12779
1602013;12478
1602021;12383
1602029;12031
1602038;11899
1602046;11615
1602054;11702
1602062;11582
1602070;11837
1602078;11875
1602087;12342
1602095;12616
1602103;13232
1602111;13510
1602119;14015
1602128;14086
1602136;14409
1602144;14290
1602152;14517
1602160;14364
1602172;14489
1602180;14498
1602188;14482
1602196;14343
1602204;14417
1602213;14291
1602221;14288
1602230;14144
1602238;14211
1602246;14059
1602255;14123
1602263;13973
1602271;14046
1602279;13883
1602287;14017
1602296;13887
1602304;13985
1602312;13786
1602320;13942
1602328;13800
1602337;13935
1602345;13748
1602353;13893
1602361;13747
1602369;13962
1602377;13791
1602386;13921
1602394;13642
1602402;13649
1602410;13405
1602418;13576
1602427;13411
1602435;13594
1602443;13387
1602454;13668
1602462;13712
1602471;13824
1602479;13682
1602487;13770
1602495;13647
1602503;13766
1602512;13636
1602520;13718
1602528;13513
1602536;13696
1602544;13908
1602554;12502
1602562;8890
1602570;6739
1602578;8456
1602586;15562
1602595;15943
1602603;15355
1602611;14446
1602619;14308
1602627;13954
1602636;13922
1602644;13610
1602652;13723
1602660;13451
1602668;13566
1602676;13320
1602685;13485
1602693;13236
1602701;13360
1602709;13088
1602717;13188
1602726;12836
1602737;12837
1602745;12571
1602753;12439
1602761;12018
1602770;11877
1602778;11478
1602786;11497
1602794;11349
1602802;11583
1602811;11529
1602819;11927
1602827;12111
1602835;12780
1602843;13082
1602852;13713
1602860;13870
1602868;14277
1602877;14196
1602885;14465
1602894;14312
1602902;14525
1602910;14340
1602918;14503
1602926;14268
1602935;14411
1602943;14169
1602951;14294
1602959;14043
1602967;14200
1602975;13954
1602984;14115
1602992;13964
1603000;14130
1603008;13952
1603016;14155
1603028;14046
1603036;14253
1603044;14006
1603052;14141
1603060;13941
1603069;14099
1603077;13820
1603085;13981
1603093;13739
1603101;13880
1603110;13632
1603118;13835
1603126;13635
1603134;13857
1603142;13605
1603151;13703
1603159;13363
1603167;13458
1603175;13189
1603183;13418
1603192;13223
1603200;13397
1603209;13252
1603217;13461
1603225;13366
1603234;13607
1603242;13414
1603250;13611
1603258;13428
1603266;13544
1603274;13317
1603283;13406
1603291;13211
1603299;13980
1603310;11801
1603319;8147
1603327;5263
1603335;8475
1603343;14964
1603351;15628
1603359;14728
1603368;14386
1603376;13986
1603384;13941
1603392;13568
1603400;13691
1603409;13406
1603417;13554
1603425;13297
1603433;13419
1603441;13155
1603450;13238
1603458;12971
1603466;13065
1603474;12816
1603482;12878
1603491;12580
1603499;12603
1603507;12265
1603515;12219
1603523;11818
1603532;11744
1603541;11462
1603549;11570
1603557;11468
1603565;11720
1603574;11795
1603582;12280
1603593;12856
1603601;13580
1603609;13778
1603618;14275
1603626;14237
1603634;14580
1603642;14403
1603650;14619
1603658;14413
1603667;14568
1603675;14293
1603683;14475
1603691;14257
1603699;14437
1603708;14211
1603716;14303
1603724;14035
1603732;14182
1603740;13980
1603749;14101
1603757;13939
1603765;14082
1603773;13928
1603781;14069
1603790;13939
1603798;14049
1603806;13884
1603814;13956
1603822;13805
1603831;13941
1603839;13830
1603848;13900
1603856;13770
1603864;13799
1603875;13713
1603883;13947
1603892;13684
1603900;13866
1603908;13679
1603917;13885
1603925;13689
1603933;13834
1603941;13571
1603949;13600
1603958;13366
1603966;13544
1603974;13427
1603982;13615
1603990;13458
1603998;13649
1604007;13544
1604015;13754
1604023;13684
1604031;13810
1604039;13675
1604048;13767
1604056;13635
1604064;13721
1604072;13575
1604080;13606
1604089;13913
1604097;13836
1604105;11472
1604113;7412
1604121;5183
1604130;9604
1604138;15303
1604146;15423
1604154;14710
1604165;14436
1604174;14143
1604182;14066
1604190;13763
1604198;13816
1604206;13574
1604216;13672
1604224;13475
1604232;13594
1604240;13387
1604248;13457
1604257;13246
1604265;13259
1604273;13013
1604281;13000
1604289;12736
1604297;12629
1604306;12301
1604314;12133
1604322;11798
1604330;11693
1604338;11548
1604347;11634
1604355;11699
1604363;11887
1604371;12072
1604379;12458
1604388;12882
1604396;13325
1604404;13690
1604412;14014
1604420;14257
1604429;14373
1604437;14446
1604448;14593
1604456;14496
1604464;14620
1604473;14446
1604481;14548
1604489;14348
1604497;14427
1604505;14266
1604514;14332
1604522;14170
1604531;14252
1604539;14127
1604547;14155
1604556;14019
1604564;14053
1604572;13944
1604580;13960
1604588;13895
1604596;13930
1604605;13933
1604613;13959
1604621;13916
1604629;13894
1604637;13901
1604646;13879
1604654;13945
1604662;13912
1604670;13937
1604678;13898
1604687;13902
1604695;13828
1604703;13842
1604711;13734
1604719;13790
1604731;13827
1604739;13734
1604747;13811
1604755;13677
1604763;13750
1604772;13660
1604780;13777
1604788;13676
1604796;13639
1604804;13463
1604813;13468
1604821;13379
1604829;13420
1604837;13429
1604845;13450
1604855;13473
1604863;13522
1604871;13602
1604879;13658
1604887;13659
1604895;13687
1604904;13721
1604912;13646
1604920;13668
1604928;13557
1604936;13650
1604945;14020
1604953;12683
1604961;8870
1604969;5696
1604977;6772
1604986;14242
1604994;15368
1605002;14949
1605013;14382
1605021;14243
1605030;14049
1605038;13805
1605046;13766
1605054;13640
1605062;13558
1605071;13506
1605079;13431
1605087;13377
1605095;13282
1605103;13212
1605112;13067
1605120;13004
1605128;12879
1605136;12782
1605144;12549
1605153;12406
1605161;12069
1605169;11903
1605177;11606
1605185;11563
1605194;11410
1605203;11581
1605211;11583
1605219;11910
1605227;12059
1605235;12599
1605244;12948
1605252;13563
1605260;13748
1605268;14179
1605276;14174
1605285;14446
1605296;14540
1605304;14555
1605312;14508
1605320;14477
1605329;14399
1605337;14396
1605345;14355
1605353;14342
1605361;14228
1605370;14246
1605378;14162
1605386;14195
1605394;14083
1605402;14149
1605411;14013
1605419;14069
1605427;13904
1605435;14015
1605443;13867
1605452;13994
1605460;13856
1605468;14024
1605476;13872
1605484;14017
1605492;13849
1605501;13979
1605509;13775
1605517;13915
1605526;13703
1605534;13866
1605543;13656
1605551;13789
1605559;13537
1605567;13709
1605577;13636
1605587;13737
1605595;13663
1605603;13679
1605611;13538
1605619;13580
1605628;13507
1605636;13588
1605644;13488
1605652;13567
1605660;13472
1605669;13536
1605677;13332
1605685;13324
1605693;13157
1605701;13310
1605710;13179
1605718;13339
1605726;13178
1605734;13371
1605742;13345
1605751;13620
1605759;13516
1605767;13706
1605775;13521
1605783;13714
1605791;13478
1605800;13633
1605808;13410
1605816;14189
1605824;13230
1605832;10478
1605841;6671
1605849;6118
1605857;12702
1605868;15825
1605876;15202
1605885;14727
1605893;14454
1605901;14380
1605910;14029
1605918;14032
1605927;13807
1605935;13857
1605943;13666
1605951;13786
1605959;13594
1605968;13644
1605976;13350
1605984;13433
1605992;13197
1606000;13293
1606009;12986
1606017;13016
1606025;12644
1606033;12627
1606041;12213
1606050;12181
1606058;11777
1606066;11862
1606074;11691
1606082;11981
1606090;11929
1606099;12347
1606107;12524
1606115;13196
1606123;13451
1606131;14009
1606140;14079
1606181;16760
1606189;16302
1606197;16000
1606205;15443
1606213;15333
1606222;14972
1606231;14881
1606239;14576
1606247;14567
1606255;14263
1606264;14317
1606272;14115
1606280;14162
1606288;13961
1606296;13997
1606305;13857
1606313;13947
1606321;13819
1606329;13830
1606337;13731
1606345;13725
1606354;13658
1606362;13670
1606370;13658
1606378;13681
1606386;13622
1606395;13616
1606403;13603
1606411;13529
1606419;13409
1606427;13298
1606436;13288
1606444;13226
1606452;13262
1606463;13384
1606471;13278
1606480;13411
1606488;13214
1606496;13253
1606504;12990
1606512;13071
1606521;12946
1606529;13061
1606537;12989
1606545;13102
1606554;13098
1606563;13262
1606571;13324
1606579;13436
1606587;13391
1606595;13417
1606604;13351
1606612;13319
1606620;13232
1606628;13180
1606636;13666
1606644;12476
1606653;9346
1606661;6869
1606669;7582
1606677;14573
1606685;16023
1606694;15200
1606702;14551
1606710;14071
1606718;13970
1606726;13662
1606735;13611
1606746;13537
1606754;13420
1606762;13429
1606770;13258
1606779;13261
1606787;13113
1606795;13108
1606803;12990
1606811;12914
1606820;12764
1606828;12723
1606836;12539
1606844;12383
1606852;12159
1606861;11910
1606869;11705
1606878;11544
1606886;11519
1606894;11560
1606903;11722
1606911;11830
1606919;12124
1606927;12464
1606935;12985
1606943;13317
1606952;13748
1606960;13929
1606968;14233
1606976;14268
1606984;14429
1606993;14373
1607001;14524
1607009;14364
1607017;14459
1607028;14387
1607037;14326
1607045;14276
1607053;14148
1607061;14102
1607069;14035
1607078;14013
1607086;13985
1607094;13980
1607102;13996
1607110;13973
1607119;13963
1607127;13956
1607135;13975
1607143;13895
1607151;13947
1607160;13917
1607168;13965
1607176;13888
1607184;14005
1607192;13937
1607201;14083
1607210;13922
1607218;13952
1607226;13715
1607234;13744
1607242;13508
1607251;13583
1607259;13366
1607267;13537
1607275;13440
1607283;13654
1607292;13561
1607300;13764
1607308;13647
1607319;13814
1607327;13874
1607336;13835
1607344;13734
1607352;13672
1607360;13487
1607368;14014
1607377;13424
1607385;10708
1607393;6939
1607401;5756
1607409;11843
1607418;16039
1607426;15451
1607434;14783
1607442;14249
1607450;14233
1607459;13814
1607467;13747
1607475;13520
1607483;13581
1607491;13368
1607500;13497
1607508;13348
1607516;13459
1607524;13246
1607532;13331
1607542;13067
1607550;13138
1607558;12857
1607566;12874
1607574;12505
1607582;12446
1607591;12026
1607602;11894
1607610;11731
1607618;11659
1607626;11550
1607635;11695
1607643;11747
1607651;12138
1607659;12447
1607667;13058
1607676;13419
1607684;13915
1607692;14071
1607700;14402
1607708;14391
1607717;14620
1607725;14508
1607733;14701
1607741;14473
1607749;14600
1607758;14429
1607766;14582
1607774;14383
1607782;14520
1607790;14274
1607799;14434
1607807;14196
1607815;14377
1607823;14142
1607831;14327
1607839;14100
1607848;14319
1607857;14068
1607865;14242
1607873;14009
1607884;14221
1607892;14125
1607900;14191
1607909;14004
1607917;14069
1607926;13905
1607934;13924
1607942;13650
1607950;13723
1607958;13576
1607966;13728
1607975;13586
1607983;13842
1607991;13757
1607999;14037
1608007;13832
1608016;13991
1608024;13772
1608032;13942
1608040;13701
1608048;13868
1608057;13615
1608065;13717
1608073;14042
1608081;13736
1608089;10605
1608098;6661
1608106;4857
1608114;11312
1608122;15621
1608130;15574
1608138;14691
1608147;14566
1608155;14233
1608166;14148
1608174;13953
1608183;13998
1608191;13766
1608199;13812
1608207;13535
1608215;13613
1608223;13395
1608233;13490
1608241;13212
1608249;13315
1608257;13021
1608265;13047
1608274;12715
1608282;12720
1608290;12263
1608298;12169
1608306;11774
1608315;11809
1608323;11523
1608331;11745
1608339;11591
1608347;11914
1608356;11989
1608364;12601
1608372;12884
1608380;13575
1608388;13768
1608397;14203
1608405;14158
1608413;14453
1608421;14326
1608429;14503
1608438;14318
1608449;14525
1608457;14364
1608465;14473
1608473;14205
1608482;14303
1608490;14006
1608498;14119
1608506;13864
1608514;14013
1608522;13758
1608531;13948
1608539;13733
1608548;13908
1608556;13680
1608564;13877
1608573;13650
1608581;13818
1608589;13640
1608597;13868
1608605;13621
1608614;13801
1608622;13598
1608630;13704
1608638;13392
1608646;13513
1608655;13321
1608663;13474
1608671;13298
1608679;13539
1608687;13462
1608696;13728
1608704;13618
1608712;13821
1608720;13707
1608731;13935
1608740;13779
1608748;13949
1608756;13674
1608764;13798
1608772;13768
1608781;14202
1608789;11990
1608797;8078
1608805;4966
1608813;8690
1608822;15312
1608830;15863
1608838;14992
1608846;14697
1608854;14309
1608863;14235
1608872;13830
1608880;13948
1608888;13719
1608896;13847
1608904;13598
1608913;13743
1608921;13485
1608929;13542
1608937;13312
1608945;13405
1608954;13182
1608962;13223
1608970;12913
1608978;12886
1608986;12561
1608995;12457
1609003;12075
1609011;11976
1609022;11744
1609030;11988
1609039;11835
1609047;12105
1609055;12121
1609063;12720
1609071;12971
1609080;13630
1609088;13830
1609096;14288
1609104;14268
1609112;14564
1609121;14456
1609129;14660
1609137;14456
1609145;14578
1609153;14371
1609161;14451
1609170;14239
1609178;14367
1609186;14178
1609195;14225
1609203;14074
1609212;14175
1609220;14014
1609228;14104
1609236;13982
1609244;14088
1609253;13976
1609261;14033
1609269;13931
1609277;13999
1609285;13908
1609294;13994
1609305;13978
1609313;14223
1609321;14001
1609329;14178
1609338;13803
1609346;13865
1609354;13616
1609362;13763
1609370;13574
1609379;13759
1609387;13665
1609395;13886
1609403;13790
1609411;13972
1609420;13838
1609428;13970
1609436;13813
1609444;13935
1609452;13774
1609460;13842
1609469;13663
1609477;13741
1609485;14202
1609493;13019
1609501;9347
1609510;6469
1609519;7436
1609527;14931
1609535;16087
1609543;15413
1609552;14623
1609560;14317
1609568;14128
1609576;13894
1609587;13699
1609596;13848
1609604;13569
1609612;13616
1609620;13369
1609628;13449
1609637;13234
1609645;13275
1609653;13068
1609661;13118
1609669;12876
1609678;12868
1609686;12549
1609694;12474
1609702;12105
1609710;11932
1609719;11620
1609727;11588
1609735;11494
1609743;11612
1609751;11705
1609759;11996
1609768;12329
1609776;12820
1609784;13251
1609792;13698
1609800;13982
1609809;14228
1609817;14357
1609825;14413
1609834;14426
1609842;14385
1609851;14394
1609859;14292
1609869;14250
1609877;14424
1609886;14188
1609895;14258
1609903;14070
1609911;14152
1609919;13992
1609927;14128
1609936;14007
1609944;14098
1609952;13981
1609960;14064
1609968;13992
1609977;14030
1609985;13934
1609993;13992
1610001;13938
1610009;13966
1610018;13925
1610026;13977
1610034;13960
1610042;13998
1610050;13951
1610058;13850
1610067;13755
1610075;13581
1610083;13566
1610091;13496
1610099;13511
1610108;13417
1610116;13475
1610124;13459
1610132;13592
1610140;13570
1610150;13694
1610160;13775
1610168;13695
1610176;13750
1610184;13635
1610193;13650
1610201;13492
1610210;13538
1610218;14056
1610226;12900
1610235;9319
1610243;5929
1610251;6368
1610259;13918
1610267;15796
1610276;15199
1610284;14527
1610292;14263
1610300;14099
1610308;13816
1610317;13676
1610325;13564
1610333;13533
1610341;13399
1610349;13395
1610358;13235
1610366;13265
1610374;13115
1610382;13148
1610390;12948
1610398;12986
1610407;12717
1610415;12718
1610423;12429
1610431;12330
1610442;12063
1610451;11838
1610459;11735
1610467;11676
1610475;11788
1610483;11881
1610492;12073
1610500;12380
1610508;12795
1610516;13281
1610525;13691
1610534;14057
1610542;14247
1610550;14424
1610558;14443
1610566;14538
1610575;14495
1610583;14496
1610591;14356
1610599;14374
1610607;14246
1610616;14284
1610624;14099
1610632;14151
1610640;13986
1610648;14074
1610657;13965
1610665;14108
1610673;13966
1610681;14092
1610689;13873
1610697;13959
1610706;13753
1610714;13931
1610725;13908
1610733;13935
1610742;13910
1610750;13879
1610758;13824
1610766;13834
1610774;13733
1610782;13744
1610791;13706
1610799;13744
1610807;13690
1610815;13756
1610823;13640
1610832;13698
1610841;13544
1610849;13553
1610857;13362
1610865;13429
1610874;13325
1610882;13480
1610890;13372
1610898;13538
1610906;13454
1610915;13684
1610923;13593
1610931;13736
1610939;13569
1610947;13720
1610956;13522
1610964;13682
1610972;13457
1610980;13596
1610988;13350
1610996;14132
1611008;12139
1611016;8227
1611024;5194
1611032;7797
1611041;14780
1611049;15551
1611057;14824
1611065;14422
1611073;14220
1611081;14086
1611090;13802
1611098;13801
1611106;13590
1611114;13636
1611122;13436
1611131;13493
1611139;13276
1611147;13333
1611155;13109
1611163;13227
1611172;12971
1611180;13005
1611189;12714
1611197;12704
1611205;12360
1611214;12299
1611222;11907
1611230;11858
1611238;11546
1611246;11698
1611255;11512
1611263;11787
1611271;11770
1611279;12280
1611290;12888
1611299;13440
1611307;13732
1611315;14093
1611323;14213
1611331;14437
1611340;14423
1611348;14563
1611356;14461
1611364;14601
1611372;14437
1611380;14562
1611389;14392
1611397;14517
1611405;14319
1611413;14411
1611421;14156
1611430;14287
1611438;14058
1611446;14206
1611454;14017
1611462;14199
1611471;13978
1611479;14136
1611488;13910
1611496;14103
1611504;13874
1611513;14009
1611521;13761
1611529;13929
1611537;13716
1611545;13964
1611554;13773
1611562;13973
1611570;13771
1611581;13964
1611589;13849
1611598;13890
1611606;13719
1611614;13890
1611622;13705
1611630;13878
1611639;13662
1611647;13717
1611655;13394
1611663;13502
1611671;13283
1611679;13507
1611688;13327
1611696;13530
1611704;13383
1611712;13638
1611720;13513
1611729;13757
1611737;13536
1611745;13707
1611753;13517
1611761;13705
1611770;13474
1611778;13631
1611786;13330
1611794;14134
1611802;13054
1611812;9969
1611820;5887
1611828;5579
1611836;12512
1611844;15616
1611853;15012
1611863;14558
1611872;14320
1611880;14242
1611888;13847
1611897;13895
1611905;13619
1611913;13748
1611921;13489
1611929;13626
1611938;13367
1611946;13462
1611954;13161
1611962;13292
1611970;13011
1611978;13133
1611987;12828
1611995;12868
1612003;12523
1612011;12506
1612019;12031
1612028;12004
1612036;11649
1612044;11769
1612052;11580
1612060;11841
1612069;11804
1612077;12280
1612085;12515
1612093;13134
1612101;13402
1612110;13964
1612118;14041
1612127;14368
1612135;14314
1612145;14653
1612154;14525
1612162;14648
1612170;14414
1612179;14584
1612187;14381
1612196;14557
1612204;14341
1612212;14492
1612220;14271
1612228;14457
1612237;14225
1612245;14363
1612253;14111
1612261;14282
1612269;14097
1612278;14280
1612286;14083
1612294;14234
1612302;14018
1612310;14191
1612318;13955
1612327;14116
1612335;13896
1612343;13992
1612351;13801
1612359;13982
1612368;13778
1612376;13929
1612384;13702
1612392;13721
1612400;13423
1612409;13487
1612417;13338
1612428;13563
1612436;13437
1612444;13661
1612453;13476
1612461;13722
1612469;13573
1612477;13789
1612485;13598
1612495;13767
1612503;13538
1612511;13678
1612519;13436
1612527;13599
1612536;13445
1612544;14210
1612552;12745
1612560;9327
1612568;5764
1612577;6858
1612585;14274
1612593;15904
1612601;15080
1612609;14577
1612617;14221
1612626;14254
1612634;13950
1612642;13982
1612650;13781
1612658;13859
1612667;13666
1612675;13678
1612683;13516
1612691;13535
1612699;13355
1612708;13347
1612719;13135
1612727;13286
1612735;12957
1612743;12978
1612752;12577
1612760;12535
1612768;12100
1612776;12008
1612784;11671
1612793;11824
1612801;11732
1612810;11989
1612818;12028
1612826;12530
1612835;12782
1612843;13396
1612851;13662
1612859;14111
1612867;14245
1612876;14574
1612884;14543
1612892;14728
1612900;14621
1612908;14728
1612916;14585
1612925;14628
1612933;14491
1612941;14509
1612949;14377
1612957;14380
1612966;14239
1612974;14226
1612982;14124
1612990;14138
1613001;14075
1613010;14291
1613018;14065
1613026;14219
1613034;14060
1613042;14245
1613051;14044
1613059;14204
1613067;14038
1613075;14186
1613083;14017
1613092;14154
1613100;14021
1613108;14096
1613117;13867
1613125;13822
1613134;13617
1613142;13684
1613150;13587
1613158;13708
1613166;13630
1613175;13783
1613183;13780
1613191;13914
1613199;13836
1613207;13837
1613215;13778
1613224;13793
1613232;13757
1613240;13744
1613248;13667
1613256;13580
1613265;13923
1613273;13733
1613284;10079
1613292;7179
1613300;6799
1613309;14017
1613317;16294
1613325;15714
1613333;14795
1613341;14443
1613350;14138
1613358;14028
1613366;13752
1613374;13732
1613382;13541
1613391;13598
1613399;13456
1613407;13443
1613415;13289
1613423;13303
1613432;13193
1613440;13147
1613448;13024
1613457;12929
1613465;12751
1613474;12569
1613482;12321
1613490;12072
1613498;11815
1613506;11626
1613514;11571
1613523;11541
1613531;11674
1613539;11801
1613547;12139
1613555;12488
1613567;13170
1613575;13767
1613583;13917
1613591;14226
1613599;14266
1613608;14410
1613616;14359
1613624;14430
1613632;14314
1613640;14341
1613649;14223
1613657;14242
1613665;14124
1613673;14096
1613681;14010
1613690;13992
1613698;13941
1613706;13952
1613714;13962
1613722;13928
1613731;13920
1613739;13950
1613747;14014
1613755;13964
1613763;14002
1613772;13925
1613781;13998
1613789;13924
1613797;14023
1613805;13944
1613814;13986
1613822;13878
1613830;13889
1613838;13654
1613849;13511
1613858;13638
1613866;13533
1613874;13554
1613882;13454
1613890;13512
1613898;13506
1613907;13610
1613915;13586
1613923;13613
1613931;13572
1613939;13565
1613948;13533
1613956;13495
1613964;13449
1613972;13377
1613980;13367
1613989;13886
1613997;12633
1614005;8964
1614013;5496
1614021;6175
1614030;13891
1614038;15585
1614046;15109
1614054;14374
1614062;14249
1614071;13937
1614079;13802
1614088;13559
1614096;13601
1614104;13434
1614113;13530
1614121;13339
1614129;13445
1614139;13363
1614148;13317
1614157;13192
1614165;13028
1614173;12919
1614181;12783
1614189;12618
1614198;12437
1614206;12213
1614214;11998
1614222;11765
1614230;11689
1614238;11633
1614247;11764
1614255;11811
1614263;12063
1614271;12312
1614279;12833
1614288;13151
1614296;13623
1614304;13817
1614312;14147
1614320;14171
1614329;14342
1614337;14244
1614345;14358
1614353;14217
1614361;14376
1614370;14203
1614378;14351
1614386;14168
1614394;14328
1614402;14131
1614412;14282
1614422;14214
1614430;14256
1614438;14180
1614446;14188
1614455;14119
1614464;14107
1614472;14016
1614480;14068
1614488;14001
1614497;14002
1614505;13893
1614513;13953
1614521;13824
1614529;13900
1614537;13787
1614546;13876
1614554;13748
1614562;13839
1614570;13662
1614578;13722
1614587;13471
1614595;13451
1614603;13236
1614611;13403
1614619;13270
1614628;13449
1614636;13314
1614644;13541
1614652;13445
1614660;13700
1614669;13518
1614677;13689
1614685;13462
1614693;13624
1614704;13519
1614713;13604
1614721;13441
1614729;13518
1614737;13900
1614745;12507
1614754;8601
1614762;5276
1614770;6484
1614778;14116
1614787;15409
1614796;14957
1614804;14230
1614812;14267
1614820;13899
1614828;13881
1614836;13644
1614845;13705
1614853;13440
1614861;13570
1614869;13383
1614877;13504
1614886;13275
1614894;13412
1614902;13133
1614910;13256
1614918;12955
1614927;13031
1614935;12638
1614943;12658
1614951;12242
1614959;12205
1614968;11802
1614976;11827
1614987;11696
1614995;11884
1615003;11823
1615012;12143
1615020;12388
1615028;13026
1615036;13378
1615044;13950
1615053;14102
1615061;14437
1615069;14377
1615077;14594
1615085;14437
1615094;14575
1615102;14353
1615111;14500
1615119;14262
1615127;14362
1615135;14130
1615144;14310
1615152;14081
1615160;14211
1615168;14001
1615176;14184
1615185;13957
1615193;14147
1615201;13928
1615209;14059
1615217;13813
1615226;13973
1615234;13782
1615242;13998
1615250;13843
1615258;14029
1615270;13943
1615278;14132
1615286;13940
1615294;14057
1615302;13830
1615311;13923
1615319;13733
1615327;13924
1615335;13719
1615343;13861
1615352;13592
1615360;13626
1615368;13269
1615376;13413
1615384;13234
1615393;13460
1615401;13277
1615409;13509
1615417;13375
1615425;13678
1615434;13568
1615443;13794
1615451;13591
1615459;13800
1615467;13573
1615475;13761
1615484;13505
1615492;13677
1615500;13415
1615508;14195
1615516;13269
1615525;10356
1615533;6219
1615541;5572
1615549;12164
1615569;15358
1615577;14995
1615585;14573
1615593;14499
1615601;14084
1615610;14171
1615618;13846
1615626;13931
1615634;13640
1615642;13763
1615651;13491
1615659;13623
1615667;13338
1615675;13437
1615683;13153
1615692;13253
1615700;12925
1615708;13008
1615716;12655
1615724;12635
1615732;12228
1615741;12161
1615749;11769
1615758;11905
1615766;11767
1615774;12016
1615783;11957
1615791;12373
1615799;12629
1615807;13314
1615815;13599
1615824;14119
1615832;14210
1615840;14513
1615880;16506
1615888;16194
1615896;15664
1615905;15363
1615914;15061
1615922;14862
1615930;14651
1615938;14466
1615946;14311
1615955;14154
1615963;14075
1615971;13963
1615979;13900
1615987;13788
1615996;13786
1616004;13701
1616012;13732
1616020;13615
1616028;13662
1616037;13567
1616045;13644
1616053;13509
1616061;13576
1616069;13409
1616078;13499
1616086;13351
1616094;13451
1616102;13303
1616110;13366
1616119;13079
1616127;13088
1616135;12935
1616143;13102
1616151;12974
1616163;13143
1616171;13258
1616179;13314
1616187;13384
1616195;13469
1616204;13440
1616212;13424
1616220;13325
1616229;13384
1616237;13294
1616246;13295
1616254;13172
1616262;13444
1616270;13561
1616278;11700
1616286;7658
1616295;5112
1616303;8514
1616311;15180
1616319;15316
1616327;14737
1616336;14164
1616344;14198
1616352;13817
1616360;13799
1616368;13583
1616377;13720
1616385;13532
1616393;13715
1616401;13494
1616409;13602
1616418;13365
1616426;13464
1616434;13188
1616445;13280
1616453;13198
1616462;13056
1616470;12733
1616478;12548
1616486;12201
1616494;12022
1616503;11742
1616511;11691
1616519;11591
1616527;11804
1616535;11808
1616543;12182
1616552;12436
1616561;13024
1616569;13333
1616577;13907
1616585;14073
1616594;14439
1616602;14419
1616610;14713
1616618;14555
1616626;14707
1616635;14513
1616643;14658
1616651;14448
1616659;14587
1616667;14328
1616676;14448
1616684;14212
1616692;14394
1616700;14204
1616708;14380
1616717;14164
1616728;14343
1616736;14267
1616744;14325
1616752;14211
1616761;14296
1616769;14139
1616777;14214
1616785;14070
1616793;14219
1616802;14112
1616810;14266
1616818;14052
1616826;14166
1616834;13935
1616842;13985
1616851;13698
1616859;13829
1616867;13608
1616875;13738
1616884;13581
1616893;13865
1616901;13761
1616909;13989
1616917;13810
1616925;14024
1616934;13785
1616942;13934
1616950;13676
1616958;13809
1616966;13546
1616975;13650
1616983;13626
1616991;14086
1616999;12020
1617010;7485
1617019;6216
1617027;12476
1617035;16326
1617043;15921
1617051;14992
1617060;14572
1617068;14183
1617076;14107
1617084;13746
1617092;13773
1617101;13500
1617109;13584
1617117;13292
1617125;13383
1617133;13093
1617142;13234
1617150;12948
1617158;13068
1617166;12774
1617174;12867
1617182;12565
1617191;12601
1617199;12199
1617207;12156
1617215;11745
1617224;11742
1617233;11438
1617241;11671
1617249;11568
1617257;11888
1617265;11959
1617274;12540
1617282;12837
1617290;13452
1617301;13860
1617309;14339
1617318;14299
1617326;14540
1617334;14398
1617342;14574
1617350;14378
1617359;14504
1617367;14272
1617375;14405
1617383;14125
1617391;14263
1617400;14024
1617408;14177
1617416;13933
1617424;14073
1617432;13875
1617441;14063
1617449;13881
1617457;14066
1617465;13869
1617473;14066
1617481;13901
1617490;14127
1617498;13922
1617506;14094
1617514;13873
1617522;13976
1617531;13729
1617540;13761
1617548;13504
1617556;13662
1617564;13467
1617573;13598
1617583;13608
1617592;13928
1617600;13813
1617608;14044
1617617;13862
1617625;14024
1617633;13769
1617641;13923
1617649;13724
1617658;13850
1617666;13604
1617674;13697
1617682;13990
1617690;13753
1617699;10872
1617707;7522
1617715;6087
1617723;12216
1617731;16291
1617740;15950
1617748;14986
1617756;14552
1617764;14186
1617772;14105
1617780;13707
1617789;13771
1617797;13532
1617805;13606
1617813;13419
1617821;13465
1617830;13276
1617838;13317
1617846;13068
1617854;13101
1617865;12892
1617874;13032
1617882;12645
1617890;12658
1617898;12226
1617906;12157
1617916;11727
1617924;11755
1617932;11523
1617940;11783
1617948;11646
1617957;11974
1617965;12100
1617973;12730
1617981;13035
1617989;13619
1617998;13748
1618006;14134
1618014;14112
1618022;14301
1618030;14218
1618039;14405
1618047;14269
1618055;14376
1618063;14161
1618071;14187
1618079;14032
1618088;14081
1618096;13912
1618104;13959
1618112;13816
1618120;13861
1618129;13739
1618137;13763
1618148;13646
1618156;13917
1618164;13683
1618173;13849
1618181;13645
1618189;13829
1618197;13692
1618205;13904
1618214;13710
1618223;13852
1618231;13545
1618239;13619
1618247;13396
1618256;13518
1618264;13360
1618272;13586
1618280;13531
1618288;13743
1618297;13693
1618305;13855
1618313;13761
1618321;13866
1618329;13756
1618338;13864
1618346;13721
1618354;13774
1618362;13644
1618370;13892
1618378;14123
1618387;12247
1618395;8024
1618403;4846
1618411;7564
1618419;14909
1618428;15655
1618439;14951
1618447;14533
1618455;14503
1618463;14074
1618472;14110
1618480;13872
1618488;13971
1618496;13752
1618504;13815
1618513;13542
1618521;13610
1618529;13437
1618537;13495
1618546;13299
1618555;13331
1618563;13128
1618571;13070
1618579;12798
1618587;12698
1618596;12395
1618604;12243
1618612;11981
1618620;11906
1618628;11852
1618637;11978
1618645;12070
1618653;12308
1618661;12692
1618669;13162
1618678;13588
1618686;13957
1618694;14224
1618702;14363
1618710;14478
1618722;14611
1618730;14550
1618738;14662
1618746;14454
1618754;14540
1618762;14358
1618771;14437
1618779;14274
1618787;14350
1618795;14207
1618803;14222
1618812;14110
1618820;14097
1618828;13953
1618836;13992
1618844;13881
1618853;13897
1618861;13819
1618870;13840
1618878;13799
1618886;13785
1618895;13759
1618903;13750
1618911;13734
1618919;13692
1618927;13739
1618936;13683
1618944;13706
1618952;13613
1618960;13550
1618968;13358
1618977;13420
1618985;13383
1618993;13496
1619004;13590
1619012;13578
1619021;13704
1619029;13638
1619037;13772
1619045;13691
1619053;13737
1619062;13627
1619070;13644
1619078;13581
1619086;13581
1619094;13446
1619102;13635
1619111;13813
1619119;11834
1619127;7677
1619135;4817
1619143;8037
1619152;14906
1619160;15510
1619168;14806
1619176;14396
1619184;14221
1619193;14028
1619201;13808
1619210;13779
1619218;13592
1619226;13628
1619235;13469
1619243;13496
1619251;13352
1619259;13456
1619267;13295
1619276;13330
1619287;13258
1619295;13132
1619303;13033
1619311;12799
1619320;12630
1619328;12385
1619336;12185
1619344;11954
1619352;11859
1619361;11834
1619369;11871
1619377;11981
1619385;12173
1619393;12571
1619401;12994
1619410;13464
1619418;13769
1619426;14114
1619434;14211
1619442;14390
1619451;14348
1619459;14459
1619467;14363
1619475;14430
1619483;14276
1619492;14342
1619500;14211
1619508;14327
1619517;14166
1619525;14237
1619534;14028
1619542;14134
1619550;13957
1619558;14129
1619569;14109
1619578;14134
1619586;14099
1619594;14027
1619602;14007
1619610;13992
1619619;13952
1619627;13966
1619635;13922
1619643;13980
1619651;13889
1619660;13927
1619668;13860
1619676;13912
1619684;13794
1619692;13867
1619700;13780
1619709;13836
1619717;13615
1619725;13583
1619733;13403
1619741;13515
1619750;13399
1619758;13527
1619766;13421
1619774;13658
1619782;13575
1619791;13800
1619799;13645
1619807;13808
1619816;13647
1619824;13806
1619833;13628
1619841;13814
1619851;13724
1619859;13703
1619867;14136
1619877;13720
1619885;10987
1619893;7049
1619901;5549
1619909;11447
1619918;15754
1619926;15540
1619934;14707
1619942;14484
1619950;14246
1619959;14121
1619967;13874
1619975;13944
1619983;13721
1619991;13811
1619999;13631
1620008;13727
1620016;13534
1620024;13586
1620032;13358
1620040;13430
1620049;13135
1620057;13159
1620065;12859
1620073;12886
1620081;12478
1620090;12401
1620098;11955
1620106;11930
1620114;11626
1620122;11802
1620131;11663
1620142;11967
1620150;12210
1620158;12704
1620166;13039
1620175;13588
1620183;13878
1620191;14261
1620200;14306
1620208;14522
1620217;14433
1620225;14572
1620233;14422
1620241;14557
1620249;14366
1620258;14459
1620266;14226
1620274;14341
1620282;14122
1620290;14219
1620298;13997
1620307;14132
1620315;13936
1620323;14108
1620331;13920
1620339;14097
1620348;13914
1620356;14074
1620364;13856
1620372;13994
1620380;13761
1620389;13945
1620397;13756
1620405;13925
1620413;13692
1620424;13891
1620433;13827
1620441;13902
1620449;13691
1620457;13759
1620465;13590
1620474;13678
1620482;13502
1620490;13668
1620498;13468
1620507;13539
1620516;13229
1620524;13379
1620532;13182
1620540;13385
1620548;13172
1620557;13351
1620565;13240
1620573;13501
1620581;13376
1620589;13591
1620598;13405
1620606;13614
1620614;13427
1620622;13581
1620630;13362
1620638;13513
1620647;13267
1620655;13950
1620663;13146
1620671;10632
1620679;7091
1620688;6322
1620696;12402
1620707;16110
1620715;15275
1620723;14671
1620732;14119
1620740;14123
1620748;13741
1620756;13741
1620764;13449
1620773;13580
1620781;13338
1620789;13442
1620797;13203
1620805;13279
1620814;13025
1620822;13120
1620830;12861
1620839;12945
1620847;12595
1620856;12625
1620864;12276
1620872;12276
1620880;11855
1620888;11825
1620897;11477
