Tempo (ms);Valor
1380799;15206
1380807;14728
1380816;14163
1380824;13677
1380832;13219
1380840;12796
1380848;12402
1380857;12054
1380865;11853
1380873;11708
1380881;11667
1380889;11726
1380898;11893
1380906;12142
1380914;12544
1380922;12855
1380930;13231
1380940;13424
1380948;13637
1380956;13648
1380964;13732
1380972;13640
1380980;13693
1380989;13572
1380997;13584
1381005;13471
1381013;13498
1381021;13331
1381030;13378
1381038;13225
1381046;13281
1381054;13243
1381062;13337
1381074;13331
1381082;13366
1381090;13315
1381098;13251
1381106;13170
1381115;13159
1381123;13109
1381131;13143
1381139;13088
1381147;13088
1381156;12977
1381164;13045
1381172;12880
1381180;12853
1381188;12671
1381197;12749
1381205;12731
1381213;12894
1381221;12865
1381229;13052
1381238;13049
1381246;13268
1381255;13272
1381263;13351
1381271;13269
1381279;13360
1381288;13265
1381296;13353
1381304;13277
1381312;13314
1381320;13785
1381329;13407
1381337;10391
1381345;6584
1381353;5258
1381364;14264
1381373;15706
1381381;15150
1381389;14458
1381397;14293
1381405;13965
1381414;13892
1381422;13753
1381430;13830
1381438;13712
1381446;13760
1381455;13648
1381463;13695
1381471;13541
1381479;13602
1381487;13461
1381496;13507
1381504;13338
1381512;13311
1381520;13017
1381528;12943
1381537;12645
1381545;12505
1381553;12241
1381561;12294
1381569;12212
1381577;12417
1381587;12434
1381595;12790
1381603;13077
1381611;13611
1381619;13879
1381628;14323
1381636;14439
1381647;14722
1381655;14680
1381663;14801
1381672;14686
1381680;14781
1381688;14683
1381696;14717
1381704;14557
1381713;14621
1381721;14487
1381729;14559
1381737;14468
1381745;14538
1381754;14481
1381762;14546
1381770;14433
1381778;14500
1381786;14397
1381795;14466
1381803;14378
1381811;14450
1381819;14283
1381827;14338
1381836;14107
1381844;14034
1381852;13832
1381860;13880
1381868;13764
1381876;13890
1381885;13873
1381893;14043
1381902;14089
1381910;14256
1381918;14225
1381929;14356
1381937;14327
1381945;14402
1381954;14253
1381962;14291
1381971;14091
1381979;14635
1381987;13938
1381995;11101
1382003;7425
1382012;6503
1382020;13328
1382028;16577
1382036;15756
1382044;15107
1382053;14520
1382061;14387
1382069;14018
1382077;13942
1382085;13727
1382094;13748
1382102;13621
1382110;13670
1382118;13541
1382126;13581
1382135;13413
1382143;13398
1382151;13218
1382159;13161
1382167;12975
1382175;12883
1382184;12623
1382192;12489
1382200;12174
1382211;12130
1382220;12079
1382228;12213
1382236;12188
1382244;12408
1382252;12603
1382260;13076
1382270;13352
1382278;13832
1382286;14072
1382294;14464
1382302;14563
1382311;14759
1382319;14715
1382327;14798
1382335;14702
1382343;14758
1382352;14620
1382360;14667
1382368;14510
1382376;14554
1382384;14431
1382393;14428
1382401;14297
1382409;14341
1382417;14279
1382425;14353
1382434;14333
1382442;14443
1382450;14360
1382458;14439
1382466;14337
1382474;14286
1382483;14205
1382494;14315
1382502;14226
1382510;14338
1382519;14292
1382527;14441
1382535;14431
1382543;14553
1382551;14479
1382559;14558
1382568;14460
1382576;14485
1382585;14410
1382593;14447
1382601;14290
1382610;14378
1382618;14427
1382626;12621
1382634;8982
1382642;6731
1382651;9964
1382659;16415
1382667;16313
1382675;15615
1382683;15029
1382692;14979
1382700;14858
1382708;14787
1382716;14727
1382724;14707
1382733;14634
1382741;14608
1382749;14534
1382757;14426
1382765;14338
1382774;14228
1382785;14137
1382793;14135
1382801;13855
1382809;13702
1382818;13351
1382826;13155
1382834;12781
1382842;12653
1382850;12498
1382858;12577
1382867;12577
1382875;12745
1382883;12917
1382891;13355
1382900;13691
1382909;14088
1382917;14317
1382925;14555
1382933;14574
1382941;14663
1382950;14633
1382958;14675
1382966;14604
1382974;14539
1382982;14443
1382991;14361
1382999;14287
1383007;14205
1383015;14163
1383023;14129
1383032;14095
1383040;14024
1383048;13958
1383056;13903
1383067;13910
1383076;14043
1383084;13958
1383092;14004
1383100;13814
1383108;13707
1383117;13500
1383125;13470
1383133;13337
1383141;13357
1383149;13357
1383158;13424
1383166;13432
1383174;13464
1383182;13393
1383190;13343
1383198;13320
1383207;13348
1383215;13342
1383223;13336
1383232;13287
1383240;13171
1383249;13675
1383257;12991
1383265;10136
1383273;6440
1383281;5367
1383290;12221
1383298;15532
1383306;15026
1383314;14394
1383322;13998
1383331;13808
1383339;13507
1383350;13393
1383358;13391
1383366;13228
1383375;13160
1383383;13047
1383391;12990
1383399;12865
1383407;12791
1383416;12642
1383424;12532
1383432;12436
1383440;12325
1383448;12103
1383457;11898
1383465;11688
1383473;11517
1383481;11431
1383489;11442
1383497;11508
1383506;11634
1383514;11868
1383522;12218
1383530;12658
1383538;13053
1383547;13454
1383556;13719
1383564;13953
1383572;13974
1383580;14048
1383589;14019
1383597;14074
1383605;14017
1383613;14043
1383621;13943
1383633;14001
1383641;14063
1383649;14012
1383657;13972
1383665;13915
1383674;13919
1383682;13901
1383690;13911
1383698;13892
1383706;13894
1383715;13905
1383723;13856
1383731;13842
1383739;13816
1383747;13851
1383756;13793
1383764;13792
1383772;13530
1383780;13408
1383788;13281
1383796;13304
1383805;13238
1383813;13289
1383821;13261
1383829;13350
1383837;13411
1383846;13490
1383854;13357
1383862;13423
1383871;13335
1383879;13406
1383888;13287
1383896;13315
1383904;13222
1383914;13693
1383923;11744
1383932;7823
1383940;4856
1383948;8114
1383956;14726
1383964;15160
1383973;14464
1383981;14003
1383989;13779
1383997;13532
1384005;13337
1384014;13283
1384022;13175
1384030;13193
1384038;13087
1384046;13102
1384055;13021
1384063;13012
1384071;12875
1384079;12846
1384087;12633
1384095;12570
1384104;12386
1384112;12279
1384120;12030
1384128;11888
1384136;11649
1384145;11600
1384153;11502
1384161;11635
1384169;11682
1384177;11913
1384186;12145
1384195;12655
1384205;13259
1384213;13656
1384221;13833
1384230;13968
1384238;14011
1384247;14059
1384255;14007
1384263;14019
1384272;13911
1384280;13854
1384288;13769
1384296;13768
1384304;13695
1384313;13707
1384321;13616
1384329;13667
1384337;13572
1384345;13578
1384354;13487
1384362;13551
1384370;13488
1384378;13520
1384386;13480
1384394;13548
1384403;13506
1384411;13569
1384419;13480
1384427;13497
1384435;13304
1384444;13221
1384452;13124
1384460;13179
1384468;13080
1384476;13095
1384488;13141
1384496;13290
1384504;13322
1384512;13346
1384520;13252
1384529;13263
1384537;13200
1384545;13180
1384554;13090
1384562;13077
1384571;12938
1384579;13581
1384587;13077
1384595;10139
1384603;5915
1384612;4430
1384620;10661
1384628;15113
1384636;14826
1384644;14226
1384653;13855
1384661;13743
1384669;13416
1384677;13334
1384685;13204
1384694;13276
1384702;13177
1384710;13179
1384718;13015
1384726;12955
1384734;12841
1384743;12829
1384751;12662
1384759;12626
1384770;12480
1384778;12426
1384787;12178
1384795;12005
1384803;11800
1384811;11748
1384819;11720
1384828;11852
1384836;11866
1384844;12115
1384852;12383
1384860;12879
1384869;13279
1384878;13753
1384886;14013
1384894;14317
1384902;14376
1384911;14508
1384919;14451
1384927;14502
1384935;14446
1384943;14531
1384952;14387
1384960;14378
1384968;14299
1384976;14370
1384984;14272
1384993;14310
1385001;14183
1385009;14220
1385017;14081
1385025;14173
1385033;14122
1385042;14172
1385053;14164
1385061;14292
1385069;14192
1385078;14247
1385086;14147
1385094;14218
1385102;14133
1385110;14225
1385118;14123
1385127;14091
1385135;13913
1385143;14045
1385151;14036
1385159;14183
1385168;14104
1385176;14251
1385184;14219
1385192;14388
1385201;14324
1385210;14362
1385218;14337
1385226;14423
1385234;14299
1385242;14324
1385251;14197
1385259;14188
1385267;14694
1385275;13986
1385283;10762
1385292;6836
1385300;5999
1385308;12961
1385316;16162
1385324;15809
1385332;15095
1385344;14933
1385352;14633
1385360;14478
1385368;14254
1385377;14288
1385385;14132
1385393;14125
1385401;13949
1385409;13933
1385417;13723
1385426;13664
1385434;13463
1385442;13416
1385450;13171
1385458;13100
1385467;12831
1385475;12677
1385483;12335
1385491;12180
1385499;11969
1385508;11974
1385516;11921
1385525;12097
1385533;12233
1385541;12564
1385550;12891
1385558;13420
1385566;13771
1385574;14108
1385582;14263
1385591;14453
1385599;14515
1385607;14579
1385615;14567
1385626;14670
1385635;14644
1385643;14614
1385651;14441
1385659;14452
1385667;14261
1385676;14243
1385684;14101
1385692;14090
1385700;13973
1385708;14033
1385716;13964
1385725;13979
1385733;13897
1385741;13937
1385749;13881
1385757;13932
1385766;13864
1385774;13913
1385782;13867
1385790;13874
1385798;13771
1385807;13687
1385815;13598
1385823;13701
1385831;13729
1385839;13757
1385849;13700
1385857;13763
1385865;13859
1385873;13970
1385881;13919
1385890;13939
1385898;13919
1385909;13993
1385917;13957
1385925;14006
1385934;13857
1385942;14076
1385950;14272
1385958;12496
1385966;8680
1385975;6062
1385983;9124
1385991;15903
1385999;16142
1386007;15574
1386015;14977
1386024;14820
1386032;14573
1386040;14441
1386048;14290
1386056;14253
1386065;14147
1386073;14079
1386081;14012
1386089;14130
1386097;14213
1386106;14401
1386114;14487
1386122;14492
1386130;14415
1386138;14331
1386147;14164
1386155;13912
1386163;13689
1386172;13454
1386180;13371
1386191;13440
1386199;13481
1386207;13620
1386215;13788
1386224;14205
1386233;14596
1386241;15052
1386249;15308
1386257;15552
1386265;15622
1386274;15668
1386282;15665
1386290;15655
1386298;15598
1386306;15533
1386314;15445
1386323;15347
1386331;15273
1386339;15123
1386347;15018
1386355;14891
1386364;14843
1386372;14712
1386380;14628
1386388;14519
1386396;14518
1386405;14441
1386413;14469
1386421;14382
1386429;14336
1386437;14191
1386446;14168
1386454;13940
1386462;13822
1386473;13792
1386481;13757
1386490;13760
1386498;13715
1386506;13746
1386514;13765
1386522;13820
1386531;13772
1386540;13721
1386548;13686
1386556;13598
1386564;13561
1386573;13474
1386581;13388
1386589;13270
1386597;13852
1386605;12535
1386614;9069
1386622;5993
1386630;6525
1386638;13995
1386646;15642
1386654;14929
1386663;14302
1386671;13831
1386679;13708
1386687;13419
1386695;13358
1386704;13245
1386712;13223
1386720;13070
1386728;13065
1386736;12912
1386745;12900
1386753;12757
1386764;12785
1386772;12681
1386780;12465
1386789;12241
1386797;11993
1386805;11708
1386813;11453
1386821;11226
1386830;11196
1386838;11184
1386846;11285
1386854;11383
1386862;11694
1386872;12047
1386880;12547
1386888;12972
1386896;13446
1386904;13650
1386913;13894
1386921;13959
1386929;14083
1386937;14064
1386945;14168
1386953;14099
1386962;14168
1386970;14067
1386978;14116
1386986;13999
1386994;14024
1387003;13873
1387011;13890
1387019;13756
1387027;13810
1387035;13655
1387047;13743
1387055;13747
1387063;13729
1387071;13663
1387079;13681
1387088;13595
1387096;13634
1387104;13593
1387112;13667
1387120;13538
1387129;13511
1387137;13227
1387145;13193
1387153;13113
1387161;13190
1387170;13086
1387178;13175
1387187;13114
1387195;13303
1387203;13270
1387212;13416
1387220;13386
1387228;13502
1387236;13433
1387244;13508
1387252;13371
1387261;13424
1387269;13727
1387277;13760
1387285;11234
1387293;7295
1387302;4916
1387310;9623
1387318;15282
1387329;15469
1387337;14895
1387346;14642
1387354;14315
1387362;14129
1387370;13911
1387378;13924
1387387;13797
1387395;13790
1387403;13613
1387411;13549
1387419;13402
1387428;13432
1387436;13241
1387444;13196
1387452;13040
1387460;12999
1387469;12467
1387477;12244
1387485;11986
1387493;11801
1387501;11653
1387510;12266
1387518;12072
1387527;11831
1387535;11750
1387543;12099
1387551;12458
1387560;12986
1387568;13333
1387576;13767
1387584;13862
1387592;14142
1387601;14073
1387612;14300
1387620;14258
1387628;14290
1387636;14127
1387645;14212
1387653;14029
1387661;14159
1387669;14126
1387677;14276
1387686;14126
1387694;14069
1387702;13948
1387710;14184
1387718;13898
1387727;13921
1387735;13793
1387743;13966
1387751;13962
1387759;14144
1387768;14121
1387776;14205
1387784;13919
1387792;14256
1387800;14013
1387809;13609
1387817;13389
1387825;13639
1387833;13586
1387841;13616
1387850;13529
1387859;13648
1387867;13686
1387875;13870
1387883;13752
1387895;13868
1387903;13762
1387911;13863
1387919;13741
1387927;13926
1387935;13680
1387944;14076
1387952;14126
1387960;11763
1387968;7228
1387976;4583
1387985;8514
1387993;15227
1388001;15613
1388009;15124
1388017;14563
1388026;14568
1388034;14466
1388042;14071
1388050;13994
1388058;14062
1388067;13893
1388075;13756
1388083;13385
1388091;13451
1388099;13386
1388108;13559
1388116;13387
1388124;13147
1388132;13203
1388140;13236
1388148;13687
1388157;13241
1388166;12351
1388174;12160
1388184;11993
1388193;12076
1388201;12164
1388209;12643
1388218;12668
1388226;13800
1388234;13280
1388243;13261
1388251;13640
1388259;14169
1388267;14041
1388275;14316
1388284;14366
1388292;14345
1388300;14446
1388308;14896
1388316;14143
1388325;14063
1388333;13681
1388341;14354
1388349;14103
1388357;13615
1388366;13180
1388374;13308
1388382;13480
1388390;13559
1388398;13240
1388407;13115
1388415;13007
1388423;13363
1388431;12834
1388439;13037
1388447;13318
1388456;13679
1388467;13240
1388475;13167
1388483;12983
1388492;12976
1388500;12565
1388508;12743
1388516;12590
1388524;12914
1388534;12522
1388542;12534
1388550;12456
1388558;12688
1388566;12589
1388574;12741
1388583;12504
1388591;12604
1388599;12608
1388607;13534
1388615;12891
1388624;9670
1388632;5200
1388640;4256
1388648;11086
1388656;14838
1388665;14624
1388673;14161
1388681;13935
1388689;13757
1388697;13549
1388706;13440
1388714;13381
1388722;13337
1388730;13324
1388738;13240
1388750;13147
1388758;13249
1388766;12989
1388774;12976
1388782;12681
1388791;12592
1388799;12238
1388807;11956
1388815;11479
1388823;11406
1388831;11235
1388840;11272
1388848;11271
1388857;11442
1388865;11479
1388873;11754
1388882;12007
1388890;12428
1388898;12738
1388906;13085
1388914;13315
1388923;13526
1388931;13685
1388939;13747
1388947;13780
1388955;13774
1388964;13810
1388972;13806
1388980;13852
1388988;13823
1388996;13919
1389005;13883
1389013;13967
1389021;13858
1389032;13928
1389040;14098
1389049;14017
1389057;14072
1389065;14040
1389073;14146
1389081;14106
1389090;14221
1389098;14193
1389106;14262
1389114;14194
1389122;14141
1389130;13927
1389139;13884
1389147;13881
1389155;13904
1389163;13927
1389172;13914
1389181;13954
1389189;14000
1389197;14169
1389205;14176
1389213;14207
1389222;14139
1389230;14167
1389238;14068
1389246;14057
1389254;13947
1389263;14089
1389271;14481
1389279;12951
1389287;9018
1389295;5636
1389304;7535
1389312;15148
1389323;16102
1389331;15445
1389339;15073
1389348;14799
1389356;14575
1389364;14336
1389372;14241
1389380;14095
1389389;14053
1389397;13924
1389405;13871
1389413;13759
1389421;13684
1389430;13570
1389438;13483
1389446;13385
1389454;13229
1389462;13037
1389470;12812
1389479;12569
1389487;12296
1389495;12155
1389504;11999
1389512;12049
1389521;12046
1389529;12262
1389537;12430
1389545;12896
1389553;13233
1389562;13683
1389570;13965
1389578;14359
1389586;14485
1389594;14677
1389606;14740
1389614;14784
1389622;14815
1389630;14745
1389638;14698
1389647;14643
1389655;14555
1389663;14527
1389671;14448
1389679;14368
1389688;14289
1389696;14224
1389704;14131
1389712;14124
1389720;14096
1389729;14127
1389737;14097
1389745;14095
1389753;14023
1389761;14005
1389769;13823
1389778;13811
1389786;13757
1389794;13869
1389802;13862
1389810;13961
1389820;13990
1389828;14209
1389836;14205
1389844;14309
1389852;14238
1389861;14321
1389869;14192
1389877;14267
1389888;14223
1389896;14214
1389905;14407
1389913;14403
1389921;12158
1389929;8434
1389937;6076
1389946;10365
1389954;16215
1389962;16078
1389970;15281
1389978;14728
1389987;14368
1389995;14214
1390003;13940
1390011;13872
1390019;13705
1390028;13736
1390036;13602
1390044;13641
1390052;13477
1390060;13483
1390068;13319
1390077;13302
1390085;13031
1390093;12999
1390101;12680
1390109;12518
1390118;12131
1390126;12040
1390134;11728
1390142;11793
1390151;11664
1390160;11898
1390170;12082
1390178;12537
1390186;12901
1390195;13454
1390204;13746
1390212;14169
1390220;14308
1390228;14560
1390236;14554
1390245;14712
1390253;14648
1390261;14744
1390269;14584
1390277;14658
1390286;14530
1390294;14573
1390302;14399
1390310;14449
1390318;14258
1390327;14345
1390335;14158
1390343;14287
1390351;14108
1390359;14211
1390367;14078
1390376;14278
1390384;14105
1390392;14231
1390400;14044
1390408;14095
1390417;13813
1390425;13868
1390433;13672
1390441;13827
1390452;13829
1390461;14028
1390469;13995
1390477;14172
1390485;14051
1390493;14115
1390503;13956
1390511;14057
1390519;13923
1390527;14019
1390535;13827
1390544;13971
1390552;14289
1390560;12910
1390568;9125
1390576;6010
1390585;7293
1390593;14945
1390601;15780
1390609;15272
1390617;14517
1390626;14422
1390634;14016
1390642;13928
1390650;13635
1390658;13710
1390666;13451
1390675;13506
1390683;13318
1390691;13427
1390699;13200
1390707;13259
1390716;13007
1390724;13013
1390732;12739
1390743;12742
1390751;12427
1390760;12264
1390768;11859
1390776;11822
1390784;11606
1390792;11735
1390801;11680
1390809;11997
1390818;12067
1390826;12573
1390834;12862
1390843;13453
1390851;13704
1390859;14132
1390867;14147
1390875;14411
1390884;14271
1390892;14447
1390900;14275
1390908;14385
1390916;14200
1390925;14330
1390933;14109
1390941;14192
1390949;13994
1390957;14078
1390966;13899
1390974;13952
1390982;13743
1390990;13847
1390998;13717
1391006;13797
1391015;13673
1391026;13874
1391034;13756
1391042;13889
1391050;13664
1391059;13829
1391067;13591
1391075;13636
1391083;13302
1391091;13403
1391100;13227
1391108;13402
1391117;13240
1391125;13447
1391133;13336
1391142;13558
1391150;13435
1391158;13571
1391166;13418
1391174;13523
1391183;13371
1391191;13490
1391199;13276
1391207;13315
1391215;13594
1391224;13616
1391232;10922
1391240;6769
1391248;4226
1391256;9101
1391265;14960
1391273;15376
1391281;14765
1391289;14486
1391297;14256
1391309;14156
1391317;13914
1391325;13950
1391333;13671
1391341;13738
1391350;13500
1391358;13584
1391366;13312
1391374;13356
1391382;13108
1391390;13140
1391399;12877
1391407;12878
1391415;12582
1391423;12529
1391431;12156
1391440;12059
1391449;11826
1391457;11955
1391465;11887
1391473;12045
1391482;12093
1391490;12480
1391498;12813
1391506;13293
1391514;13625
1391523;13963
1391531;14099
1391539;14307
1391547;14355
1391555;14426
1391564;14371
1391572;14403
1391580;14353
1391591;14433
1391599;14292
1391608;14347
1391616;14131
1391624;14238
1391632;14079
1391640;14175
1391649;13993
1391657;14068
1391665;13938
1391673;14031
1391681;13903
1391689;13988
1391698;13896
1391706;13948
1391714;13863
1391722;13956
1391730;13850
1391739;13936
1391747;13823
1391755;13762
1391763;13529
1391772;13523
1391781;13455
1391789;13503
1391797;13489
1391805;13493
1391813;13502
1391822;13612
1391830;13711
1391838;13731
1391846;13734
1391854;13739
1391863;13791
1391874;13868
1391882;13752
1391890;13776
1391898;13762
1391907;14327
1391915;12430
1391923;8460
1391931;4971
1391939;7038
1391948;14391
1391956;15624
1391964;15045
1391972;14626
1391980;14387
1391988;14178
1391997;13918
1392005;13846
1392013;13705
1392021;13643
1392029;13526
1392038;13448
1392046;13397
1392054;13358
1392062;13351
1392070;13234
1392079;13095
1392087;12893
1392096;12772
1392104;12563
1392112;12392
1392121;12147
1392129;12001
1392137;11839
1392145;11892
1392153;11918
1392165;12148
1392173;12518
1392181;12799
1392189;13287
1392197;13614
1392206;14030
1392214;14189
1392222;14414
1392230;14465
1392238;14545
1392247;14551
1392255;14556
1392263;14435
1392271;14421
1392279;14403
1392287;14375
1392296;14338
1392304;14275
1392312;14254
1392320;14186
1392328;14159
1392337;14061
1392345;14120
1392353;14054
1392361;14108
1392369;14054
1392378;14136
1392386;14040
1392394;14120
1392402;13996
1392411;14087
1392420;13962
1392428;14066
1392436;13992
1392446;14016
1392455;13989
1392464;13788
1392472;13750
1392480;13755
1392488;13803
1392496;13771
1392505;13799
1392513;13878
1392521;13908
1392529;13961
1392537;13950
1392546;13949
1392554;13870
1392562;13898
1392570;13818
1392578;13819
1392586;13642
1392595;14198
1392603;13745
1392611;10987
1392619;6693
1392627;4895
1392636;10563
1392644;15384
1392652;15225
1392660;14680
1392668;14242
1392677;14154
1392685;13796
1392693;13782
1392701;13605
1392709;13632
1392719;13433
1392729;13445
1392737;13414
1392745;13335
1392753;13285
1392762;13207
1392771;13078
1392779;12979
1392787;12772
1392795;12582
1392804;12335
1392812;12175
1392820;11902
1392828;11876
1392836;11800
1392845;11908
1392853;11929
1392861;12189
1392869;12430
1392877;12896
1392886;13197
1392894;13740
1392902;13927
1392910;14287
1392918;14317
1392926;14496
1392935;14404
1392943;14543
1392951;14366
1392959;14460
1392967;14299
1392976;14446
1392984;14261
1392992;14348
1393000;14157
1393011;14262
1393020;14220
1393028;14232
1393036;14147
1393044;14179
1393052;14069
1393061;14125
1393070;14055
1393078;14148
1393086;14065
1393094;14173
1393103;14112
1393111;14227
1393119;14117
1393127;14160
1393135;13924
1393144;13877
1393152;13670
1393160;13790
1393168;13643
1393176;13741
1393185;13623
1393193;13830
1393201;13768
1393209;13993
1393217;13842
1393225;13962
1393234;13746
1393242;13891
1393250;13695
1393258;13823
1393266;13564
1393275;13978
1393283;13784
1393294;10376
1393302;6789
1393310;6190
1393319;13190
1393327;16037
1393335;15359
1393343;14787
1393351;14293
1393360;14203
1393368;13845
1393376;13839
1393384;13630
1393393;13717
1393402;13504
1393410;13557
1393418;13363
1393426;13457
1393434;13292
1393443;13393
1393451;13132
1393459;13179
1393467;12891
1393475;12854
1393484;12471
1393492;12332
1393500;11926
1393508;11952
1393516;11777
1393524;11979
1393533;11919
1393541;12249
1393549;12412
1393557;12937
1393565;13171
1393574;13714
1393585;14087
1393593;14487
1393601;14475
1393609;14647
1393618;14562
1393626;14705
1393634;14536
1393642;14556
1393650;14364
1393659;14495
1393667;14292
1393675;14391
1393683;14214
1393691;14339
1393700;14118
1393709;14228
1393717;14045
1393725;14183
1393733;13986
1393742;14167
1393750;13973
1393758;14156
1393766;14009
1393774;14141
1393783;13907
1393791;13893
1393799;13626
1393807;13671
1393815;13444
1393823;13570
1393832;13484
1393840;13649
1393848;13594
1393856;13742
1393868;13667
1393876;13833
1393884;13650
1393892;13734
1393900;13543
1393908;13640
1393917;13419
1393925;13505
1393933;13940
1393941;12827
1393949;9159
1393958;6069
1393966;6622
1393974;14434
1393982;15758
1393990;15268
1393999;14444
1394007;14258
1394015;13876
1394024;13795
1394032;13521
1394041;13554
1394049;13310
1394057;13366
1394065;13207
1394073;13293
1394082;13106
1394090;13136
1394098;12925
1394106;12914
1394114;12680
1394122;12652
1394131;12372
1394139;12242
1394150;11892
1394158;11908
1394167;11675
1394175;11829
1394183;11760
1394191;12053
1394199;12155
1394207;12675
1394216;12981
1394224;13551
1394232;13763
1394240;14192
1394248;14230
1394257;14450
1394265;14327
1394273;14463
1394281;14277
1394289;14366
1394298;14166
1394306;14217
1394314;14052
1394322;14099
1394330;13961
1394339;14031
1394348;13891
1394356;13991
1394364;13872
1394372;13932
1394381;13866
1394389;13981
1394397;13929
1394405;13998
1394413;13916
1394422;13969
1394433;13921
1394441;14098
1394449;13948
1394457;14072
1394466;13903
1394474;13983
1394482;13695
1394490;13660
1394498;13474
1394506;13614
1394515;13504
1394523;13627
1394531;13511
1394539;13709
1394547;13679
1394556;13805
1394564;13698
1394572;13795
1394580;13678
1394588;13730
1394597;13593
1394605;13620
1394613;13469
1394621;14172
1394629;13149
1394638;9849
1394646;5827
1394654;5302
1394662;12470
1394671;15551
1394680;15242
1394688;14652
1394696;14393
1394704;14164
1394712;13929
1394723;13920
1394732;13761
1394740;13819
1394748;13630
1394756;13672
1394765;13425
1394773;13424
1394781;13204
1394789;13203
1394797;12961
1394806;12896
1394814;12614
1394822;12524
1394830;12216
1394838;12024
1394846;11792
1394855;11764
1394863;11718
1394871;11826
1394879;11912
1394887;12152
1394896;12436
1394904;12877
1394912;13323
1394920;13712
1394928;14022
1394937;14220
1394945;14331
1394953;14393
1394961;14473
1394969;14450
1394978;14438
1394986;14354
1394994;14356
1395005;14374
1395013;14255
1395022;14262
1395030;14092
1395038;14154
1395047;14048
1395055;14103
1395064;14013
1395072;14058
1395080;13988
1395088;13994
1395096;13972
1395105;14022
1395113;13943
1395121;13921
1395129;13894
1395137;13902
1395145;13904
1395154;13828
1395162;13717
1395170;13525
1395178;13488
1395186;13430
1395195;13478
1395203;13456
1395211;13549
1395219;13533
1395227;13680
1395236;13725
1395244;13824
1395252;13751
1395260;13805
1395268;13708
1395277;13798
1395288;13803
1395296;13693
1395304;14102
1395312;13949
1395321;11520
1395329;7291
1395337;4880
1395345;9448
1395353;15241
1395362;15378
1395370;14811
1395379;14478
1395387;14318
1395395;14065
1395404;13902
1395412;13834
1395420;13708
1395428;13707
1395436;13571
1395444;13534
1395453;13373
1395461;13355
1395469;13187
1395477;13181
1395485;12989
1395494;12929
1395502;12667
1395510;12558
1395518;12204
1395526;12064
1395535;11748
1395543;11797
1395551;11677
1395559;11855
1395570;12044
1395579;12388
1395587;12790
1395595;13227
1395603;13592
1395611;13887
1395620;14097
1395628;14322
1395636;14382
1395644;14470
1395652;14459
1395661;14546
1395669;14518
1395677;14552
1395686;14460
1395694;14438
1395703;14250
1395711;14393
1395719;14305
1395727;14258
1395735;14055
1395743;14116
1395752;14016
1395760;14151
1395768;14046
1395776;14154
1395784;14018
1395793;14116
1395801;13949
1395809;14044
1395817;13910
1395825;14052
1395834;13907
1395842;14037
1395853;13886
1395861;13793
1395869;13649
1395878;13655
1395886;13602
1395894;13652
1395902;13578
1395910;13697
1395919;13716
1395927;13902
1395935;13850
1395943;13917
1395951;13824
1395960;13916
1395968;13795
1395976;13865
1395984;13714
1395992;13898
1396002;14299
1396010;12855
1396018;8928
1396026;5652
1396034;7189
1396042;14755
1396051;15708
1396059;15282
1396067;14583
1396075;14529
1396083;14101
1396092;14052
1396100;13790
1396108;13858
1396116;13625
1396124;13687
1396133;13460
1396144;13604
1396152;13476
1396160;13483
1396168;13217
1396177;13183
1396185;12904
1396193;12823
1396201;12484
1396209;12381
1396218;12041
1396226;12014
1396234;11840
1396242;11997
1396250;11957
1396259;12224
1396267;12326
1396275;12781
1396283;13053
1396291;13672
1396300;13880
1396308;14328
1396316;14375
1396324;14617
1396332;14511
1396342;14671
1396350;14466
1396358;14614
1396366;14421
1396374;14509
1396382;14305
1396391;14397
1396399;14167
1396407;14288
1396415;14115
1396426;14234
1396435;14135
1396443;14213
1396451;14081
1396459;14156
1396467;13951
1396476;14008
1396484;13806
1396492;13935
1396500;13801
1396508;13916
1396517;13765
1396525;13887
1396533;13661
1396541;13746
1396549;13464
1396558;13525
1396566;13357
1396574;13525
1396582;13421
1396590;13630
1396599;13527
1396607;13729
1396615;13652
1396623;13834
1396631;13721
1396639;13901
1396649;13748
1396657;13869
1396665;13701
1396673;13814
1396681;13691
1396690;14335
1396698;12709
1396709;8169
1396717;6125
1396726;11118
1396734;16209
1396742;16039
1396750;15153
1396758;14680
1396766;14304
1396775;14160
1396783;13768
1396791;13829
1396799;13577
1396807;13622
1396816;13362
1396824;13457
1396832;13221
1396840;13277
1396848;13060
1396857;13112
1396865;12845
1396873;12882
1396881;12579
1396889;12488
1396898;12107
1396906;12046
1396914;11783
1396922;11859
1396930;11730
1396938;11944
1396947;11990
1396955;12319
1396964;12500
1396972;13020
1396980;13344
1396991;14027
1396999;14203
1397007;14493
1397016;14441
1397025;14652
1397033;14514
1397041;14635
1397049;14451
1397057;14528
1397065;14337
1397074;14430
1397082;14233
1397090;14326
1397098;14122
1397106;14210
1397115;14033
1397123;14168
1397131;13994
1397139;14125
1397147;14012
1397156;14162
1397164;14067
1397172;14195
1397180;14031
1397188;14109
1397197;13872
1397205;13844
1397213;13677
1397221;13737
1397229;13674
1397238;13799
1397246;13776
1397254;13916
1397262;13911
1397273;14117
1397282;14027
1397290;14158
1397298;13972
1397306;14056
1397314;13910
1397322;14009
1397332;13735
1397340;14327
1397348;13572
1397356;10861
1397364;7301
1397373;6322
1397381;12760
1397389;16424
1397397;15714
1397405;15086
1397414;14424
1397422;14273
1397430;13867
1397438;13769
1397446;13556
1397455;13573
1397463;13420
1397471;13451
1397479;13339
1397487;13331
1397496;13200
1397504;13152
1397512;12954
1397520;12831
1397528;12613
1397537;12470
1397545;12191
1397553;11958
1397564;11650
1397572;11719
1397581;11506
1397589;11669
1397597;11654
1397605;12007
1397613;12242
1397622;12798
1397630;13098
1397638;13609
1397647;13803
1397655;14121
1397663;14169
1397672;14349
1397680;14273
1397688;14339
1397696;14257
1397704;14334
1397713;14212
1397721;14196
1397729;14114
1397737;14129
1397745;14002
1397754;14013
1397762;13941
1397770;13934
1397778;13898
1397786;13920
1397795;13883
1397803;13864
1397811;13831
1397819;13804
1397827;13834
1397836;13806
1397847;13819
1397855;13957
1397863;13825
1397871;13858
1397880;13608
1397888;13506
1397896;13346
1397904;13428
1397912;13367
1397921;13434
1397929;13409
1397937;13580
1397945;13647
1397953;13769
1397962;13675
1397971;13669
1397979;13580
1397987;13609
1397995;13559
1398003;13572
1398012;13472
1398020;14083
1398028;13483
1398036;10523
1398044;6538
1398053;5115
1398061;11429
1398069;15525
1398077;15380
1398085;14711
1398094;14421
1398102;14201
1398110;14034
1398118;13836
1398129;13688
1398138;13755
1398146;13583
1398154;13587
1398162;13389
1398170;13409
1398179;13244
1398187;13215
1398195;13058
1398203;12956
1398211;12733
1398220;12603
1398228;12357
1398236;12104
1398244;11852
1398252;11727
1398260;11722
1398270;11761
1398278;11853
1398286;12033
1398294;12372
1398302;12807
1398311;13297
1398319;13638
1398327;14006
1398335;14154
1398343;14317
1398352;14299
1398360;14402
1398368;14294
1398376;14361
1398384;14257
1398393;14283
1398401;14151
1398412;14197
1398420;14276
1398428;14185
1398437;14170
1398445;14077
1398453;14073
1398461;14006
1398469;14000
1398478;13972
1398486;13971
1398494;13948
1398502;13922
1398510;13902
1398519;13864
1398527;13892
1398535;13848
1398543;13878
1398551;13817
1398559;13805
1398568;13621
1398576;13535
1398584;13416
1398593;13484
1398601;13407
1398610;13506
1398618;13381
1398626;13501
1398634;13474
1398642;13620
1398651;13527
1398659;13649
1398667;13496
1398675;13597
1398683;13436
1398695;13488
1398703;13492
1398711;14106
1398719;13084
1398727;9652
1398736;5630
1398744;5282
1398752;12454
1398760;15411
1398768;15040
1398777;14507
1398785;14219
1398793;14048
1398801;13760
1398809;13715
1398818;13558
1398826;13591
1398834;13435
1398842;13480
1398850;13329
1398858;13372
1398867;13187
1398875;13214
1398883;12977
1398891;13004
1398899;12720
1398908;12662
1398916;12322
1398925;12229
1398933;11886
1398941;11868
1398950;11662
1398958;11841
1398966;11795
1398974;12088
1398994;13283
1399002;13695
1399010;14072
1399018;14252
1399026;14485
1399035;14487
1399043;14568
1399051;14447
1399059;14506
1399067;14381
1399076;14454
1399084;14293
1399092;14353
1399100;14183
1399108;14277
1399117;14143
1399125;14213
1399133;14047
1399141;14142
1399149;13965
1399158;14119
1399166;13988
1399174;14133
1399182;13973
1399190;14105
1399198;13923
1399207;14034
1399215;13825
1399223;13954
1399231;13762
1399239;13864
1399249;13676
1399257;13761
1399265;13481
1399275;13484
1399283;13440
1399293;13556
1399301;13462
1399309;13612
1399317;13544
1399325;13745
1399334;13700
1399342;13877
1399350;13726
1399358;13855
1399366;13702
1399375;13821
1399383;13630
1399391;13720
1399399;13491
1399407;14290
1399416;13074
1399424;9717
1399432;5545
1399440;5611
1399448;12892
1399457;15623
1399465;15057
1399473;14627
1399481;14314
1399489;14275
1399497;13942
1399506;14006
1399514;13772
1399522;13837
1399530;13615
1399538;13762
1399547;13543
1399558;13653
1399566;13509
1399574;13453
1399582;13209
1399591;13180
1399599;12938
1399607;12862
1399615;12481
1399624;12311
1399633;11954
1399641;11949
1399649;11781
1399657;11996
1399665;11939
1399674;12279
1399682;12459
1399690;13020
1399698;13337
1399706;13876
1399715;14077
1399723;14444
1399731;14436
1399739;14670
1399747;14567
1399756;14735
1399764;14567
1399772;14708
1399780;14499
1399788;14595
1399796;14456
1399805;14554
1399813;14370
1399821;14483
1399829;14279
1399841;14412
1399849;14305
1399857;14378
1399865;14163
1399873;14269
1399881;14085
1399890;14192
1399898;14023
1399906;14174
1399914;13995
1399922;14090
1399932;13928
1399940;14096
1399948;13931
1399956;14055
1399964;13834
1399973;13837
1399981;13582
1399989;13688
1399997;13517
1400005;13694
1400014;13593
1400022;13787
1400030;13698
1400038;13940
1400046;13804
1400055;13910
1400063;13774
1400071;13894
1400079;13723
1400087;13788
1400095;13649
1400104;13699
1400112;14200
1400152;15144
1400160;17812
1400168;16920
1400176;15933
1400185;15373
1400193;14973
1400202;14538
1400210;14260
1400218;14042
1400227;13856
1400235;13694
1400243;13616
1400251;13476
1400259;13407
1400268;13234
1400276;13148
1400284;12890
1400292;12786
1400300;12531
1400308;12405
1400317;12078
1400325;11924
1400333;11579
1400341;11510
1400349;11352
1400358;11444
1400366;11460
1400374;11742
1400382;11866
1400390;12305
1400399;12620
1400407;13187
1400415;13415
1400423;13824
1400434;14064
1400443;14220
1400451;14221
1400459;14236
1400467;14185
1400475;14204
1400484;14092
1400492;14131
1400500;14024
1400508;14078
1400517;13978
1400526;13987
1400534;13875
1400542;13968
1400550;13842
1400558;13933
1400567;13824
1400575;13927
1400583;13843
1400591;13957
1400599;13847
1400607;13956
1400616;13792
1400624;13797
1400632;13512
1400640;13589
1400648;13448
1400657;13601
1400665;13514
1400673;13721
1400681;13679
1400689;13935
1400698;13780
1400706;13927
1400714;13747
1400725;13886
1400733;13860
1400742;13892
1400750;13759
1400758;13742
1400766;14141
1400774;13561
1400783;10581
1400791;7241
1400799;6103
1400807;13032
1400815;16237
1400824;15731
1400833;14854
1400841;14453
1400849;14123
1400857;13985
1400866;13662
1400874;13723
1400882;13482
1400890;13537
1400898;13296
1400906;13355
1400915;13149
1400923;13243
1400931;13013
1400939;13074
1400947;12757
1400956;12743
1400964;12429
1400972;12349
1400980;11991
1400988;11922
1400997;11612
1401008;11779
1401016;11818
1401024;12052
1401032;12112
1401041;12586
1401049;12921
1401057;13512
1401065;13812
1401073;14298
1401082;14389
1401090;14643
1401098;14540
1401106;14684
1401114;14509
1401123;14635
1401131;14445
1401139;14527
1401147;14282
1401156;14385
1401165;14149
1401173;14191
1401181;13911
1401189;14019
1401197;13755
1401206;13844
1401214;13648
1401222;13778
1401230;13612
1401238;13727
1401246;13613
1401255;13790
1401263;13629
1401271;13813
1401279;13633
1401290;13769
1401299;13586
1401307;13542
1401315;13340
1401323;13440
1401331;13304
1401340;13469
1401348;13402
1401356;13589
1401364;13484
1401372;13668
1401381;13488
1401389;13608
1401397;13456
1401405;13602
1401413;13388
1401422;13508
1401430;13370
1401438;14098
1401446;12557
1401454;9053
1401463;5168
1401471;6166
1401480;13754
1401488;15594
1401496;14950
1401505;14598
1401513;14308
1401521;14221
1401529;13900
1401537;13947
1401545;13738
1401554;13814
1401562;13601
1401573;13634
1401581;13437
1401590;13500
1401598;13263
1401606;13325
1401614;13086
1401622;13115
1401630;12851
1401639;12797
1401647;12414
1401655;12343
1401663;11995
1401671;12010
1401680;11826
1401688;11977
1401696;11917
1401704;12261
1401712;12449
1401721;13023
1401729;13314
1401737;13840
1401745;13986
1401753;14247
1401762;14207
1401770;14366
1401778;14262
1401786;14394
1401795;14249
1401804;14325
1401812;14179
1401820;14278
1401828;14151
1401836;14202
1401844;14070
1401856;14227
1401864;14126
1401872;14242
1401880;14023
1401889;14126
1401897;13947
1401905;14092
1401913;13982
1401921;14135
1401929;13950
1401938;14124
1401946;13963
1401954;14067
1401962;13860
1401970;13845
1401979;13561
1401987;13663
1401995;13566
1402003;13705
1402011;13557
1402020;13673
1402028;13590
1402036;13779
1402044;13735
1402052;13856
1402061;13778
1402069;13889
1402077;13813
1402085;13876
1402093;13722
1402102;13699
1402110;14261
1402118;13746
1402127;10575
1402135;6293
1402146;6071
1402154;14000
1402162;15571
1402170;15203
1402178;14496
1402188;14479
1402196;14091
1402204;14000
1402212;13715
1402220;13746
1402228;13523
1402237;13584
1402245;13375
1402253;13411
1402261;13216
1402269;13287
1402278;13069
1402286;13072
1402294;12850
1402302;12808
1402310;12543
1402319;12381
1402327;12070
1402335;11949
1402343;11779
1402351;11788
1402360;11802
1402368;11935
1402376;12074
1402384;12426
1402392;12861
1402401;13340
1402409;13738
1402417;14029
1402428;14317
1402436;14588
1402445;14484
1402453;14652
1402461;14500
1402469;14590
1402477;14449
1402486;14521
1402495;14387
1402503;14488
1402511;14319
1402519;14334
1402527;14168
1402536;14219
1402544;14070
1402552;14074
1402560;13963
1402568;13942
1402577;13807
1402585;13811
1402593;13770
1402601;13772
1402609;13777
1402618;13784
1402626;13759
1402634;13711
1402642;13596
1402650;13427
1402659;13414
1402667;13421
1402675;13466
1402683;13438
1402691;13519
1402700;13561
1402711;13734
1402719;13937
1402727;13782
1402735;13855
1402744;13726
1402752;13768
1402760;13623
1402768;13614
1402776;13483
1402785;14190
1402794;13373
1402802;10138
1402810;5879
1402818;4991
1402826;12031
1402835;15503
1402843;15171
1402851;14580
1402859;14347
1402867;14128
1402876;13905
1402884;13790
1402892;13738
1402900;13648
1402908;13599
1402917;13511
1402925;13501
1402933;13412
1402941;13392
1402949;13210
1402958;13147
1402966;12943
1402974;12843
1402982;12581
1402993;12353
1403002;12227
1403010;11939
1403018;11865
1403026;11810
1403034;11900
1403043;11933
1403051;12153
1403059;12480
1403067;12936
1403075;13365
1403084;13746
1403092;14058
1403100;14271
1403108;14435
1403117;14472
1403126;14504
1403134;14450
1403142;14454
1403150;14350
1403158;14347
1403166;14216
1403175;14226
1403183;14108
1403191;14126
1403199;14021
1403207;14066
1403216;13938
1403224;14003
1403232;13857
1403240;13944
1403248;13801
1403257;13909
1403265;13852
1403276;13961
1403284;13971
1403292;13888
1403301;13873
1403309;13883
1403317;13896
1403325;13873
1403333;13820
1403342;13649
1403350;13461
1403358;13461
1403366;13460
1403374;13505
1403383;13454
1403391;13567
1403399;13574
1403407;13751
1403415;13750
1403423;13837
1403432;13803
1403441;13914
1403449;13836
1403457;13851
1403465;13677
1403474;13668
1403482;14151
1403490;13792
1403498;10714
1403506;6549
1403515;4804
1403523;11206
1403531;15499
1403539;15440
1403547;14691
1403556;14515
1403567;14253
1403575;14093
1403583;13937
1403591;13854
1403600;13740
1403608;13655
1403616;13634
1403624;13548
1403632;13481
1403641;13425
1403649;13108
1403657;13115
1403665;12923
1403673;12870
1403682;12617
1403690;12546
1403698;12249
1403706;12200
1403714;11981
1403722;12085
1403731;12042
1403739;12240
1403747;12306
1403755;12742
1403763;12967
1403773;13483
1403781;13695
1403789;14144
1403797;14171
1403805;14426
1403814;14266
1403822;14385
1403830;14149
1403838;14278
1403849;14154
1403858;14219
1403866;14075
1403874;14123
1403882;13985
1403890;14081
1403899;13910
1403907;14001
1403915;13869
1403923;13973
1403931;13850
1403940;14010
1403948;13862
1403956;13984
1403964;13802
1403972;13979
1403981;13836
1403989;13980
1403997;13808
1404005;13945
1404013;13798
1404022;13975
1404030;13819
1404038;13904
1404046;13610
1404054;13567
1404062;13333
1404071;13496
1404079;13345
1404088;13522
1404096;13336
1404104;13579
1404113;13521
1404121;13752
1404131;13702
1404140;13869
1404148;13768
1404157;13851
1404165;13673
1404173;13785
1404181;13589
1404189;14383
1404198;13294
1404206;9981
1404214;5894
1404222;5721
1404230;13051
1404239;15765
1404247;15130
1404255;14665
1404263;14290
1404271;14231
1404280;13862
1404288;13916
1404296;13662
1404304;13730
1404312;13494
1404321;13639
1404329;13432
1404337;13521
1404345;13266
1404353;13356
1404361;13164
1404370;13213
1404378;12935
1404386;12923
1404394;12575
1404402;12444
1404414;12114
1404422;12181
1404430;11993
1404438;12140
1404446;12091
1404455;12402
1404463;12543
1404472;13078
1404480;13351
1404488;13876
1404497;14014
1404505;14387
1404513;14358
1404521;14623
1404529;14520
1404538;14673
1404546;14506
1404554;14660
1404562;14462
1404570;14606
1404579;14437
1404587;14527
1404595;14302
1404603;14343
1404611;14128
1404620;14198
1404628;14027
1404636;14143
1404644;14036
1404652;14216
1404660;14132
1404669;14287
1404677;14179
1404685;14303
1404696;14327
1404705;14542
1404713;14362
1404721;14446
1404729;14267
1404737;14339
1404745;14043
1404754;13980
1404762;13726
1404771;13847
1404779;13731
1404787;13874
1404796;13775
1404804;13957
1404812;13825
1404820;14012
1404828;13880
1404837;13986
1404845;13811
1404853;13897
1404861;13702
1404869;13754
1404878;13517
1404886;13751
1404894;13885
1404902;12194
1404910;8426
1404919;5993
1404927;8980
1404935;15765
1404943;15834
1404951;15222
1404959;14570
1404968;14439
1404976;14127
1404987;14051
1404995;13844
1405004;13902
1405012;13648
1405020;13672
1405028;13389
1405036;13430
1405044;13183
1405053;13209
1405061;12942
1405069;12943
1405077;12681
1405085;12671
1405094;12314
1405103;12212
1405111;11898
1405119;11874
1405127;11693
1405136;11813
1405144;11778
1405152;11992
1405160;12094
1405168;12528
1405177;12873
1405185;13390
1405193;13686
1405201;14043
1405209;14217
1405218;14405
1405226;14436
1405234;14515
1405242;14500
1405250;14479
1405258;14427
1405270;14562
1405278;14423
1405286;14453
1405294;14219
1405303;14252
1405311;14026
1405319;14086
1405327;13914
1405335;13959
1405343;13840
1405352;13974
1405360;13830
1405368;13927
1405376;13739
1405384;13711
1405393;13532
1405401;13626
1405410;13591
1405418;13738
1405426;13714
1405435;13855
1405443;13939
1405451;14065
1405459;14034
1405467;14078
1405476;14081
1405484;14110
1405492;14065
1405500;13977
1405508;13944
1405517;13890
1405525;14418
1405533;13277
1405541;10042
1405552;6540
1405561;9327
1405569;16179
1405577;16289
1405585;15632
1405593;14876
1405602;14674
1405610;14381
1405618;14254
1405626;14055
1405634;13995
1405642;13845
1405651;13803
1405659;13663
1405667;13614
1405675;13497
1405683;13406
1405692;13231
1405700;13142
1405708;12973
1405716;12773
1405724;12555
1405733;12276
1405742;12052
1405750;11815
1405758;11760
1405766;11757
1405775;11883
1405783;11919
1405791;12215
1405799;12516
1405807;13003
1405816;13383
1405824;13852
1405835;14304
1405843;14462
1405851;14613
1405860;14592
1405868;14609
1405876;14557
1405884;14562
1405892;14452
1405901;14367
1405909;14256
1405917;14169
1405925;14042
1405933;13999
1405942;13956
1405950;13905
1405958;13896
1405966;13823
1405974;13855
1405982;13732
1405991;13775
1405999;13603
1406007;13534
1406015;13402
1406023;13454
1406032;13380
1406040;13522
1406048;13514
1406057;13690
1406065;13642
1406074;13785
1406082;13680
1406090;13796
1406098;13657
1406106;13758
1406118;13758
1406126;13720
1406134;13639
1406142;13833
1406150;13758
1406159;11596
1406167;7902
1406175;5487
1406183;9933
1406191;15887
1406200;15819
1406208;15230
1406216;14730
1406224;14605
1406232;14275
1406241;14178
1406249;14009
1406257;14032
1406265;13882
1406273;13878
1406281;13712
1406290;13761
1406298;13579
1406306;13597
1406314;13394
1406322;13367
1406331;13064
1406339;12993
1406347;12627
1406355;12519
1406363;12119
1406372;12028
1406381;11778
1406389;11894
1406397;11805
1406407;12176
1406416;12460
1406425;12891
1406433;13277
1406441;13703
1406449;13972
1406458;14247
1406466;14315
1406474;14438
1406482;14342
1406490;14396
1406499;14263
1406507;14323
1406515;14216
1406523;14305
1406531;14168
1406540;14237
1406548;14033
1406556;14145
1406564;13960
1406572;14000
1406580;13808
1406589;13920
1406597;13761
1406605;13869
1406613;13728
1406621;13789
1406630;13505
1406638;13584
1406646;13409
1406654;13542
1406662;13404
1406671;13628
1406680;13546
1406690;13873
1406698;13934
1406706;13960
1406715;13799
1406723;13849
1406732;13718
1406740;13813
1406748;13688
1406757;13696
1406765;13810
1406773;14127
1406781;12027
1406789;8093
1406798;4690
1406806;7957
1406814;14885
1406822;15639
1406830;14970
1406839;14710
1406847;14414
1406855;14298
1406863;13967
1406871;13993
1406879;13742
1406888;13798
1406896;13571
1406904;13682
1406912;13452
1406920;13516
1406929;13266
1406937;13308
1406945;12991
1406953;13014
1406961;12668
1406973;12576
1406981;12253
1406989;12123
1406997;11826
1407005;11876
1407014;11765
1407022;11978
1407030;11984
1407038;12399
1407047;12677
1407056;13281
1407064;13541
1407072;14025
1407080;14134
1407088;14474
1407097;14383
1407105;14530
1407113;14340
1407121;14460
1407129;14260
1407138;14355
1407146;14129
1407154;14246
1407162;14036
1407170;14175
1407178;14026
1407187;14201
1407195;14047
1407203;14208
1407211;14028
1407219;14186
1407228;14024
1407236;14156
1407244;13994
1407255;14220
1407263;14080
1407272;14168
1407280;13795
1407288;13788
1407296;13621
1407304;13814
1407313;13686
1407321;13831
1407329;13656
1407337;13855
1407345;13807
1407354;14000
1407362;13847
1407371;13984
1407379;13785
1407387;13929
1407396;13729
1407404;13805
1407412;13542
1407420;14126
1407428;13725
1407437;11128
1407445;6653
1407453;4461
1407461;9476
1407469;15245
1407478;15213
1407486;14766
1407494;14279
1407502;14215
1407510;13831
1407518;13814
1407527;13629
1407535;13674
1407546;13566
1407554;13723
1407562;13478
1407571;13559
1407579;13290
1407587;13327
1407595;13062
1407603;13114
1407612;12781
1407620;12730
1407628;12308
1407636;12194
1407644;11851
1407653;11884
1407661;11684
1407669;11860
1407677;11803
1407685;12103
1407694;12257
1407702;12821
1407711;13162
1407719;13735
1407727;13940
1407736;14268
1407744;14237
1407752;14431
1407760;14354
1407768;14471
1407777;14343
1407785;14430
1407793;14303
1407801;14350
1407809;14241
1407817;14278
1407829;14195
1407837;14405
1407845;14164
1407853;14253
1407862;14024
1407870;14139
1407878;13958
1407886;14114
1407894;13980
1407902;14125
1407911;13936
1407919;14081
1407927;13892
1407935;13926
1407943;13581
1407952;13590
1407960;13485
1407968;13637
1407976;13527
1407984;13622
1407993;13540
1408001;13711
1408009;13695
1408018;13749
1408026;13620
1408035;13638
1408043;13542
1408051;13609
1408059;13539
1408067;13523
1408076;13384
1408084;13957
1408092;13582
1408100;10750
1408111;5262
1408120;5503
1408128;13022
1408136;15641
1408144;15116
1408152;14677
1408161;14323
1408169;14178
1408177;13805
1408185;13790
1408193;13563
1408201;13609
1408210;13421
1408218;13450
1408226;13280
1408234;13276
1408242;13138
1408251;13100
1408259;12893
1408267;12823
1408275;12616
1408283;12488
1408292;12273
1408300;12078
1408308;11858
1408316;11737
1408324;11702
1408333;11786
1408341;11898
1408349;12075
1408358;12405
1408366;12762
1408375;13206
1408383;13616
1408393;14028
1408402;14341
1408410;14309
1408419;14455
1408427;14330
1408435;14430
1408443;14298
1408451;14335
1408460;14164
1408468;14139
1408476;13983
1408484;14004
1408492;13882
1408500;13868
1408509;13768
1408517;13779
1408525;13706
1408533;13747
1408541;13709
1408550;13670
1408558;13629
1408566;13614
1408574;13642
1408582;13647
1408591;13676
1408599;13633
1408607;13636
1408615;13520
1408623;13417
1408632;13207
1408640;13262
1408648;13220
1408656;13272
1408665;13213
1408676;13334
1408684;13504
1408692;13455
1408700;13503
1408708;13406
1408718;13433
1408726;13361
1408734;13421
1408742;13320
1408750;13292
1408759;13190
1408767;13905
1408775;13210
1408783;9896
1408791;5608
1408799;4374
1408808;11388
1408816;15266
1408824;15089
1408832;14454
1408840;14284
1408849;14016
1408857;13839
1408865;13706
1408873;13738
1408881;13615
1408890;13652
1408898;13477
1408906;13504
1408914;13342
1408922;13404
1408931;13201
1408939;13229
1408947;13005
1408955;13014
1408966;12790
1408975;12569
1408983;12341
1408991;12165
1408999;12042
1409007;12003
1409016;12039
1409024;12168
1409032;12312
1409041;12676
1409049;13046
1409058;13504
1409066;13822
1409074;14183
1409082;14349
1409090;14563
1409098;14526
1409107;14587
1409115;14476
1409123;14507
1409131;14342
1409139;14417
1409148;14285
1409156;14325
1409164;14146
1409172;14198
1409180;14008
1409189;14098
1409197;13883
1409205;13974
1409213;13817
1409221;13967
1409230;13793
1409238;13891
1409249;13855
1409257;13958
1409265;13900
1409274;13890
1409282;13844
1409290;13899
1409298;13862
1409306;13919
1409315;13807
1409323;13800
1409331;13577
1409339;13572
1409347;13463
1409356;13578
1409365;13488
1409373;13643
1409381;13598
1409389;13786
1409398;13742
1409406;13950
1409414;13825
1409422;13961
1409430;13847
1409438;14006
1409447;13841
1409455;13938
1409463;13722
1409471;14053
1409479;14217
1409488;12478
1409496;8254
1409504;5311
1409512;8013
1409520;15371
1409532;15776
1409540;15226
1409548;14770
1409556;14652
1409564;14290
1409573;14267
1409581;14070
1409589;14115
1409597;13912
1409605;13971
1409614;13791
1409622;13843
1409630;13619
1409638;13659
1409646;13421
1409655;13428
1409663;13136
1409671;13107
1409679;12746
1409687;12676
1409695;12267
1409705;12273
1409713;12032
1409721;12214
1409729;12138
1409737;12503
1409746;12549
1409754;13039
1409762;13291
1409770;13875
1409778;14056
1409787;14523
1409795;14520
1409803;14774
1409814;14712
1409822;14846
1409831;14639
1409839;14650
1409847;14462
1409855;14506
1409863;14317
1409872;14375
1409880;14155
1409888;14219
1409896;14041
1409904;14139
1409913;13947
1409921;14075
1409929;13881
1409937;14068
1409945;13929
1409954;14089
1409962;13909
1409970;14047
1409978;13889
1409986;14012
1409994;13847
1410003;13977
1410011;13808
1410020;14011
1410028;13790
1410036;13793
1410045;13481
1410053;13579
1410061;13450
1410069;13628
1410077;13515
1410086;13735
1410097;13741
1410105;14002
1410113;13851
1410121;14011
1410130;13804
1410138;13951
1410146;13800
1410154;13967
1410162;13780
1410171;13867
1410179;14202
1410187;13872
1410195;10916
1410203;7471
1410212;5997
1410220;12485
1410228;16164
1410236;15775
1410244;14902
1410253;14558
1410261;14222
1410269;14121
1410277;13770
1410285;13814
1410294;13592
1410302;13650
1410310;13399
1410318;13481
1410326;13273
1410335;13282
1410344;13028
1410352;13016
1410360;12783
1410368;12873
1410376;12596
1410388;12453
1410396;12102
1410404;12056
1410412;11741
1410420;11871
1410429;11741
1410437;11990
1410445;12021
1410453;12456
1410461;12665
1410470;13215
1410478;13441
1410486;13942
1410494;14028
1410502;14336
1410511;14307
1410519;14470
1410527;14387
1410535;14606
1410543;14484
1410552;14598
1410560;14457
1410568;14582
1410576;14401
1410584;14471
1410593;14325
1410601;14452
1410609;14315
1410617;14410
1410625;14310
1410633;14392
1410643;14291
1410651;14372
1410659;14327
1410669;14549
1410678;14481
1410687;14599
1410695;14365
1410703;14350
1410711;14027
1410719;14036
1410728;13824
1410736;13937
1410744;13774
1410752;13934
1410760;13814
1410769;14055
1410777;13936
1410785;14050
1410793;13919
1410801;14008
1410810;13831
1410818;13934
1410826;13786
1410834;13832
1410842;13857
1410851;14350
1410859;12463
1410867;8718
1410875;5791
1410883;8468
1410892;15521
1410900;15997
1410908;15276
1410916;14700
1410924;14371
1410932;14148
1410941;13919
1410952;13926
1410960;13698
1410968;13759
1410977;13543
1410985;13614
1410993;13358
1411001;13377
1411010;13101
1411018;13080
1411027;12833
1411035;12812
1411043;12541
1411051;12425
1411059;12048
1411068;11925
1411076;11653
1411084;11698
1411092;11628
1411100;11763
1411109;11820
1411117;12157
1411125;12536
1411133;13014
1411141;13412
1411150;13822
1411158;14019
1411166;14178
1411174;14244
1411182;14325
1411191;14367
1411199;14353
1411207;14358
1411215;14312
1411223;14312
1411235;14404
1411243;14291
1411251;14351
1411259;14111
1411267;14133
1411276;13977
1411284;14049
1411292;13922
1411300;13949
1411308;13830
1411318;13895
1411326;13780
1411334;13828
1411342;13742
1411350;13794
1411358;13743
1411367;13791
1411375;13736
1411383;13719
1411391;13575
1411399;13313
1411408;12957
1411416;13261
1411424;13304
1411432;13327
1411440;13500
1411449;13523
1411457;13677
1411465;13744
1411473;13862
1411481;13828
1411490;13921
1411498;13838
1411506;13883
1411517;13834
1411525;13770
1411534;14040
1411542;14172
1411550;12106
1411558;7980
1411566;5021
1411575;8090
1411583;14993
1411591;15498
1411599;14928
1411607;14402
1411615;14238
1411624;13936
1411632;13749
1411641;13601
1411649;13489
1411657;13395
1411666;13334
1411674;13286
1411682;13074
1411690;13028
1411698;12924
1411707;12847
1411715;12604
1411723;12511
1411731;12272
1411739;12180
1411748;11819
1411756;11641
1411764;11369
1411772;11364
1411780;11214
1411789;11379
1411797;11360
1411808;11818
1411816;12226
1411824;12621
1411833;13065
1411841;13387
1411849;13575
1411857;13731
1411865;13794
1411874;13855
1411882;13867
1411890;13923
1411898;13864
1411906;13908
1411914;13786
1411923;13888
1411931;13851
1411939;13894
1411947;13713
1411955;13498
1411965;13506
1411973;13934
1411981;13863
1411989;13851
1411997;13712
1412006;13805
1412014;13733
1412022;13896
1412030;13845
1412038;13939
1412047;13856
1412055;13969
1412063;13889
1412071;13946
1412079;13776
1412091;13729
1412099;13787
1412107;13730
1412115;13734
1412123;13699
1412132;13652
1412140;13620
1412148;13630
1412156;13609
1412164;13546
1412173;13443
1412181;13395
1412189;13390
1412197;13330
1412205;13311
1412214;13211
1412222;13894
1412230;12659
1412238;9024
1412246;4887
1412254;5068
1412263;12728
1412271;15240
1412279;14747
1412287;14322
1412295;14046
1412304;13907
1412313;13641
1412321;13716
1412329;13533
1412337;13612
1412346;13448
1412354;13512
1412362;13304
1412373;13317
1412381;13282
1412390;13200
1412398;13022
1412406;12926
1412414;12742
1412422;12628
1412431;12387
1412439;12240
1412447;11995
1412455;11978
1412463;11875
1412472;12014
1412480;12072
1412488;12373
1412496;12601
1412504;13132
1412513;13483
1412521;13971
1412529;14181
1412537;14465
1412545;14500
1412553;14718
1412562;14636
1412570;14767
1412578;14634
1412586;14750
1412594;14577
1412603;14672
1412611;14503
1412620;14617
1412628;14425
1412636;14512
1412645;14338
1412655;14405
1412663;14349
1412672;14379
1412680;14297
1412689;14333
1412697;14232
1412705;14268
1412713;14187
1412721;14298
1412730;14233
1412738;14231
1412746;14024
1412754;13939
1412762;13732
1412771;13825
1412779;13702
1412787;13816
1412795;13719
1412803;13865
1412812;13814
1412820;14016
1412828;13898
1412836;13997
1412844;13818
1412852;13909
1412861;13764
1412869;13851
1412877;13658
1412885;13716
1412893;14270
1412902;13306
1412910;9540
1412918;5574
1412926;5516
1412934;13409
1412946;15526
1412954;15057
1412962;14526
1412970;14467
1412978;14084
1412988;14027
1412996;13804
1413004;13820
1413012;13659
1413020;13699
1413029;13502
1413037;13550
1413045;13358
1413053;13391
1413061;13195
1413070;13257
1413078;12981
1413086;12958
1413094;12598
1413102;12494
1413111;12105
1413119;12042
1413127;11735
1413135;11847
1413143;11730
1413151;11993
1413160;12055
1413168;12519
1413176;12789
1413184;13367
1413192;13648
1413201;14101
1413209;14165
1413217;14411
1413228;14415
1413236;14647
1413245;14461
1413253;14527
1413261;14374
1413269;14458
1413277;14259
1413286;14383
1413295;14224
1413303;14333
1413311;14134
1413319;14257
1413328;14093
1413336;14205
1413344;14036
1413352;14136
1413360;13957
1413369;14117
1413377;14029
1413385;14149
1413393;14006
1413401;14070
1413410;13779
1413418;13835
1413426;13666
1413434;13733
1413442;13601
1413450;13820
1413459;13799
1413467;14055
1413475;14003
1413483;14168
1413491;14042
1413500;14168
1413511;14081
1413519;14244
1413527;14018
1413535;14062
1413544;14242
1413552;14032
1413560;11340
1413568;7775
1413576;5860
1413585;12127
1413593;16293
1413601;15867
1413609;14995
1413617;14627
1413627;14346
1413635;14213
1413643;13883
1413651;13893
1413659;13702
1413668;13763
1413676;13545
1413684;13564
1413692;13380
1413700;13409
1413709;13225
1413717;13218
1413725;13030
1413733;12974
1413741;12688
1413750;12596
1413758;12322
1413766;12149
1413774;11904
1413782;11870
1413794;11876
1413802;12232
1413810;12207
1413818;12574
1413826;12749
1413834;13291
1413843;13538
1413851;14018
1413859;14097
1413867;14427
1413875;14440
1413884;14650
1413892;14574
1413900;14706
1413908;14561
1413916;14607
1413925;14436
1413933;14473
1413942;14355
1413950;14411
1413958;14540
1413967;14402
1413975;14146
1413983;14208
1413991;14152
1413999;14218
1414008;14111
1414016;14112
1414024;13860
1414032;13740
1414040;13653
1414049;13660
1414057;13666
1414065;13713
1414076;13871
1414084;14163
1414093;14103
1414101;14212
1414109;14069
1414117;14153
1414125;14016
1414134;14148
1414142;13979
1414150;14048
1414158;13897
1414166;14334
1414174;13843
1414183;11343
1414191;7731
1414199;6301
1414207;11996
1414215;16496
1414224;15925
1414232;15242
1414240;14603
1414248;14356
1414256;14047
1414266;13862
1414274;13716
1414282;13671
1414290;13568
1414298;13528
1414307;13413
1414315;13316
1414323;13240
1414331;13115
1414339;12994
1414348;12836
1414356;12731
1414367;12555
1414375;12302
1414383;12132
1414392;11833
1414400;11808
1414408;11757
1414416;11890
1414424;11920
1414433;12208
1414441;12453
1414449;12908
1414457;13298
1414465;13702
1414473;13935
1414482;14140
1414490;14184
1414498;14211
1414506;14208
1414514;14211
1414523;14200
1414531;14157
1414539;14129
1414547;14049
1414555;14042
1414564;13987
1414572;14031
1414581;13942
1414589;13964
1414597;13892
1414606;13932
1414614;13859
1414622;13969
1414630;13920
1414638;14004
1414650;14025
1414658;13983
1414666;13895
1414674;13712
1414682;13677
1414691;13594
1414699;13582
1414707;13574
1414715;13648
1414723;13677
1414732;13751
1414740;13803
1414748;13817
1414756;13841
1414764;13832
1414772;13866
1414781;13800
1414789;13763
1414797;13617
1414805;13969
1414813;13998
1414822;11851
1414830;7689
1414838;4892
1414846;8913
1414854;15376
1414863;15565
1414871;15080
1414879;14546
1414887;14489
1414895;14119
1414905;14059
1414913;13839
1414921;13839
1414931;13764
1414939;13763
1414948;13677
1414957;13586
1414965;13489
1414973;13430
1414981;13348
1414990;13266
1414998;13017
1415006;12822
1415014;12588
1415022;12390
1415031;12087
1415039;11955
1415047;11820
1415055;11921
1415063;11950
1415071;12196
1415080;12370
1415088;12832
1415096;13173
1415104;13665
1415112;13878
1415121;14191
1415129;14197
1415137;14372
1415145;14251
1415153;14366
1415162;14187
1415170;14296
1415178;14134
1415186;14192
1415194;14024
1415203;14094
1415214;14033
1415222;14075
1415230;13969
1415238;13980
1415247;13909
1415255;13920
1415263;13860
1415272;13919
1415280;13849
1415289;13884
1415297;13746
1415305;13782
1415313;13618
1415321;13540
1415330;13329
1415338;13413
1415346;13362
1415354;13511
1415362;13420
1415370;13591
1415379;13553
1415387;13779
1415395;13701
1415403;13806
1415411;13653
1415420;13738
1415428;13531
1415436;13618
1415444;13402
1415452;13474
1415461;13960
1415469;13577
1415477;10328
1415485;5992
1415496;5491
1415505;13449
1415513;15348
1415521;15042
1415529;14462
1415537;14363
1415546;14000
1415554;13922
1415562;13743
1415571;13753
1415579;13545
1415588;13553
1415596;13390
1415604;13461
1415612;13309
1415620;13391
1415629;13158
1415637;13180
1415645;12936
1415653;12897
1415661;12543
1415670;12444
1415678;12064
1415686;11994
1415694;11715
1415702;11864
1415710;11737
1415719;11995
1415727;12049
1415735;12490
1415743;12765
1415751;13385
1415760;13619
1415768;14092
1415776;14145
1415787;14475
1415795;14455
1415804;14532
1415812;14384
1415820;14477
1415828;14270
1415836;14361
1415845;14205
1415853;14294
1415861;14128
1415869;14204
1415877;14008
1415887;14120
1415895;13968
1415903;14057
1415911;13902
1415919;14041
1415928;13881
1415936;14013
1415944;13869
1415952;14033
1415960;13899
1415969;14067
1415977;13873
1415985;13916
1415993;13570
1416001;13696
1416009;13577
1416018;13789
1416026;13639
1416034;13801
1416042;13724
1416050;13961
1416059;13931
1416070;14154
1416078;14076
1416086;14137
1416094;13897
1416103;13986
1416111;13763
1416119;13835
1416127;13786
1416135;14469
1416144;12712
1416152;8823
1416160;5029
1416168;6716
1416176;14169
1416185;15726
1416193;15128
1416201;14816
1416209;14554
1416218;14472
1416227;14151
1416235;14170
1416243;13927
1416251;13988
1416259;13774
1416268;13834
1416276;13636
1416284;13682
1416292;13463
1416300;13454
1416308;13210
1416317;13238
1416325;13008
1416333;12931
1416341;12621
1416353;12456
1416361;12192
1416369;12210
1416377;12013
1416385;12156
1416393;12108
1416402;12500
1416410;12708
1416418;13306
1416426;13609
1416434;14109
1416443;14221
1416451;14564
1416459;14543
1416467;14672
1416475;14523
1416484;14642
1416492;14486
1416500;14562
1416508;14372
1416516;14454
1416525;14311
1416533;14317
1416541;14140
1416550;14188
1416558;14057
1416567;14128
1416575;14000
1416583;14095
1416591;14015
1416599;14091
1416607;14053
1416616;14078
1416624;13975
1416635;14134
1416643;13960
1416652;14053
1416660;13838
1416668;13955
1416676;13808
1416684;13888
1416692;13658
1416701;13620
1416709;13364
1416717;13441
1416725;13335
1416733;13462
1416742;13335
1416750;13481
1416758;13480
1416766;13691
1416774;13617
1416783;13676
1416791;13608
1416799;13664
1416807;13595
1416815;13647
1416824;13546
1416832;13478
1416840;13800
1416848;13826
1416856;11389
1416865;7342
1416873;4936
1416882;9395
1416890;15120
1416898;15300
1416906;14680
1416917;14391
1416925;14086
1416934;13974
1416942;13708
1416951;13731
1416959;13527
1416967;13515
1416975;13317
1416983;13323
1416991;13159
1417000;13179
1417008;13027
1417016;13009
1417024;12795
1417032;12713
1417041;12472
1417049;12359
1417057;12067
1417065;11844
1417073;11625
1417082;11593
1417090;11597
1417098;11721
1417106;11855
1417114;12127
1417123;12517
1417131;12927
1417139;13347
1417147;13674
1417155;13969
1417164;14080
1417172;14247
1417180;14258
1417188;14337
1417197;14302
1417216;14721
1417224;14617
1417232;14551
1417241;14360
1417250;14353
1417258;14197
1417266;14177
1417274;14064
1417282;14078
1417290;14031
1417299;14049
1417307;13995
1417315;14017
1417323;13963
1417331;13949
1417340;13915
1417348;13886
1417356;13891
1417364;13831
1417372;13816
1417381;13734
1417389;13743
1417397;13682
1417405;13692
1417413;13622
1417422;13576
1417430;13365
1417438;13308
1417446;13179
1417454;13283
1417463;13210
1417471;13320
1417479;13269
1417487;13510
1417498;13697
1417507;13730
1417515;13714
1417523;13631
1417531;13626
1417540;13626
1417549;13605
1417557;13516
1417565;13422
1417573;13809
1417581;13730
1417590;11340
1417598;7314
1417606;5133
1417614;9714
1417622;15376
1417630;15447
1417639;14854
1417647;14438
1417655;14351
1417663;14012
1417671;13936
1417680;13752
1417688;13750
1417696;13585
1417704;13639
1417712;13469
1417721;13499
1417729;13293
1417737;13323
1417745;13090
1417753;13066
1417762;12786
1417770;12765
1417781;12462
1417789;12282
1417797;12030
1417806;11844
1417814;11756
1417822;11812
1417830;11844
1417838;12028
1417847;12262
1417855;12711
1417864;13092
1417872;13586
1417880;13920
1417889;14273
1417897;14413
1417905;14591
1417913;14556
1417921;14696
1417929;14604
1417938;14712
1417946;14568
1417954;14614
1417962;14452
1417970;14535
1417979;14355
1417987;14438
1417995;14259
1418003;14381
1418011;14177
1418020;14296
1418028;14154
1418036;14289
1418044;14087
1418052;14225
1418064;14161
1418072;14256
1418080;14198
1418088;14214
1418096;14118
1418105;14138
1418113;14040
1418121;14079
1418129;13947
1418137;14014
1418146;13823
1418154;13899
1418162;13790
1418170;13918
1418179;13755
1418188;13786
1418196;13519
1418204;13574
1418212;13457
1418220;13621
1418228;13466
1418237;13610
1418245;13493
1418253;13675
1418261;13605
1418269;13783
1418278;13617
1418286;13738
1418294;13567
1418302;13700
1418310;13496
1418319;13584
1418327;13399
1418335;14108
1418346;11785
1418354;8098
1418363;5534
1418371;9385
1418379;15332
1418387;15602
1418395;14808
1418404;14487
1418412;14201
1418420;14078
1418428;13779
1418436;13818
1418445;13600
1418453;13671
1418461;13449
1418469;13499
1418477;13305
1418486;13388
1418494;13212
1418502;13269
1418510;13016
1418519;13049
1418527;12718
1418536;12692
1418544;12321
1418552;12253
1418560;11868
1418568;11883
1418577;11705
1418585;11922
1418593;11819
1418601;12107
1418609;12263
1418618;12824
1418626;13130
1418637;13840
1418645;14037
1418653;14362
1418662;14319
1418670;14507
1418678;14402
1418686;14580
1418694;14393
1418703;14528
1418711;14379
1418719;14465
1418727;14264
1418735;14384
1418744;14148
1418752;14260
1418760;14098
1418768;14236
1418776;14057
1418785;14168
1418793;13953
1418801;14082
1418809;13923
1418817;14062
1418825;13909
1418834;14034
1418843;13887
1418851;14005
1418859;13844
1418867;13991
1418876;13836
1418884;13954
1418892;13843
1418900;13961
1418908;13791
1418920;13980
1418928;13847
1418936;13882
1418944;13551
1418952;13565
1418961;13384
1418969;13555
1418977;13370
1418985;13504
1418993;13345
1419002;13549
1419010;13486
1419018;13715
1419026;13581
1419034;13719
1419043;13594
1419051;13741
1419059;13585
1419067;13690
1419075;13464
1419084;13986
1419092;13444
1419100;11011
1419108;7346
1419116;6110
1419124;11833
1419133;16074
1419141;15459
1419149;14825
1419158;14227
1419166;14173
1419175;13847
1419183;13780
1419191;13599
1419202;13655
1419210;13492
1419219;13636
1419227;13431
1419235;13498
1419243;13288
1419251;13368
1419260;13073
1419268;13048
1419276;12734
1419284;12722
1419292;12388
1419301;12279
1419309;11845
1419317;11842
1419325;11650
1419333;11808
1419342;11831
1419350;12129
1419358;12267
1419366;12746
1419374;13097
1419383;13613
1419391;13848
1419399;14211
1419407;14286
1419415;14409
1419423;14388
1419432;14472
1419440;14389
1419448;14430
1419456;14341
1419465;14302
1419474;14224
1419484;14300
1419492;14131
1419500;14183
1419508;13962
1419517;14042
1419526;13858
1419534;13979
1419542;13825
1419550;13941
1419559;13839
1419567;13957
1419575;13828
1419583;13904
1419591;13780
1419600;13882
1419608;13780
1419616;13851
1419624;13745
1419632;13820
1419641;13727
1419649;13821
1419657;13697
1419665;13652
1419673;13443
1419682;13401
1419690;13366
1419698;13483
1419706;13475
1419714;13523
1419722;13533
1419731;13604
1419739;13675
1419747;13670
1419755;13676
1419767;13773
1419775;13681
1419783;13738
1419791;13544
1419799;13589
1419807;14024
1419816;13539
1419824;10528
1419833;6858
1419841;5539
1419849;12073
1419858;15652
1419866;15295
1419874;14543
1419882;14230
1419890;13988
1419899;13773
1419907;13579
1419915;13553
1419923;13478
1419931;13433
1419940;13391
1419948;13355
1419956;13286
1419964;13222
1419972;13137
1419981;12997
1419989;12864
1419997;12720
1420005;12598
1420013;12348
1420022;12144
1420030;11821
1420038;11686
1420046;11517
1420086;14469
1420094;14499
1420103;14663
1420112;14627
1420120;14841
1420128;14709
1420136;14825
1420144;14618
1420153;14727
1420161;14478
1420169;14552
1420177;14323
1420185;14359
1420194;14099
1420202;14159
1420210;13932
1420218;14019
1420226;13786
1420234;13880
1420243;13700
1420251;13806
1420259;13607
1420267;13724
1420275;13574
1420284;13722
1420292;13541
1420300;13684
1420308;13587
1420316;13722
1420325;13575
1420333;13696
1420341;13579
1420349;13688
1420357;13564
1420369;13747
1420377;13641
1420385;13680
1420393;13325
1420401;13302
1420410;13071
1420419;13218
1420427;13093
1420435;13226
1420443;13084
1420452;13345
1420460;13300
1420468;13517
1420476;13385
1420484;13554
1420493;13420
1420501;13577
1420509;13397
1420517;13512
1420525;13333
1420534;13871
1420542;13548
1420550;11210
1420558;7149
1420566;5234
1420574;10209
1420583;15496
1420591;15253
1420599;14715
1420607;14235
1420615;14140
1420624;13795
1420632;13745
1420640;13594
1420651;13630
1420659;13439
1420668;13499
1420676;13281
1420684;13393
1420692;13131
1420700;13149
1420709;12873
1420717;12930
1420725;12639
1420734;12620
1420742;12277
1420751;12192
1420759;11843
1420767;11806
1420775;11581
1420783;11709
1420792;11663
1420800;11944
1420808;12042
1420816;12524
1420824;12840
1420833;13347
1420841;13605
1420849;13986
1420857;14121
1420865;14356
1420873;14307
1420882;14371
1420890;14305
1420898;14325
1420906;14241
1420914;14277
1420923;14234
1420934;14374
1420942;14208
1420950;14301
1420958;14022
1420967;14118
1420975;13942
1420983;14069
1420991;13901
1420999;14014
1421008;13883
1421016;14021
1421024;13897
1421033;14009
1421041;13858
1421050;13944
1421058;13837
1421066;13894
1421074;13808
1421082;13893
1421091;13834
1421099;13900
1421107;13749
1421115;13647
1421123;13463
1421132;13486
1421140;13452
1421148;13522
1421156;13512
1421164;13588
1421172;13650
1421181;13735
1421189;13793
1421197;13828
1421205;13832
1421217;13956
1421225;13891
1421233;13989
1421241;13800
1421249;13912
1421257;14347
1421266;12996
1421274;9155
1421282;5891
1421290;7123
1421298;14658
1421307;15803
1421315;15251
1421323;14599
1421331;14502
1421339;14248
1421348;14115
1421357;13931
1421365;13861
1421373;13726
1421381;13662
1421390;13565
1421398;13512
1421406;13443
1421414;13365
1421422;13288
1421431;13141
1421439;13041
1421447;12840
1421455;12681
1421463;12438
1421471;12248
1421480;11986
1421488;11884
1421496;11785
1421507;11887
1421516;12120
1421524;12195
1421532;12581
1421540;12939
1421548;13428
1421556;13784
1421565;14137
1421573;14298
1421581;14448
1421589;14468
1421597;14515
1421606;14478
1421614;14469
1421622;14459
1421630;14386
1421638;14367
1421647;14352
1421655;14336
1421663;14233
1421672;14182
1421680;14108
1421689;14092
1421697;14003
1421705;14013
1421713;13920
1421721;13932
1421730;13820
1421738;13891
1421746;13767
1421754;13848
1421762;13718
1421770;13829
1421779;13758
1421790;13893
1421798;14024
1421806;13961
1421815;13924
1421823;13714
1421831;13554
1421839;13441
1421847;13451
1421855;13466
1421864;13489
1421872;13551
1421880;13592
1421888;13656
1421896;13667
1421905;13689
1421913;13608
1421921;13645
1421929;13595
1421937;13621
1421946;13477
1421954;13454
1421962;13786
1421970;13667
1421978;10981
1421987;6981
1421995;4753
1422004;10378
1422012;15433
1422020;15398
1422029;14615
1422037;14353
1422045;14053
1422053;13927
1422061;13654
1422073;13708
1422081;13686
1422089;13594
1422097;13474
1422105;13407
1422114;13318
1422122;13266
1422130;13139
1422138;13105
1422146;12958
1422154;12850
1422163;12630
1422171;12459
1422179;12145
1422187;12008
1422195;11760
1422204;11777
1422212;11699
1422220;11920
1422228;11935
1422236;12287
1422245;12548
1422253;13089
1422261;13387
1422269;13845
1422277;13941
1422286;14224
1422294;14170
1422302;14391
1422311;14292
1422319;14443
1422328;14265
1422336;14365
1422344;14161
1422354;14284
1422363;14230
1422372;14212
1422380;14086
1422388;14108
1422396;14004
1422404;14036
1422413;13887
1422421;14011
1422429;13900
1422437;14002
1422445;13891
1422454;13989
1422462;13878
1422470;13981
1422478;13881
1422486;14014
1422494;13874
1422503;13951
1422511;13666
1422519;13681
1422527;13556
1422535;13736
1422544;13598
1422552;13767
1422560;13710
1422568;13940
1422576;13937
1422585;14101
1422593;13895
1422601;14030
1422609;13863
1422617;13955
1422626;13771
1422637;13894
1422645;13959
1422653;14480
1422661;12616
1422670;8753
1422679;5475
1422687;8395
1422695;15505
1422703;16063
1422712;15211
1422720;14782
1422728;14506
1422736;14381
1422744;14043
1422753;14057
1422761;13834
1422769;13902
1422777;13654
1422785;13677
1422793;13428
1422802;13495
1422810;13242
1422818;13310
1422826;13083
1422834;13146
1422843;12852
1422851;12842
1422859;12481
1422867;12421
1422875;12073
1422884;12069
1422892;11879
1422900;12117
1422908;12082
1422916;12428
1422928;12729
1422936;13313
1422944;13570
1422952;14051
1422960;14192
1422969;14520
1422977;14479
1422985;14693
1422994;14525
1423002;14636
1423011;14445
1423019;14547
1423027;14299
1423035;14422
1423043;14240
1423052;14327
1423060;14116
1423068;14195
1423076;13981
1423084;14069
1423092;13882
1423101;14031
1423109;13906
1423117;13996
1423125;13809
1423133;13911
1423142;13615
1423150;13680
1423158;13520
1423166;13656
1423174;13583
1423183;13786
1423191;13738
1423199;13928
1423210;13914
1423218;14119
1423227;13923
1423235;14013
1423243;13830
1423251;13912
1423259;13693
1423268;13779
1423276;13597
1423284;14295
1423292;13146
1423301;10046
1423310;6783
1423318;6855
1423326;14237
1423334;16610
1423342;15666
1423351;15099
1423359;14520
1423367;14458
1423375;14059
1423383;14014
1423391;13823
1423400;13898
1423408;13703
1423416;13746
1423424;13546
1423432;13587
1423441;13382
1423449;13367
1423457;13146
1423465;13147
1423473;12884
1423482;12774
1423493;12407
1423501;12340
1423509;11910
1423517;11893
1423526;11702
1423534;11911
1423542;11856
1423550;12153
1423558;12319
1423567;12858
1423575;13120
1423583;13620
1423591;13748
1423599;14131
1423608;14096
1423617;14278
1423625;14168
1423633;14329
1423641;14226
1423650;14332
1423658;14166
1423666;14244
1423674;14071
1423682;14122
1423690;13988
1423699;14079
1423707;13946
1423715;13984
1423723;13906
1423731;14020
1423740;13973
1423748;14025
1423756;13952
1423764;13879
1423775;13621
1423784;13741
1423792;13544
1423800;13654
1423808;13498
1423816;13676
1423825;13597
1423833;13808
1423841;13738
1423849;13848
1423857;13715
1423866;13805
1423874;13657
1423882;13761
1423890;13627
1423898;13743
1423907;13639
1423915;14236
1423923;12671
1423931;9103
1423939;5809
1423949;7330
1423957;14957
1423965;16036
1423973;15305
1423981;14716
1423990;14361
1423998;14216
1424006;13948
1424014;13843
1424022;13706
1424030;13635
1424039;13586
1424047;13560
1424058;13439
1424066;13569
1424074;13323
1424083;13341
1424091;13099
1424099;13086
1424107;12788
1424115;12675
1424124;12344
1424132;12208
1424140;11912
1424148;11888
1424156;11804
1424165;11962
1424173;12003
1424181;12300
1424189;12625
1424197;13152
1424206;13517
1424214;13908
1424222;14103
1424230;14262
1424238;14291
1424247;14316
1424255;14283
1424263;14307
1424272;14272
1424280;14239
1424289;14200
1424297;14165
1424305;14112
1424313;14022
1424321;14011
1424329;13908
1424338;13892
1424349;13954
1424357;13885
1424365;13958
1424374;13857
1424382;13978
1424390;13925
1424398;13998
1424406;13838
1424414;13834
1424423;13622
1424431;13566
1424439;13445
1424447;13448
1424455;13429
1424464;13538
1424472;13608
1424480;13686
1424488;13752
1424496;13776
1424505;13769
1424513;13711
1424521;13727
1424529;13682
1424537;13671
1424546;13609
1424554;13592
1424562;14190
1424570;13619
1424578;10452
1424586;6166
1424596;4683
1424604;11608
1424612;15534
1424620;15371
1424631;14729
1424640;14556
1424648;14328
1424656;14074
1424664;13950
1424673;13768
1424681;13696
1424689;13551
1424697;13469
1424705;13379
1424713;13285
1424722;13156
1424730;12987
1424738;12875
1424746;12723
1424754;12579
1424763;12335
1424771;12174
1424779;11912
1424787;11763
1424795;11603
1424804;11653
1424812;11667
1424820;11830
1424828;11982
1424836;12353
1424845;12741
1424853;13280
1424861;13593
1424869;13984
1424877;14071
1424886;14282
1424894;14236
1424903;14383
1424913;14390
1424921;14409
1424930;14367
1424938;14287
1424946;14239
1424955;14232
1424963;14176
1424972;14119
1424980;14031
1424988;13973
1424996;13928
1425004;13936
1425012;13900
1425021;13941
1425029;13873
1425037;13912
1425045;13811
1425053;13840
1425062;13794
1425070;13834
1425078;13781
1425086;13877
1425094;13719
1425103;13683
1425111;13453
1425119;13553
1425127;13445
1425135;13573
1425144;13454
1425152;13627
1425160;13589
1425168;13840
1425176;13721
1425185;13886
1425196;13873
1425204;13938
1425212;13852
1425220;13822
1425229;13740
1425237;13708
1425245;14280
1425254;13777
1425262;10605
1425271;6223
1425279;4623
1425287;11183
1425295;15486
1425303;15471
1425311;14767
1425320;14602
1425328;14324
1425336;14176
1425344;13964
1425352;14011
1425361;13793
1425369;13852
1425377;13658
1425385;13717
1425393;13530
1425402;13590
1425410;13348
1425418;13350
1425426;13063
1425434;13056
1425443;12706
1425451;12622
1425459;12244
1425467;12162
1425478;11890
1425487;12000
1425495;11940
1425503;12068
1425511;12140
1425519;12526
1425528;12840
1425536;13401
1425544;13679
1425552;14121
1425560;14257
1425569;14458
1425578;14375
1425586;14536
1425594;14384
1425602;14495
1425610;14337
1425619;14397
1425627;14244
1425635;14346
1425643;14179
1425651;14294
1425660;14147
1425668;14267
1425676;14074
1425684;14200
1425692;14026
1425701;14186
1425709;13987
1425717;14126
1425725;13939
1425733;14051
1425742;13901
1425750;14040
1425758;13864
1425769;14023
1425777;13961
1425786;14024
1425794;13897
1425802;13997
1425810;13863
1425818;13944
1425827;13721
1425835;13747
1425843;13496
1425851;13563
1425859;13392
1425868;13578
1425876;13451
1425884;13640
1425892;13556
1425901;13798
1425910;13719
1425918;13908
1425926;13764
1425934;13879
1425942;13703
1425950;13819
1425959;13586
1425967;13670
1425975;13426
1425983;13897
1425991;13714
1426000;11489
1426008;7107
1426016;4854
1426024;9195
1426032;15277
1426041;15354
1426052;14703
1426060;14425
1426068;14317
1426076;13955
1426085;13998
1426093;13744
1426101;13802
1426109;13601
1426117;13693
1426126;13473
1426134;13544
1426142;13279
1426150;13312
1426158;13022
1426167;13040
1426175;12740
1426183;12711
1426191;12374
1426199;12275
1426207;11914
1426216;11853
1426224;11637
1426233;11801
1426241;11713
1426249;11970
1426258;12025
1426266;12499
1426274;12818
1426282;13340
1426290;13588
1426299;13975
1426307;14042
1426315;14281
1426323;14208
1426334;14426
1426343;14306
1426351;14423
1426359;14219
1426367;14357
1426375;14224
1426384;14356
1426392;14148
1426400;14279
1426408;14072
1426416;14147
1426425;13950
1426433;14061
1426441;13873
1426449;14030
1426457;13894
1426466;14009
1426474;13842
1426482;13972
1426490;13819
1426498;13971
1426506;13805
1426515;13874
1426523;13722
1426531;13809
1426539;13705
1426547;13781
1426556;13656
1426565;13738
1426573;13649
1426581;13717
1426589;13647
1426598;13762
1426606;13686
1426617;13733
1426625;13530
1426633;13619
1426642;13459
1426650;13580
1426658;13416
1426666;13567
1426674;13441
1426683;13625
1426691;13536
1426699;13701
1426707;13568
1426715;13700
1426724;13567
1426732;13671
1426740;13499
1426748;13508
1426756;13462
1426765;13981
1426773;12265
1426781;8511
1426789;5203
1426797;7249
1426806;14459
1426814;15492
1426822;14812
1426830;14397
1426838;14219
1426846;14049
1426855;13829
1426863;13815
1426871;13716
1426880;13669
1426888;13551
1426899;13587
1426907;13430
1426915;13479
1426923;13231
1426932;13243
1426941;12979
1426949;12936
1426957;12689
1426965;12651
1426973;12342
1426982;12275
1426990;11941
1426998;11907
1427006;11771
1427014;11931
1427023;11934
1427031;12195
1427039;12406
1427047;12870
1427055;13258
1427064;13737
1427072;14024
1427080;14312
1427088;14444
1427096;14575
1427105;14589
1427113;14628
1427121;14590
1427129;14589
1427137;14551
1427145;14531
1427154;14545
1427162;14519
1427170;14512
1427178;14456
1427190;14403
1427198;14560
1427206;14388
1427214;14455
1427222;14332
1427230;14415
1427240;14320
1427248;14389
1427256;14302
1427264;14365
1427272;14277
1427281;14332
1427289;14223
1427297;14248
1427305;14129
1427313;14150
1427322;14086
1427330;14091
1427338;14043
1427346;13972
1427354;13863
1427363;13670
1427371;13586
1427379;13541
1427387;13565
1427395;13540
1427404;13591
1427412;13621
1427420;13765
1427428;13776
1427436;13838
1427444;13764
1427453;13821
1427461;13718
1427472;13765
1427480;13850
1427489;13668
1427497;14126
1427505;13745
1427513;11297
1427521;7731
1427529;6365
1427538;11913
1427546;16474
1427555;15901
1427563;15148
1427571;14553
1427580;14321
1427588;14127
1427596;13922
1427604;13757
1427612;13637
1427621;13538
1427629;13446
1427637;13432
1427645;13294
1427653;13252
1427662;13133
1427670;13100
1427678;12919
1427686;12904
1427694;12670
1427703;12581
1427711;12281
1427719;12122
1427727;11779
1427735;11699
1427743;11544
1427755;11756
1427763;11976
1427771;12152
1427779;12559
1427788;12976
1427796;13406
1427804;13762
1427812;14039
1427820;14241
1427828;14336
1427837;14377
1427845;14364
1427853;14383
1427862;14334
1427870;14323
1427879;14224
1427887;14213
1427895;14072
1427903;14078
1427911;13969
1427920;13998
1427928;13890
1427936;13945
1427944;13847
1427952;13939
1427961;13846
1427969;13975
1427977;13839
1427985;13955
1427993;13848
1428002;13982
1428010;13850
1428018;13909
1428026;13698
1428037;13646
1428046;13581
1428054;13551
1428062;13466
1428070;13522
1428078;13564
1428087;13672
1428095;13745
1428103;13874
1428111;13875
1428119;13938
1428127;13877
1428136;13941
1428144;13852
1428152;13888
1428160;13688
1428168;13729
1428177;14244
1428185;13262
1428194;9671
1428202;6479
1428210;6464
1428219;14139
1428227;16044
1428235;15459
1428243;14641
1428251;14395
1428260;14077
1428268;13981
1428276;13678
1428284;13728
1428292;13476
1428301;13536
1428309;13317
1428320;13373
1428328;13293
1428336;13242
1428345;13026
1428353;12950
1428361;12704
1428369;12637
1428377;12355
1428386;12231
1428394;11908
1428402;11771
1428410;11552
1428418;11652
1428426;11615
1428435;11875
1428443;11993
1428451;12472
1428459;12815
1428467;13435
1428476;13752
1428484;14225
1428492;14310
1428500;14560
1428508;14472
1428518;14639
1428526;14473
1428534;14568
1428542;14374
1428550;14461
1428559;14241
1428567;14351
1428575;14108
1428583;14195
1428591;14010
1428600;14073
1428611;13924
1428619;14023
1428627;13885
1428635;13930
1428644;13771
1428652;13875
1428660;13743
1428668;13865
1428676;13771
1428685;13897
1428693;13794
1428701;13929
1428709;13816
1428717;13985
1428726;13868
1428734;14002
1428742;13775
1428750;13799
1428758;13474
1428766;13589
1428775;13422
1428783;13556
1428791;13381
1428799;13539
1428807;13426
1428816;13658
1428824;13552
1428832;13690
1428841;13514
1428849;13670
1428858;13497
1428866;13653
1428874;13472
1428882;13546
1428893;14071
1428902;12688
1428910;8757
1428918;5340
1428926;6502
1428934;14174
1428943;15474
1428951;15086
1428959;14451
1428967;14433
1428975;14052
1428984;13972
1428992;13689
1429000;13790
1429008;13584
1429016;13663
1429025;13449
1429033;13551
1429041;13322
1429049;13377
1429057;13143
1429065;13191
1429074;12928
1429082;12934
1429090;12590
1429098;12490
1429106;12104
1429115;12024
1429123;11726
1429131;11769
1429139;11660
1429147;11828
1429156;11818
1429165;12242
1429175;12786
1429183;13464
1429191;13725
1429200;14179
1429208;14238
1429217;14484
1429225;14413
1429233;14567
1429242;14399
1429250;14555
1429258;14349
1429266;14456
1429274;14253
1429283;14387
1429291;14218
1429299;14335
1429307;14158
1429315;14270
1429324;14054
1429332;14181
1429340;13976
1429348;14046
1429356;13859
1429364;13969
1429373;13839
1429381;13956
1429389;13821
1429397;13933
1429405;13795
1429414;13878
1429422;13773
1429430;13842
1429438;13724
1429446;13795
1429458;13697
1429466;13788
1429474;13476
1429482;13478
1429490;13292
1429499;13457
1429507;13322
1429515;13471
1429524;13351
1429532;13569
1429541;13524
1429549;13733
1429557;13613
1429565;13771
1429573;13606
1429582;13704
1429590;13558
1429598;13651
1429606;13463
1429614;13810
1429623;13859
1429631;11873
1429639;7627
1429647;4893
1429655;8144
1429663;14995
1429672;15468
1429680;14956
1429688;14453
1429696;14370
1429704;13996
1429713;13890
1429721;13731
1429729;13690
1429737;13574
1429748;13654
1429757;13457
1429765;13532
1429773;13277
1429781;13306
1429789;13074
1429798;13101
1429806;12854
1429814;12826
1429822;12499
1429830;12402
1429839;12036
1429847;11927
1429856;11674
1429864;11766
1429872;11731
1429881;11968
1429889;12084
1429897;12472
1429905;12791
1429913;13338
1429922;13643
1429930;13992
1429938;14053
1429946;14230
1429954;14262
1429962;14351
1429971;14345
1429979;14371
1429987;14329
1429995;14289
1430003;14251
1430012;14233
1430020;14199
1430031;14275
1430039;14150
1430047;14242
1430056;14062
1430064;14160
1430072;13988
1430080;14092
1430088;13962
1430097;14026
1430105;13922
1430113;14024
1430121;13889
1430129;13953
1430138;13878
1430146;13928
1430154;13822
1430162;13829
1430170;13726
1430180;13749
1430188;13686
1430196;13705
1430204;13652
1430212;13663
1430221;13574
1430229;13483
1430237;13377
1430245;13382
1430253;13404
1430262;13387
1430270;13383
1430278;13381
1430286;13457
1430294;13522
1430302;13644
1430314;13742
1430322;13645
1430330;13684
1430338;13566
1430346;13591
1430355;13407
1430363;13416
1430371;13770
1430379;13734
1430387;11267
1430396;7151
1430404;4869
1430412;9698
1430420;15316
1430428;15409
1430437;14771
1430445;14442
1430453;14267
1430461;14031
1430469;13928
1430478;13834
1430486;13800
1430494;13716
1430503;13678
1430511;13611
1430520;13551
1430528;13416
1430536;13389
1430544;13242
1430552;13155
1430561;12950
1430569;12900
1430577;12630
1430585;12492
1430596;12255
1430605;12081
1430613;12012
1430621;11880
1430629;11945
1430637;11985
1430646;12206
1430654;12545
1430662;13031
1430670;13484
1430678;13873
1430686;14206
1430695;14430
1430703;14549
1430711;14584
1430719;14560
1430727;14506
1430736;14530
1430744;14404
1430752;14415
1430760;14284
1430768;14272
1430777;14150
1430785;14175
1430793;14048
1430801;14117
1430810;13989
1430819;14046
1430827;13973
1430835;14058
1430843;13911
1430851;14017
1430860;13901
1430868;14025
1430879;14029
1430887;14050
1430895;14002
1430904;13971
1430912;13886
1430920;13832
1430928;13780
1430936;13788
1430945;13769
1430953;13814
1430961;13810
1430969;13868
1430977;13818
1430985;13803
1430994;13611
1431002;13579
1431010;13472
1431018;13531
1431026;13433
1431035;13489
1431043;13455
1431051;13613
1431059;13570
1431067;13739
1431076;13667
1431084;13777
1431092;13634
1431100;13735
1431108;13583
1431118;13651
1431126;13444
1431134;13705
1431142;13853
1431150;12256
1431161;7158
1431169;5643
1431178;11283
1431186;15847
1431194;15486
1431203;14805
1431211;14355
1431219;14274
1431227;13957
1431235;13908
1431244;13735
1431252;13759
1431260;13607
1431268;13635
1431276;13496
1431284;13554
1431293;13369
1431301;13374
1431309;13133
1431317;13113
1431325;12867
1431334;12872
1431342;12582
1431350;12523
1431358;12166
1431366;12104
1431375;11834
1431383;11961
1431391;11851
1431399;12079
1431407;12099
1431416;12500
1431424;12744
1431432;13307
1431441;13552
1431451;14175
1431460;14357
1431468;14551
1431476;14594
1431484;14750
1431493;14690
1431502;14781
1431510;14656
1431518;14718
1431526;14555
1431534;14615
1431543;14425
1431551;14516
1431559;14353
1431567;14444
1431575;14265
1431583;14344
1431592;14176
1431600;14298
1431608;14132
1431616;14256
1431624;14060
1431633;14180
1431641;14035
1431649;14199
1431657;14079
1431665;14197
1431674;13987
1431682;14021
1431690;13708
1431698;13740
1431706;13534
1431715;13624
1431723;13486
1431734;13746
1431742;13714
1431750;13829
1431759;13698
1431767;13789
1431775;13625
1431783;13714
1431791;13592
1431801;13685
1431809;13507
1431817;13593
1431825;13686
1431833;13844
1431842;11484
1431850;8016
1431858;6051
1431866;10426
1431874;16017
1431882;15883
1431891;14944
1431899;14446
1431907;14064
1431915;14025
1431923;13641
1431932;13702
1431940;13483
1431948;13570
1431956;13394
1431964;13488
1431973;13275
1431981;13370
1431989;13135
1431997;13194
1432005;12884
1432017;12840
1432025;12602
1432033;12498
1432041;12100
1432049;11957
1432058;11621
1432066;11660
1432074;11513
1432082;11712
1432090;11708
1432099;12124
1432107;12374
1432116;12993
1432124;13248
1432132;13778
1432141;13912
1432149;14301
1432157;14265
1432165;14527
1432173;14389
1432182;14545
1432190;14373
1432198;14494
1432206;14281
1432214;14363
1432222;14139
1432231;14207
1432239;13985
1432247;14031
1432255;13865
1432263;13982
1432272;13834
1432280;13951
1432288;13837
1432299;14029
1432307;13940
1432316;14105
1432324;13951
1432332;14080
1432340;13905
1432348;13959
1432357;13666
1432365;13697
1432373;13503
1432381;13600
1432389;13447
1432398;13604
1432406;13471
1432414;13653
1432422;13542
1432430;13718
1432440;13569
1432448;13683
1432456;13549
1432464;13683
1432472;13508
1432481;13558
1432489;13435
1432497;14221
1432505;12801
1432513;9209
1432521;5192
1432530;5812
1432538;13637
1432546;15695
1432554;15099
1432562;14600
1432571;14307
1432579;14146
1432590;13818
1432598;13918
1432606;13682
1432615;13739
1432623;13502
1432631;13600
1432639;13404
1432647;13454
1432656;13190
1432664;13239
1432672;12960
1432680;12955
1432688;12648
1432697;12623
1432705;12255
1432713;12130
1432721;11804
1432729;11833
1432738;11691
1432746;11838
1432754;11838
1432762;12136
1432770;12387
1432780;12945
1432788;13311
1432796;13782
1432804;14018
1432812;14260
1432820;14312
1432829;14416
1432837;14380
1432845;14429
1432853;14328
1432861;14309
1432873;14249
1432881;14403
1432889;14201
1432897;14260
1432905;14075
1432914;14161
1432922;13981
1432930;14074
1432938;13890
1432946;13996
1432955;13818
1432963;13939
1432971;13831
1432979;13922
1432987;13773
1432996;13873
1433004;13741
1433012;13832
1433020;13796
1433028;13874
1433037;13705
1433045;13644
1433053;13546
1433061;13559
1433069;13492
1433078;13531
1433087;13544
1433095;13637
1433103;13660
1433111;13712
1433119;13729
1433128;13768
1433136;13736
1433144;13711
1433155;13713
1433164;13831
1433172;13623
1433180;14388
1433188;13096
1433196;9542
1433204;5280
1433213;5483
1433221;13162
1433229;15629
1433237;15067
1433245;14607
1433254;14390
1433262;14274
1433270;14018
1433278;13978
1433286;13866
1433295;13876
1433303;13789
1433311;13735
1433319;13585
1433327;13507
1433336;13394
1433344;13309
1433352;13203
1433360;13058
1433368;12920
1433377;12711
1433385;12512
1433393;12241
1433401;12040
1433409;11814
1433418;11776
1433427;11768
1433437;11931
1433445;12245
1433453;12420
1433463;12921
1433471;13282
1433479;13747
1433487;13963
1433495;14275
1433503;14337
1433512;14478
1433520;14477
1433528;14512
1433536;14446
1433544;14421
1433553;14349
1433561;14334
1433569;14291
1433577;14282
1433585;14227
1433594;14166
1433602;14146
1433610;14071
1433618;14077
1433626;14030
1433635;14077
1433643;14017
1433651;14086
1433659;14018
1433667;14084
1433676;14007
1433684;14091
1433692;14010
1433700;14085
1433708;13955
1433720;13896
1433728;13900
1433736;13776
1433744;13807
1433752;13729
1433761;13712
1433769;13692
1433778;13747
1433786;13804
1433794;13858
1433802;13837
1433811;13824
1433819;13788
1433827;13735
1433835;13719
1433843;13629
1433852;13578
1433860;13889
1433868;13984
1433876;11544
1433884;7346
1433893;4567
1433901;9063
1433909;15253
1433917;15527
1433925;14814
1433934;14539
1433942;14325
1433950;14178
1433958;13947
1433966;13992
1433975;13796
1433983;13860
1433991;13665
1433999;13719
1434010;13636
1434019;13588
1434027;13516
1434035;13388
1434043;13221
1434051;13066
1434060;12856
1434068;12682
1434076;12420
1434084;12191
1434092;11939
1434102;11879
1434110;11817
1434118;11985
1434126;12067
1434134;12422
1434142;12706
1434151;13203
1434159;13507
1434167;13941
1434175;14103
1434183;14362
1434192;14353
1434200;14531
1434208;14443
1434216;14574
1434224;14390
1434233;14473
1434241;14271
1434249;14372
1434257;14228
1434265;14300
1434274;14102
1434282;14170
1434293;14121
1434301;14180
1434309;14058
1434318;14052
1434326;14032
1434334;14078
1434342;14016
1434350;14110
1434359;14059
1434367;14084
1434375;13979
1434383;14072
1434391;14022
1434399;14095
1434408;13916
1434417;13826
1434425;13618
1434433;13707
1434441;13575
1434450;13736
1434458;13632
1434466;13781
1434474;13706
1434482;13896
1434491;13728
1434499;13858
1434507;13729
1434515;13857
1434523;13678
1434532;13824
1434540;13605
1434548;13655
1434556;13727
1434564;14205
1434576;10866
1434584;7030
1434592;5454
1434600;11988
1434608;15945
1434617;15602
1434625;14800
1434633;14516
1434641;14247
1434649;14081
1434658;13789
1434666;13808
1434674;13618
1434682;13650
1434690;13464
1434698;13530
1434707;13301
1434715;13347
1434723;13121
1434731;13176
1434739;12931
1434749;12967
1434757;12643
1434765;12588
1434773;12201
1434781;12116
1434790;11810
1434798;11900
1434806;11749
1434814;11953
1434822;11923
1434831;12296
1434839;12499
1434847;13116
1434858;13644
1434866;14186
1434875;14327
1434883;14555
1434891;14536
1434899;14701
1434907;14562
1434916;14703
1434924;14521
1434932;14568
1434940;14369
1434948;14412
1434957;14215
1434965;14274
1434973;14059
1434981;14129
1434989;13919
1434998;14038
1435006;13862
1435014;13968
1435022;13793
1435030;13948
1435038;13759
1435047;13919
1435055;13757
1435063;13876
1435071;13723
1435080;13878
1435089;13732
1435097;13879
1435105;13727
1435113;13811
1435121;13521
1435130;13505
1435141;13401
1435149;13592
1435157;13450
1435165;13599
1435174;13526
1435182;13745
1435190;13701
1435198;13894
1435206;13714
1435215;13866
1435223;13747
1435231;13912
1435239;13735
1435247;13872
1435256;13647
1435264;13949
1435272;14036
1435280;12240
1435288;8253
1435297;5942
1435305;8972
1435313;15763
1435321;15801
1435329;15257
1435337;14475
1435346;14325
1435354;13924
1435362;13850
1435370;13620
1435378;13657
1435387;13439
1435396;13498
1435404;13339
1435412;13429
1435420;13209
1435440;13271
1435448;13342
1435456;12975
1435464;12902
1435473;12491
1435481;12329
1435489;11893
1435497;11847
1435505;11617
1435514;11762
1435522;11657
1435530;11889
1435538;11931
1435546;12424
1435555;12707
1435563;13307
1435571;13542
1435579;13988
1435587;14061
1435596;14301
1435604;14209
1435612;14340
1435620;14226
1435628;14308
1435636;14156
1435645;14259
1435653;14110
1435661;14166
1435669;14002
1435677;14070
1435686;13916
1435695;13978
1435703;13868
1435711;13938
1435721;13839
1435730;14041
1435739;13848
1435747;14014
1435755;13850
1435763;13998
1435772;13825
1435780;13948
1435788;13821
1435796;13976
1435804;13801
1435813;13905
1435821;13742
1435829;13835
1435837;13693
1435845;13847
1435854;13655
1435862;13657
1435870;13348
1435878;13401
1435886;13298
1435895;13465
1435903;13364
1435911;13462
1435919;13411
1435927;13554
1435935;13537
1435944;13630
1435952;13577
1435960;13629
1435968;13551
1435976;13619
1435985;13553
1435993;13537
1436004;13592
1436012;14223
1436020;12382
1436029;8541
1436037;5043
1436045;7040
1436053;14322
1436062;15503
1436071;14767
1436079;14361
1436087;14098
1436095;13979
1436103;13639
1436112;13652
1436120;13471
1436128;13538
1436136;13381
1436144;13421
1436153;13282
1436161;13316
1436169;13203
1436177;13227
1436185;13115
1436194;13100
1436202;12938
1436210;12862
1436218;12583
1436226;12272
1436234;12008
1436243;11820
1436251;11697
1436259;11713
1436267;11827
1436275;12007
1436287;12411
1436295;12983
1436303;13214
1436311;13705
1436319;13883
1436328;14204
1436336;14210
1436344;14400
1436352;14314
1436360;14422
1436370;14309
1436378;14361
1436386;14188
1436394;14203
1436402;14057
1436411;14099
1436419;14067
1436427;14049
1436435;13986
1436443;14019
1436452;13967
1436460;13982
1436468;13964
1436476;14004
1436484;14000
1436493;14048
1436501;14090
1436509;14052
1436517;14044
1436525;14071
1436534;14129
1436542;14092
1436550;14108
1436558;14042
1436569;14040
1436578;14214
1436586;13981
1436594;13962
1436602;13728
1436610;13719
1436618;13638
1436627;13766
1436635;13687
1436643;13750
1436651;13698
1436659;13818
1436668;13812
1436676;13827
1436684;13729
1436693;13773
1436701;13655
1436710;13646
1436718;13469
1436726;13346
1436734;13139
1436742;13674
1436751;13124
1436759;10199
1436767;6155
1436775;5004
1436783;11326
1436792;15442
1436800;15361
1436808;14717
1436816;14640
1436824;14430
1436833;14262
1436841;14099
1436849;14101
1436860;14081
1436868;13962
1436877;13884
1436885;13712
1436893;13711
1436901;13637
1436909;13543
1436918;13360
1436926;13286
1436934;13069
1436942;12922
1436950;12622
1436958;12371
1436967;12066
1436975;11913
1436983;11938
1436991;11926
1436999;11885
1437008;11859
1437017;12137
1437025;12517
1437033;12977
1437041;13319
1437050;13723
1437058;14038
1437066;14424
1437074;14512
1437082;14499
1437091;14356
1437099;14519
1437107;14508
1437115;14794
1437123;14815
1437132;14850
1437143;14762
1437151;14517
1437159;14305
1437167;14120
1437176;14036
1437184;14017
1437192;14038
1437200;14120
1437208;14128
1437217;14220
1437225;14161
1437233;14149
1437241;14028
1437249;14031
1437257;13890
1437266;13887
1437274;13713
1437282;13641
1437290;13461
1437298;13398
1437307;13063
1437315;12960
1437323;12776
1437331;12869
1437339;12717
1437349;12861
1437357;12708
1437365;12864
1437373;13081
1437381;13217
1437390;13185
1437398;13503
1437406;13342
1437414;13385
1437425;13352
1437434;13299
1437442;13255
1437450;13744
1437458;13851
1437466;11398
1437475;7118
1437483;4616
1437491;9446
1437499;15524
1437507;15538
1437516;14943
1437524;14499
1437532;14406
1437540;14054
1437548;13905
1437556;13727
1437565;13681
1437573;13483
1437581;13440
1437589;13225
1437597;13220
1437606;13087
1437614;13089
1437622;12890
1437630;12990
1437638;12779
1437647;12843
1437655;12614
1437664;12501
1437672;12058
1437680;12059
1437689;11768
1437697;11854
1437708;11925
1437716;12079
1437724;12234
1437733;12577
1437741;12936
1437749;13492
1437757;13852
1437765;14195
1437774;14328
1437782;14499
1437790;14470
1437798;14357
1437806;14373
1437815;14521
1437823;14358
1437831;14364
1437839;14134
1437847;14062
1437855;14106
1437864;14290
1437872;14166
1437880;14262
1437888;14118
1437896;14220
1437905;14102
1437913;14258
1437921;14112
1437929;14391
1437937;14403
1437946;14559
1437954;14415
1437962;14564
1437970;14467
1437979;14672
1437990;14605
1437998;14648
1438006;14429
1438014;14306
1438022;13926
1438032;13854
1438040;13682
1438048;13894
1438056;13726
1438064;13800
1438073;13707
1438081;13848
1438089;13795
1438097;13961
1438105;13904
1438114;14056
1438122;13961
1438130;14117
1438138;13965
1438146;14125
1438154;14125
1438163;15206
1438171;14321
1438179;10973
1438187;6884
1438195;6419
1438204;13664
1438212;16396
1438220;15587
1438228;15074
1438236;14636
1438245;14493
1438253;13871
1438261;13859
1438269;13618
1438280;13581
1438289;13377
1438297;13354
1438305;13060
1438313;13094
1438321;12901
1438330;12987
1438338;12762
1438347;12742
1438355;12680
1438363;12856
1438372;12564
1438380;12903
1438388;12977
1438396;12954
1438404;12450
1438413;12341
1438421;11912
1438429;11971
1438437;11801
1438445;12045
1438454;12258
1438462;12866
1438470;13144
1438478;13591
1438486;13598
1438494;13830
1438503;13730
1438511;13866
1438519;13710
1438527;13783
1438535;13574
1438544;13654
1438552;13561
1438563;13714
1438571;13645
1438579;13807
1438588;13635
1438596;13722
1438604;13561
1438612;13714
1438620;13572
1438629;13664
1438637;13470
1438646;13624
1438654;13464
1438662;13512
1438671;13269
1438679;13362
1438687;13208
1438695;13481
1438703;13366
1438712;13380
1438720;13108
1438728;13206
1438736;13065
1438744;13275
1438753;13216
1438761;13418
1438769;13379
1438777;13559
1438785;13543
1438793;13711
1438802;13554
1438810;13689
1438818;13594
1438826;13719
1438834;13601
1438846;13781
1438854;13701
1438862;14354
1438870;13231
1438878;10246
1438887;7194
1438895;7344
1438903;14059
1438911;16435
1438919;15621
1438928;14955
1438936;14230
1438944;14236
1438952;13946
1438960;14026
1438970;13882
1438978;13966
1438986;13804
1438994;13896
1439002;13734
1439011;13822
1439019;13674
1439027;13742
1439035;13566
1439043;13562
1439052;13341
1439060;13344
1439068;13042
1439076;12920
1439084;12589
1439092;12479
1439101;12296
1439109;12396
1439117;12424
1439128;12812
1439137;12997
1439145;13437
1439153;13651
1439161;14132
1439169;14322
1439177;14725
1439186;14765
1439194;14985
1439202;14891
1439210;15076
1439218;14977
1439227;15093
1439235;14957
1439243;15021
1439251;14896
1439259;15010
1439268;14787
1439276;14909
1439284;14709
1439293;14732
1439301;14579
1439310;14692
1439318;14598
1439326;14666
1439334;14484
1439342;14515
1439351;14370
1439359;14303
1439367;14136
1439375;14121
1439383;14050
1439391;14128
1439400;14169
1439411;14531
1439419;14431
1439427;14562
1439436;14334
1439444;14365
1439452;14150
1439460;14205
1439468;13939
1439476;13880
1439485;13496
1439493;14035
1439501;13080
1439509;10096
1439517;6226
1439526;5242
1439534;11891
1439542;15169
1439550;14594
1439558;13948
1439567;13394
1439575;13208
1439583;12755
1439591;12693
1439599;12649
1439608;12852
1439616;12844
1439625;12931
1439633;12897
1439641;13042
1439650;13069
1439658;13087
1439666;13013
1439674;12997
1439682;12976
1439690;12817
1439702;12565
1439710;12569
1439718;12178
1439726;12083
1439735;11888
1439743;11940
1439751;11809
1439759;11986
1439767;12119
1439775;12541
1439784;12902
1439792;13352
1439800;13573
1439808;13811
1439816;13797
1439825;13807
1439833;13695
1439841;13614
1439849;13447
1439857;13366
1439866;13494
1439874;13620
1439882;13474
1439890;13433
1439898;13309
1439907;13122
1439915;13132
1439923;13181
1439931;13286
1439939;13482
1439949;13739
1439957;13911
1439965;14117
1439973;14237
1440013;16789
1440021;16742
1440029;16867
1440038;17090
1440046;17216
1440054;16930
1440062;16862
1440070;16194
1440079;15624
1440087;14953
1440095;14694
1440103;14524
1440111;14423
1440120;13899
1440128;13438
1440136;13738
1440144;13098
1440152;9750
1440161;5387
1440169;4141
1440177;10984
1440185;14576
1440193;14503
1440201;13879
1440210;13739
1440218;13370
1440226;13246
1440234;13057
1440242;13121
1440252;12944
1440260;13008
1440268;12891
1440276;13018
1440284;12984
1440295;13197
1440304;13318
1440312;13597
1440320;13573
1440328;13696
1440337;13563
1440345;13426
1440353;13079
1440361;12914
1440369;12595
1440378;12622
1440386;12406
1440394;12437
1440402;12284
1440410;12564
1440419;12740
1440427;13258
1440435;13455
1440443;13860
1440451;13899
1440460;14096
1440468;14014
1440476;14093
1440484;13912
1440492;13933
1440500;13780
1440509;13775
1440517;13559
1440525;13620
1440533;13506
1440541;13591
1440550;13549
1440558;13999
1440567;14548
1440577;14572
1440585;14092
1440594;13649
1440602;13026
1440610;13085
1440619;13035
1440627;13132
1440636;12988
1440644;12987
1440652;12777
1440660;12744
1440668;12516
1440677;12616
1440685;12486
1440693;12642
1440701;12633
1440709;12866
1440718;12800
1440726;12924
1440734;12873
1440742;13002
1440750;12971
1440759;13085
1440767;12965
1440775;12976
1440783;13107
1440791;13453
