Tempo (ms);Valor
1320732;14797
1320741;14565
1320749;14541
1320757;14241
1320765;14291
1320773;14006
1320783;14067
1320791;13777
1320799;13905
1320807;14273
1320815;13107
1320824;9337
1320832;5882
1320840;6807
1320848;14275
1320856;15565
1320865;15099
1320873;14374
1320881;14271
1320889;13888
1320897;13769
1320905;13572
1320914;13563
1320922;13402
1320930;13373
1320938;13281
1320946;13259
1320955;13127
1320963;13073
1320971;12982
1320979;12857
1320987;12717
1320996;12562
1321004;12398
1321015;12249
1321023;11957
1321031;11966
1321040;11787
1321048;11982
1321056;11966
1321064;12247
1321072;12365
1321081;12821
1321089;13073
1321098;13549
1321106;13759
1321114;14095
1321123;14130
1321131;14295
1321139;14260
1321147;14336
1321155;14289
1321164;14335
1321172;14271
1321180;14280
1321188;14184
1321196;14095
1321204;14037
1321213;13998
1321221;14000
1321229;13937
1321237;13916
1321245;13882
1321254;13909
1321262;13861
1321270;13914
1321278;13869
1321286;13970
1321298;14084
1321306;14040
1321314;14040
1321322;13802
1321330;13738
1321339;13527
1321347;13590
1321355;13549
1321363;13650
1321371;13608
1321380;13688
1321388;13707
1321396;13881
1321405;13907
1321413;13951
1321422;13904
1321430;13887
1321438;13870
1321446;13795
1321454;13709
1321463;14050
1321471;13985
1321479;11599
1321487;7645
1321495;5371
1321503;10423
1321512;15556
1321520;15587
1321528;14801
1321536;14520
1321544;14216
1321553;14066
1321561;13795
1321569;13814
1321609;15049
1321617;14883
1321625;14261
1321634;14094
1321642;13590
1321650;13469
1321658;12956
1321666;12824
1321674;12339
1321683;12220
1321691;11811
1321700;11940
1321708;11730
1321716;11968
1321725;11928
1321733;12338
1321741;12449
1321749;12975
1321757;13118
1321766;13576
1321774;13631
1321782;13918
1321790;13829
1321798;13989
1321807;13842
1321815;13971
1321823;13811
1321831;13888
1321839;13730
1321848;13788
1321856;13641
1321864;13690
1321872;13571
1321880;13648
1321892;13585
1321900;13800
1321908;13606
1321916;13783
1321924;13585
1321933;13791
1321941;13627
1321949;13802
1321957;13590
1321965;13777
1321974;13606
1321982;13727
1321990;13420
1321998;13493
1322006;13325
1322014;13475
1322024;13317
1322032;13512
1322040;13464
1322048;13709
1322056;13698
1322065;13872
1322073;13790
1322081;13917
1322089;13845
1322097;13928
1322106;13794
1322114;13810
1322122;14330
1322130;13694
1322138;10616
1322147;6867
1322155;6005
1322163;13011
1322174;15966
1322182;15571
1322191;14784
1322199;14740
1322207;14314
1322215;14291
1322223;14020
1322232;14046
1322240;13777
1322248;13800
1322256;13558
1322264;13591
1322273;13389
1322281;13400
1322289;13206
1322297;13229
1322305;13013
1322313;12914
1322322;12647
1322330;12522
1322338;12234
1322346;12117
1322355;12005
1322364;12079
1322372;12121
1322380;12279
1322388;12487
1322396;12818
1322405;13210
1322413;13596
1322421;13955
1322429;14178
1322437;14351
1322446;14401
1322454;14470
1322465;14580
1322473;14483
1322481;14559
1322490;14330
1322498;14363
1322506;14184
1322514;14224
1322522;14049
1322531;14054
1322539;13931
1322547;13955
1322555;13880
1322563;13956
1322572;13889
1322580;13934
1322588;13939
1322596;14004
1322604;13985
1322612;13981
1322621;13944
1322629;13779
1322637;13691
1322645;13601
1322653;13607
1322662;13543
1322670;13649
1322679;13683
1322687;13837
1322695;13870
1322704;13951
1322712;13859
1322720;13951
1322728;13883
1322736;13977
1322748;14021
1322756;13914
1322764;14078
1322772;14337
1322780;12583
1322789;8821
1322797;6167
1322805;8940
1322813;15825
1322821;16005
1322830;15273
1322838;14601
1322846;14329
1322854;14090
1322862;13791
1322871;13661
1322879;13520
1322887;13504
1322895;13380
1322903;13349
1322911;13206
1322920;13208
1322928;13029
1322936;12970
1322944;12738
1322952;12711
1322961;12483
1322969;12386
1322977;12040
1322985;11969
1322993;11721
1323003;11792
1323011;11659
1323019;11860
1323029;12102
1323037;12397
1323046;12765
1323055;13156
1323063;13486
1323071;13743
1323079;13908
1323088;14055
1323096;14113
1323104;14185
1323112;14133
1323120;14153
1323129;14022
1323137;14007
1323145;13868
1323153;13925
1323161;13795
1323170;13853
1323178;13704
1323186;13789
1323194;13671
1323202;13783
1323210;13650
1323219;13777
1323227;13649
1323235;13804
1323243;13643
1323251;13799
1323260;13633
1323268;13802
1323276;13638
1323284;13755
1323292;13429
1323301;13424
1323312;13341
1323320;13497
1323328;13517
1323336;13556
1323345;13574
1323353;13708
1323361;13786
1323370;13895
1323378;13765
1323387;13803
1323395;13678
1323403;13739
1323411;13573
1323419;13614
1323428;13871
1323436;13902
1323444;11324
1323452;7352
1323460;4851
1323469;9934
1323477;15261
1323485;15468
1323493;14651
1323501;14420
1323510;14081
1323518;14013
1323526;13715
1323534;13852
1323542;13635
1323550;13758
1323559;13489
1323567;13598
1323575;13335
1323583;13455
1323591;13233
1323603;13325
1323611;13173
1323619;13065
1323627;12700
1323635;12576
1323644;12200
1323652;12103
1323660;11848
1323668;11962
1323676;11895
1323685;12124
1323693;12195
1323702;12639
1323710;12900
1323718;13462
1323727;13663
1323735;14056
1323743;14046
1323751;14298
1323759;14202
1323768;14404
1323776;14210
1323784;14377
1323792;14146
1323800;14237
1323809;14005
1323817;14168
1323825;13926
1323833;14074
1323841;13907
1323849;14078
1323858;13887
1323866;14011
1323874;13841
1323885;14054
1323894;13940
1323902;14102
1323910;13952
1323918;14120
1323926;13979
1323934;14101
1323943;13900
1323951;13875
1323959;13581
1323967;13788
1323975;13642
1323984;13848
1323992;13660
1324000;13857
1324008;13780
1324017;14121
1324026;14010
1324034;14188
1324042;13990
1324050;14150
1324058;13945
1324067;14069
1324075;13826
1324083;14109
1324091;14284
1324099;12652
1324108;8480
1324116;5413
1324124;7810
1324132;15071
1324140;15699
1324148;15240
1324157;14572
1324168;14527
1324176;14196
1324184;14231
1324193;13951
1324201;14014
1324209;13742
1324217;13813
1324225;13559
1324233;13612
1324242;13289
1324250;13297
1324258;12985
1324266;13030
1324274;12690
1324283;12685
1324291;12306
1324299;12229
1324307;11882
1324315;11931
1324324;11752
1324332;11946
1324341;11876
1324349;12225
1324357;12369
1324366;12856
1324374;13145
1324382;13687
1324390;13846
1324398;14197
1324407;14228
1324415;14421
1324423;14349
1324431;14476
1324439;14356
1324451;14502
1324459;14356
1324467;14432
1324475;14185
1324483;14296
1324492;14047
1324500;14174
1324508;13961
1324516;14097
1324524;13895
1324532;14006
1324541;13818
1324549;13956
1324557;13748
1324565;13919
1324573;13737
1324582;13875
1324590;13699
1324598;13827
1324606;13689
1324614;13732
1324623;13516
1324631;13445
1324639;13271
1324647;13384
1324655;13323
1324665;13409
1324673;13303
1324681;13478
1324689;13489
1324697;13667
1324706;13593
1324714;13654
1324722;13621
1324733;13794
1324741;13625
1324750;13678
1324758;13435
1324766;14254
1324774;13039
1324782;9756
1324791;5800
1324799;6052
1324807;13274
1324815;15722
1324823;15132
1324831;14650
1324840;14310
1324848;14231
1324856;13936
1324864;13983
1324872;13824
1324881;13898
1324889;13755
1324897;13774
1324905;13660
1324913;13664
1324922;13524
1324930;13539
1324938;13376
1324946;13257
1324954;13063
1324963;12886
1324971;12613
1324979;12379
1324988;12182
1324996;12075
1325005;12084
1325013;12161
1325023;12303
1325031;12669
1325040;12820
1325049;13324
1325057;13553
1325065;13979
1325073;14086
1325081;14385
1325090;14390
1325098;14528
1325106;14471
1325114;14547
1325122;14412
1325130;14474
1325139;14356
1325147;14346
1325155;14246
1325163;14255
1325171;14183
1325180;14169
1325188;14045
1325196;13982
1325204;13932
1325212;13885
1325221;13902
1325229;13891
1325237;13889
1325245;13827
1325253;13857
1325262;13789
1325270;13871
1325278;13799
1325286;13828
1325294;13729
1325306;13806
1325314;13903
1325322;13695
1325330;13624
1325338;13476
1325347;13560
1325355;13489
1325364;13595
1325372;13561
1325380;13691
1325389;13754
1325397;13830
1325405;13825
1325413;13846
1325421;13809
1325430;13807
1325438;13812
1325446;13742
1325454;13699
1325462;14192
1325470;13766
1325479;10923
1325487;7111
1325495;5705
1325503;11931
1325511;15776
1325520;15514
1325528;14689
1325536;14443
1325544;14174
1325552;14064
1325561;13803
1325569;13877
1325577;13691
1325588;13698
1325596;13728
1325605;13577
1325613;13521
1325621;13398
1325629;13274
1325637;13159
1325646;13026
1325654;12843
1325662;12650
1325670;12435
1325679;12154
1325688;11964
1325696;11815
1325704;11858
1325712;11905
1325720;12119
1325729;12247
1325737;12624
1325745;12901
1325753;13368
1325761;13609
1325769;14009
1325778;14116
1325786;14356
1325794;14317
1325802;14494
1325810;14355
1325819;14507
1325827;14380
1325835;14504
1325843;14313
1325851;14371
1325860;14163
1325871;14249
1325879;14272
1325887;14230
1325895;14158
1325904;14161
1325912;14092
1325920;14113
1325928;14054
1325936;14089
1325945;14010
1325953;14079
1325961;13961
1325969;14008
1325977;13868
1325986;13955
1325994;13825
1326003;13965
1326011;13807
1326019;13910
1326028;13680
1326036;13724
1326044;13441
1326052;13555
1326060;13425
1326068;13552
1326077;13398
1326085;13584
1326093;13484
1326101;13743
1326109;13630
1326118;13769
1326126;13601
1326134;13774
1326142;13562
1326153;13671
1326162;13596
1326170;13829
1326178;14062
1326186;12304
1326194;8345
1326203;5750
1326211;8655
1326219;15391
1326227;15635
1326235;15075
1326244;14326
1326252;14220
1326260;13809
1326268;13712
1326276;13423
1326285;13521
1326293;13297
1326301;13358
1326309;13123
1326317;13233
1326326;12994
1326335;13114
1326343;12881
1326351;12934
1326359;12631
1326367;12661
1326376;12245
1326384;12197
1326392;11787
1326400;11810
1326408;11557
1326417;11796
1326425;11709
1326433;12009
1326444;12233
1326452;12755
1326461;12986
1326469;13497
1326477;13665
1326485;14059
1326493;14043
1326502;14307
1326510;14200
1326518;14396
1326526;14253
1326534;14391
1326543;14182
1326551;14330
1326559;14121
1326567;14238
1326575;13965
1326584;14072
1326592;13856
1326600;14016
1326608;13804
1326616;13964
1326625;13750
1326633;13908
1326641;13703
1326649;13878
1326658;13693
1326666;13883
1326675;13715
1326683;13895
1326691;13723
1326699;13875
1326707;13675
1326716;13804
1326727;13718
1326735;13916
1326743;13675
1326751;13640
1326760;13351
1326768;13470
1326776;13293
1326784;13451
1326792;13255
1326801;13454
1326809;13351
1326817;13620
1326825;13496
1326833;13693
1326842;13509
1326850;13659
1326858;13446
1326866;13560
1326874;13292
1326883;13780
1326891;13594
1326899;11452
1326907;7272
1326915;5216
1326924;9485
1326932;15357
1326940;15355
1326948;14873
1326956;14304
1326964;14247
1326974;13839
1326982;13815
1326990;13617
1326998;13689
1327009;13545
1327017;13704
1327026;13433
1327034;13498
1327042;13211
1327050;13303
1327059;13004
1327067;13078
1327075;12727
1327083;12697
1327091;12308
1327100;12278
1327108;11897
1327116;11937
1327124;11760
1327132;11990
1327141;11875
1327149;12227
1327157;12356
1327165;12896
1327173;13176
1327182;13685
1327190;13878
1327198;14290
1327206;14347
1327214;14579
1327223;14460
1327231;14567
1327239;14425
1327247;14511
1327255;14394
1327263;14450
1327272;14280
1327280;14303
1327291;14189
1327299;14356
1327308;14055
1327316;14150
1327324;13911
1327332;14045
1327341;13890
1327350;14084
1327358;13924
1327366;14078
1327374;13925
1327382;14056
1327390;13862
1327399;14010
1327407;13850
1327415;13992
1327423;13868
1327431;13966
1327440;13757
1327448;13716
1327456;13451
1327464;13533
1327472;13412
1327481;13538
1327489;13457
1327497;13567
1327505;13586
1327513;13741
1327522;13747
1327530;13796
1327538;13741
1327546;13746
1327554;13693
1327562;13675
1327574;13558
1327582;14144
1327590;13887
1327598;11622
1327607;7457
1327615;5515
1327623;10222
1327631;15700
1327639;15509
1327647;14929
1327657;14374
1327665;14275
1327673;13880
1327681;13859
1327689;13656
1327698;13741
1327706;13593
1327714;13635
1327722;13474
1327730;13469
1327739;13322
1327747;13294
1327755;13137
1327763;13074
1327771;12890
1327780;12740
1327788;12489
1327796;12236
1327804;11971
1327812;11793
1327821;11751
1327829;11759
1327837;11882
1327845;11968
1327853;12275
1327865;12911
1327873;13215
1327881;13702
1327889;13876
1327897;14195
1327906;14218
1327914;14348
1327922;14293
1327930;14395
1327938;14302
1327946;14346
1327955;14233
1327963;14237
1327971;14104
1327980;14114
1327988;14012
1327997;13987
1328005;13879
1328013;13920
1328021;13882
1328029;13835
1328038;13833
1328046;13812
1328054;13846
1328062;13869
1328070;13954
1328079;13923
1328087;14022
1328095;13999
1328103;14066
1328111;13941
1328120;13916
1328128;13743
1328136;13843
1328147;13866
1328155;13851
1328164;13987
1328172;14014
1328180;14203
1328188;14180
1328196;14267
1328205;14195
1328213;14194
1328221;14141
1328229;14132
1328237;14091
1328246;14034
1328254;14309
1328262;14366
1328270;12257
1328278;8426
1328286;6108
1328295;10576
1328304;16428
1328312;16194
1328320;15533
1328328;14835
1328337;14694
1328345;14316
1328353;14191
1328361;13970
1328369;14044
1328378;13841
1328386;13860
1328394;13620
1328402;13707
1328410;13487
1328419;13561
1328430;13446
1328438;13359
1328446;13183
1328454;12940
1328463;12680
1328471;12404
1328479;12161
1328487;12095
1328495;12051
1328504;12112
1328512;12183
1328520;12413
1328528;12599
1328536;13045
1328545;13338
1328553;13799
1328561;14044
1328569;14355
1328577;14374
1328585;14571
1328594;14486
1328602;14651
1328610;14476
1328619;14575
1328627;14359
1328636;14410
1328644;14189
1328652;14297
1328660;14075
1328668;14170
1328677;13971
1328685;14099
1328693;13852
1328701;13988
1328712;13963
1328721;14074
1328729;14034
1328737;14100
1328745;14035
1328753;14089
1328762;13863
1328770;13850
1328778;13657
1328786;13694
1328794;13527
1328803;13637
1328811;13514
1328819;13720
1328827;13666
1328835;13772
1328844;13560
1328852;13610
1328860;13382
1328868;13460
1328876;13196
1328884;13296
1328893;13068
1328901;13889
1328909;12656
1328917;9518
1328925;6169
1328934;6379
1328942;13738
1328951;16044
1328959;15220
1328967;14729
1328976;14096
1328984;14056
1328994;13591
1329003;13530
1329011;13419
1329020;13618
1329028;13441
1329036;13428
1329044;13181
1329052;13238
1329061;12990
1329069;13056
1329077;12737
1329085;12691
1329093;12294
1329102;12170
1329110;11721
1329118;11597
1329126;11274
1329134;11466
1329143;11283
1329151;11587
1329159;11542
1329167;11937
1329175;12054
1329183;12681
1329192;12921
1329200;13478
1329208;13431
1329216;13833
1329224;13877
1329233;14233
1329241;14153
1329249;14426
1329257;14272
1329265;14452
1329275;14152
1329285;14077
1329293;14060
1329301;14183
1329310;13880
1329319;13947
1329327;13627
1329335;13667
1329343;13432
1329351;13574
1329360;13361
1329368;13612
1329376;13494
1329384;13697
1329392;13476
1329401;13625
1329409;13391
1329417;13388
1329425;13094
1329433;13340
1329442;13122
1329450;13354
1329458;13184
1329466;13437
1329474;13313
1329482;13723
1329491;13609
1329499;13824
1329507;13661
1329515;13825
1329523;13561
1329532;13702
1329540;13508
1329548;13734
1329556;14161
1329567;11707
1329576;6951
1329584;4372
1329592;8750
1329600;15277
1329608;15515
1329617;15171
1329625;14638
1329634;14621
1329642;14151
1329650;14305
1329659;14044
1329667;14269
1329675;13991
1329683;14071
1329691;13763
1329700;13846
1329708;13524
1329716;13656
1329724;13405
1329732;13552
1329741;13175
1329749;13173
1329757;12786
1329765;12715
1329773;12302
1329782;12345
1329790;12171
1329798;12426
1329806;12372
1329814;12652
1329822;12732
1329831;13264
1329839;13537
1329850;14234
1329858;14413
1329866;14793
1329875;14637
1329883;14834
1329891;14592
1329899;14702
1329907;14395
1329916;14464
1329924;14284
1329932;14491
1329940;14224
1329948;14427
1329958;14246
1329966;14393
1329974;14211
1329982;14448
1329990;14274
1329999;14414
1330007;14257
1330015;14305
1330023;14054
1330031;14231
1330040;14096
1330048;14215
1330056;14021
1330064;14010
1330072;13836
1330081;14071
1330089;14123
1330097;14371
1330105;14444
1330113;14634
1330121;14704
1330133;14911
1330141;14651
1330149;14642
1330157;14314
1330166;14359
1330174;13955
1330182;13929
1330190;13575
1330198;14230
1330206;13603
1330215;10829
1330223;6245
1330231;4615
1330239;10550
1330247;15338
1330256;14979
1330264;14415
1330272;14000
1330281;13972
1330289;13745
1330298;13910
1330306;13777
1330314;13718
1330322;13496
1330330;13395
1330339;13092
1330347;12942
1330355;12855
1330363;13101
1330371;13393
1330380;13479
1330388;13150
1330396;12901
1330404;12595
1330415;12309
1330424;11940
1330432;11939
1330440;11702
1330448;11880
1330456;11796
1330465;12165
1330473;12325
1330481;12830
1330489;13075
1330497;13525
1330505;13618
1330514;13928
1330522;13928
1330530;14085
1330538;14007
1330546;14097
1330555;13991
1330563;14022
1330571;13895
1330579;13874
1330587;13745
1330596;13710
1330605;13628
1330613;13619
1330621;13570
1330629;13518
1330638;13485
1330646;13493
1330654;13404
1330662;12912
1330670;12067
1330679;11735
1330687;12023
1330695;12149
1330706;12163
1330714;12539
1330723;12690
1330731;13043
1330739;13117
1330747;13403
1330755;13409
1330764;13554
1330772;13557
1330780;13705
1330788;13676
1330796;13777
1330804;13757
1330813;13775
1330821;13673
1330829;13640
1330837;13604
1330845;14250
1330854;13040
1330862;9451
1330870;5610
1330878;6297
1330886;14065
1330895;15666
1330903;15132
1330911;14562
1330919;14514
1330927;14221
1330937;14092
1330945;13895
1330953;13882
1330961;13726
1330969;13805
1330978;13711
1330989;13764
1330997;13807
1331005;13619
1331013;13546
1331022;13361
1331030;13248
1331038;13033
1331046;12877
1331054;12635
1331063;12437
1331071;12302
1331079;12292
1331087;12338
1331095;12415
1331103;12616
1331112;12835
1331120;13221
1331128;13567
1331136;14019
1331144;14235
1331153;14540
1331161;14654
1331169;14813
1331177;14766
1331185;14863
1331194;14738
1331202;14853
1331210;14679
1331218;14753
1331226;14571
1331235;14677
1331244;14489
1331252;14607
1331260;14450
1331270;14592
1331279;14699
1331287;14661
1331296;14670
1331304;14660
1331312;14662
1331321;14673
1331329;14585
1331337;14600
1331345;14475
1331353;14368
1331362;14198
1331370;14234
1331378;14082
1331386;14159
1331394;14123
1331402;14300
1331411;14280
1331419;14402
1331427;14281
1331435;14375
1331443;14227
1331452;14286
1331460;14120
1331468;14221
1331476;13995
1331484;14694
1331493;13832
1331501;10967
1331509;7113
1331517;6218
1331525;13294
1331534;16608
1331542;15804
1331553;15094
1331561;14838
1331569;14716
1331578;14430
1331586;14326
1331594;14153
1331602;14108
1331610;13900
1331620;13888
1331628;13727
1331636;13739
1331644;13513
1331652;13468
1331661;13179
1331669;13134
1331677;12838
1331685;12777
1331693;12397
1331702;12278
1331710;11951
1331718;12022
1331726;11877
1331734;12115
1331742;12036
1331751;12384
1331759;12522
1331767;13074
1331775;13287
1331783;13802
1331792;13922
1331800;14290
1331808;14110
1331816;14204
1331824;14022
1331836;14231
1331844;14142
1331852;14130
1331860;13979
1331868;14018
1331877;13871
1331885;13915
1331893;13720
1331901;13812
1331910;13682
1331919;13773
1331927;13611
1331935;13754
1331943;13592
1331951;13728
1331960;13457
1331968;13533
1331976;13346
1331984;13515
1331992;13402
1332001;13668
1332009;13622
1332017;13942
1332025;13893
1332033;14112
1332041;13955
1332050;14193
1332058;14023
1332066;14220
1332074;13996
1332082;14113
1332091;13832
1332099;14411
1332107;13973
1332115;11654
1332126;6666
1332135;6606
1332143;14062
1332151;16409
1332159;15663
1332167;15129
1332176;14566
1332184;14461
1332192;14019
1332200;13970
1332208;13690
1332217;13740
1332225;13473
1332234;13591
1332242;13435
1332250;13595
1332259;13405
1332267;13538
1332275;13287
1332283;13321
1332291;12982
1332300;12947
1332308;12504
1332316;12428
1332324;12069
1332332;12151
1332340;12034
1332349;12286
1332357;12221
1332365;12590
1332373;12778
1332381;13367
1332390;13626
1332398;14141
1332409;14439
1332417;14794
1332425;14671
1332434;14819
1332442;14639
1332450;14746
1332458;14537
1332466;14606
1332475;14376
1332483;14453
1332491;14185
1332499;14206
1332507;13946
1332516;14064
1332524;13892
1332532;14067
1332540;13919
1332548;14060
1332558;13871
1332566;14009
1332574;13764
1332582;13829
1332590;13581
1332599;13725
1332607;13575
1332615;13772
1332623;13664
1332631;13858
1332639;13826
1332648;14056
1332656;13927
1332664;14006
1332672;13818
1332680;13896
1332692;13700
1332700;13839
1332708;13565
1332716;14295
1332724;12965
1332733;9674
1332741;5670
1332749;5748
1332757;13266
1332765;15678
1332774;15032
1332782;14599
1332790;14194
1332798;14184
1332806;13790
1332815;13836
1332823;13583
1332831;13663
1332839;13395
1332847;13457
1332856;13179
1332864;13240
1332872;12965
1332880;12931
1332889;12641
1332898;12641
1332906;12366
1332914;12302
1332922;11948
1332930;11849
1332938;11574
1332947;11590
1332955;11510
1332963;11717
1332974;11887
1332983;12378
1332991;12570
1332999;13093
1333007;13303
1333015;13769
1333023;13816
1333032;14107
1333040;14019
1333048;14223
1333056;14055
1333064;14197
1333073;14016
1333081;14161
1333089;13963
1333097;14060
1333105;13887
1333114;13966
1333122;13722
1333130;13850
1333138;13685
1333146;13770
1333155;13698
1333163;13800
1333171;13669
1333179;13742
1333187;13638
1333196;13596
1333205;13406
1333213;13430
1333221;13381
1333229;13469
1333238;13465
1333246;13556
1333257;13566
1333265;13871
1333273;13685
1333282;13822
1333290;13645
1333298;13794
1333306;13584
1333314;13675
1333322;13459
1333331;13585
1333339;14109
1333347;13004
1333355;9136
1333363;5160
1333372;5567
1333380;13514
1333388;15456
1333396;15161
1333404;14586
1333413;14538
1333421;14218
1333429;14073
1333437;13887
1333445;13862
1333454;13756
1333462;13735
1333470;13606
1333478;13582
1333486;13496
1333495;13421
1333503;13290
1333511;13156
1333519;12979
1333527;12743
1333535;12534
1333547;12376
1333555;12053
1333563;11978
1333571;11773
1333580;11908
1333588;11835
1333597;12141
1333605;12322
1333613;12817
1333622;13137
1333630;13624
1333638;13890
1333646;14193
1333654;14231
1333662;14360
1333671;14325
1333679;14325
1333687;14210
1333695;14216
1333703;14117
1333712;14143
1333720;14155
1333728;14154
1333736;14143
1333744;14106
1333753;14095
1333761;14007
1333769;13974
1333777;13933
1333785;13989
1333794;13918
1333802;13967
1333810;13868
1333818;13868
1333829;13772
1333838;13476
1333846;13449
1333854;13302
1333862;13386
1333870;13219
1333879;13240
1333887;13188
1333895;13344
1333904;13395
1333912;13460
1333921;13446
1333929;13465
1333937;13424
1333945;13392
1333953;13366
1333961;13329
1333970;13408
1333978;13985
1333986;12402
1333994;8317
1334002;4424
1334011;5724
1334019;13631
1334027;15160
1334035;14780
1334043;14287
1334052;14239
1334060;13906
1334068;13883
1334076;13745
1334084;13772
1334093;13610
1334101;13646
1334112;13564
1334120;13477
1334128;13451
1334137;13265
1334145;13231
1334153;13049
1334161;12963
1334169;12749
1334178;12577
1334186;12244
1334194;12057
1334202;11875
1334210;11880
1334218;11919
1334227;12070
1334236;12226
1334244;12536
1334252;12941
1334260;13435
1334269;13823
1334277;14137
1334285;14375
1334293;14516
1334301;14576
1334310;14563
1334318;14540
1334326;14459
1334334;14437
1334342;14340
1334351;14347
1334359;14221
1334367;14226
1334375;14158
1334383;14183
1334395;14166
1334403;14105
1334411;14126
1334419;14024
1334427;14043
1334436;14024
1334444;14055
1334452;14060
1334460;14076
1334468;14104
1334477;14061
1334485;13940
1334493;13761
1334501;13663
1334509;13689
1334518;13771
1334526;13769
1334534;13784
1334543;13813
1334551;13853
1334559;13920
1334568;13996
1334576;13924
1334584;13997
1334592;13966
1334600;13974
1334609;13910
1334617;13952
1334625;13837
1334633;14621
1334641;13622
1334650;10231
1334658;5922
1334666;5456
1334674;12744
1334685;15921
1334694;15417
1334702;14900
1334710;14715
1334718;14398
1334726;14147
1334735;14053
1334743;13950
1334751;13882
1334759;13761
1334767;13745
1334776;13609
1334784;13590
1334792;13498
1334800;13436
1334808;13280
1334817;13243
1334825;13026
1334833;12891
1334841;12628
1334849;12454
1334857;12160
1334866;12141
1334874;12051
1334883;12145
1334891;12208
1334899;12495
1334908;12676
1334916;13180
1334924;13428
1334932;13826
1334940;13910
1334949;14206
1334957;14175
1334968;14349
1334976;14399
1334984;14430
1334993;14395
1335001;14442
1335009;14388
1335017;14417
1335025;14358
1335034;14353
1335042;14234
1335050;14259
1335058;14185
1335066;14257
1335075;14166
1335083;14237
1335091;14153
1335099;14254
1335107;14184
1335116;14275
1335124;14152
1335132;14253
1335140;14091
1335148;14090
1335156;13833
1335165;13764
1335173;13538
1335181;13669
1335190;13601
1335198;13772
1335207;13750
1335215;14029
1335223;14041
1335231;14228
1335239;14107
1335251;14261
1335259;14252
1335267;14272
1335275;14227
1335283;14269
1335292;14126
1335300;14806
1335308;14192
1335316;11263
1335324;7220
1335333;5895
1335341;12507
1335349;16327
1335357;15778
1335365;15202
1335374;14694
1335382;14623
1335390;14213
1335398;14170
1335406;13943
1335415;13997
1335423;13802
1335431;13861
1335439;13664
1335447;13746
1335455;13529
1335464;13561
1335472;13307
1335480;13299
1335488;13019
1335496;12970
1335505;12596
1335514;12481
1335522;12151
1335532;12192
1335540;12130
1335549;12187
1335558;12162
1335566;12395
1335574;12552
1335582;13005
1335591;13254
1335599;13682
1335607;13815
1335615;14125
1335623;14160
1335632;14387
1335640;14263
1335648;14408
1335656;14226
1335664;14307
1335673;14103
1335681;14163
1335689;13955
1335697;14031
1335705;13862
1335714;13995
1335722;13832
1335730;13969
1335738;13838
1335746;13983
1335754;13871
1335763;13988
1335771;13819
1335779;13920
1335787;13656
1335795;13658
1335804;13434
1335815;13566
1335823;13512
1335831;13620
1335839;13536
1335848;13725
1335856;13660
1335864;13806
1335873;13628
1335881;13738
1335890;13600
1335898;13688
1335906;13514
1335914;13624
1335922;13416
1335931;13828
1335939;13745
1335947;11731
1335955;7892
1335963;5797
1335972;10007
1335980;16105
1335988;15815
1335996;15241
1336004;14531
1336013;14458
1336021;14111
1336029;14015
1336037;13773
1336045;13809
1336054;13597
1336062;13620
1336070;13417
1336078;13427
1336086;13195
1336094;13173
1336106;12964
1336114;12982
1336122;12623
1336130;12490
1336138;12094
1336147;11973
1336155;11582
1336163;11623
1336171;11493
1336179;11724
1336189;11732
1336197;12112
1336205;12321
1336213;12919
1336221;13208
1336230;13717
1336238;13850
1336246;14199
1336254;14175
1336262;14370
1336271;14270
1336279;14383
1336287;14246
1336295;14364
1336303;14213
1336312;14244
1336320;14043
1336328;14068
1336336;13871
1336344;13898
1336353;13718
1336361;13763
1336369;13614
1336377;13669
1336388;13608
1336397;13835
1336405;13706
1336413;13848
1336421;13688
1336429;13799
1336438;13522
1336446;13573
1336454;13380
1336462;13529
1336470;13443
1336478;13685
1336487;13629
1336495;13899
1336504;13864
1336512;14018
1336520;13861
1336529;13957
1336537;13800
1336545;13871
1336553;13683
1336561;13732
1336570;13497
1336578;14120
1336586;13384
1336594;10484
1336602;6328
1336611;5011
1336619;11386
1336627;15444
1336635;15102
1336643;14530
1336652;14143
1336660;13985
1336671;13660
1336679;13766
1336687;13518
1336696;13593
1336704;13375
1336712;13439
1336720;13236
1336728;13286
1336737;13101
1336745;13159
1336753;12925
1336761;12947
1336769;12684
1336777;12633
1336786;12288
1336794;12176
1336802;11864
1336810;11870
1336818;11760
1336828;11951
1336836;11987
1336844;12336
1336852;12626
1336860;13160
1336869;13518
1336877;13920
1336885;14110
1336893;14295
1336901;14379
1336910;14513
1336918;14483
1336926;14515
1336934;14463
1336942;14505
1336954;14448
1336962;14581
1336970;14365
1336978;14408
1336986;14173
1336995;14198
1337003;14004
1337011;14068
1337019;13902
1337027;13968
1337036;13825
1337044;13901
1337052;13753
1337060;13799
1337068;13708
1337076;13818
1337085;13735
1337093;13820
1337101;13700
1337109;13653
1337117;13446
1337126;13488
1337134;13466
1337143;13574
1337151;13544
1337159;13623
1337168;13631
1337176;13756
1337184;13774
1337192;13768
1337200;13712
1337209;13694
1337217;13715
1337225;13705
1337236;13611
1337244;13690
1337253;14179
1337261;13434
1337269;9938
1337277;5869
1337285;4971
1337294;11944
1337302;15429
1337310;15304
1337318;14616
1337326;14452
1337335;14182
1337343;14020
1337351;13843
1337359;13801
1337367;13714
1337375;13720
1337384;13626
1337392;13589
1337400;13505
1337408;13427
1337416;13311
1337425;13224
1337433;13120
1337441;12977
1337449;12787
1337457;12483
1337466;12273
1337474;12050
1337483;11923
1337491;11853
1337499;11931
1337508;11944
1337516;12187
1337527;12709
1337535;13084
1337543;13570
1337552;13777
1337560;14107
1337568;14201
1337576;14369
1337584;14343
1337593;14360
1337601;14269
1337609;14263
1337617;14155
1337625;14122
1337634;14026
1337642;14024
1337650;13972
1337658;13949
1337666;13931
1337674;13900
1337683;13877
1337691;13842
1337699;13835
1337707;13801
1337715;13839
1337724;13779
1337732;13874
1337740;13811
1337748;13845
1337756;13761
1337765;13860
1337773;13816
1337781;13886
1337790;13810
1337798;13848
1337809;13696
1337817;13629
1337825;13682
1337833;13642
1337842;13670
1337851;13620
1337859;13693
1337867;13794
1337875;13893
1337883;13920
1337892;13912
1337900;13928
1337908;13885
1337916;13871
1337924;13792
1337933;13776
1337941;13654
1337949;14222
1337957;13734
1337965;10969
1337974;6669
1337982;5134
1337990;10839
1337998;15571
1338006;15384
1338014;14853
1338023;14474
1338031;14362
1338039;14038
1338047;14067
1338055;13871
1338064;13901
1338072;13718
1338080;13800
1338091;13771
1338099;13732
1338108;13637
1338116;13463
1338124;13325
1338132;13156
1338140;13000
1338149;12827
1338157;12542
1338166;12336
1338174;12074
1338182;11991
1338191;11901
1338199;12019
1338207;12119
1338215;12393
1338223;12642
1338232;13129
1338240;13454
1338248;13895
1338256;14077
1338264;14416
1338273;14412
1338281;14606
1338289;14510
1338297;14641
1338305;14522
1338313;14566
1338322;14385
1338330;14467
1338338;14293
1338346;14388
1338354;14194
1338363;14318
1338374;14235
1338382;14254
1338390;14201
1338398;14161
1338407;14071
1338415;14089
1338423;14033
1338431;14082
1338439;14006
1338448;14067
1338456;13991
1338464;14028
1338473;13918
1338481;13991
1338490;13870
1338498;13943
1338506;13825
1338514;13820
1338522;13568
1338531;13530
1338539;13368
1338547;13497
1338555;13414
1338563;13520
1338572;13426
1338580;13596
1338588;13509
1338596;13687
1338604;13554
1338612;13678
1338621;13543
1338629;13668
1338637;13490
1338645;13573
1338657;13430
1338665;13924
1338673;13650
1338681;11208
1338689;7134
1338697;5200
1338706;10043
1338714;15423
1338722;15323
1338730;14717
1338738;14259
1338747;14186
1338755;13853
1338763;13852
1338771;13668
1338779;13728
1338788;13574
1338797;13618
1338805;13454
1338813;13473
1338821;13255
1338830;13279
1338838;13008
1338846;13001
1338854;12709
1338862;12655
1338871;12275
1338879;12147
1338887;11731
1338895;11711
1338903;11493
1338911;11707
1338920;11674
1338928;12018
1338936;12114
1338956;13487
1338964;13976
1338972;14125
1338980;14406
1338988;14415
1338996;14528
1339005;14447
1339013;14525
1339021;14344
1339029;14384
1339037;14211
1339046;14271
1339054;14127
1339062;14220
1339070;14015
1339078;14109
1339087;13952
1339095;14059
1339103;13899
1339111;14062
1339119;13938
1339129;14050
1339137;13915
1339145;14085
1339153;13945
1339161;14074
1339170;13938
1339178;14072
1339186;13919
1339194;14030
1339202;13866
1339210;13968
1339219;13740
1339227;13797
1339238;13495
1339246;13606
1339255;13485
1339263;13554
1339271;13373
1339279;13498
1339287;13406
1339295;13590
1339304;13493
1339312;13618
1339320;13450
1339328;13590
1339336;13456
1339345;13593
1339353;13437
1339361;13542
1339369;14008
1339377;13470
1339386;10329
1339394;6629
1339402;5659
1339410;12508
1339418;15709
1339427;15438
1339435;14650
1339443;14536
1339451;14170
1339460;14105
1339469;13828
1339477;13862
1339485;13604
1339493;13689
1339501;13507
1339510;13588
1339521;13425
1339529;13491
1339537;13242
1339545;13257
1339554;12967
1339562;12896
1339570;12571
1339578;12508
1339586;12162
1339594;12080
1339603;11856
1339611;11974
1339619;11866
1339627;12138
1339635;12179
1339644;12665
1339652;12926
1339660;13473
1339668;13688
1339676;14175
1339685;14214
1339693;14421
1339701;14300
1339709;14439
1339717;14275
1339726;14413
1339734;14282
1339742;14392
1339750;14232
1339758;14339
1339767;14168
1339776;14256
1339784;14074
1339792;14175
1339802;14045
1339811;14223
1339819;14019
1339828;14095
1339836;13925
1339844;14074
1339853;13934
1339861;14062
1339869;13843
1339877;13921
1339885;13737
1339894;13903
1339902;13640
1339910;13618
1339918;13296
1339926;13392
1339934;13267
1339943;13483
1339951;13327
1339959;13549
1339967;13492
1339975;13750
1339984;13691
1339992;13880
1340000;13786
1340008;13929
1340016;13839
1340025;13954
1340033;13776
1340041;13828
1340049;14150
1340057;13953
1340066;11299
1340074;7637
1340085;6787
1340093;14436
1340101;16052
1340110;15516
1340118;14642
1340126;14465
1340134;14122
1340142;14054
1340152;13800
1340160;13868
1340168;13637
1340176;13689
1340184;13481
1340193;13548
1340201;13311
1340209;13381
1340217;13170
1340225;13190
1340233;12907
1340242;12907
1340250;12601
1340258;12501
1340266;12137
1340274;12069
1340283;11866
1340291;11997
1340299;11934
1340307;12143
1340315;12234
1340324;12601
1340332;12854
1340340;13385
1340348;13721
1340356;14088
1340368;14297
1340376;14642
1340384;14536
1340392;14736
1340400;14600
1340409;14728
1340417;14541
1340425;14625
1340433;14438
1340441;14553
1340450;14353
1340459;14435
1340467;14242
1340475;14330
1340483;14175
1340492;14270
1340500;14107
1340508;14235
1340516;14117
1340524;14248
1340532;14129
1340541;14168
1340549;14001
1340557;13937
1340565;13721
1340573;13775
1340582;13629
1340590;13693
1340598;13672
1340606;13786
1340614;13765
1340623;13880
1340631;13859
1340639;13883
1340647;13839
1340658;13962
1340667;13833
1340675;13907
1340683;13673
1340691;13716
1340699;13982
1340708;13662
1340716;10817
1340724;7399
1340732;5957
1340740;12432
1340749;16301
1340757;15798
1340765;14941
1340773;14503
1340782;14187
1340791;14018
1340799;13720
1340807;13685
1340815;13522
1340823;13528
1340831;13364
1340840;13366
1340848;13246
1340856;13225
1340864;13045
1340872;12965
1340881;12793
1340889;12662
1340897;12453
1340905;12256
1340913;12019
1340922;11874
1340930;11749
1340941;11930
1340949;11979
1340957;12211
1340966;12285
1340974;12745
1340982;13010
1340990;13501
1340998;13700
1341007;14048
1341015;14098
1341023;14298
1341031;14226
1341039;14353
1341048;14247
1341056;14314
1341064;14200
1341072;14240
1341080;14091
1341089;14080
1341097;13932
1341106;13908
1341114;13777
1341122;13775
1341130;13668
1341139;13661
1341147;13597
1341155;13627
1341163;13630
1341171;13657
1341180;13645
1341188;13640
1341196;13642
1341204;13682
1341212;13723
1341224;13836
1341232;13701
1341240;13618
1341248;13297
1341256;13301
1341265;13206
1341273;13329
1341281;13248
1341289;13384
1341297;13361
1341306;13539
1341314;13518
1341322;13563
1341330;13529
1341338;13589
1341347;13494
1341355;13510
1341363;13408
1341371;13390
1341379;13970
1341388;13278
1341396;10057
1341404;6026
1341412;5212
1341420;12035
1341430;15520
1341438;15207
1341446;14584
1341454;14310
1341462;14143
1341470;13859
1341479;13807
1341487;13691
1341495;13692
1341535;15368
1341543;15142
1341551;14514
1341560;14251
1341568;13720
1341576;13517
1341584;13016
1341592;12820
1341601;12329
1341609;12228
1341617;11925
1341625;12050
1341633;11973
1341641;12241
1341650;12302
1341658;12792
1341666;13052
1341674;13578
1341682;13758
1341691;14138
1341699;14098
1341707;14324
1341715;14205
1341723;14332
1341733;14166
1341741;14274
1341749;14078
1341757;14115
1341765;13957
1341774;14085
1341782;13923
1341790;14029
1341798;13854
1341806;13931
1341818;13850
1341826;13993
1341834;13782
1341842;13852
1341850;13628
1341859;13720
1341867;13527
1341875;13648
1341883;13515
1341891;13698
1341900;13558
1341908;13729
1341916;13498
1341924;13506
1341932;13195
1341940;13295
1341949;13182
1341957;13391
1341965;13254
1341973;13443
1341981;13389
1341990;13644
1341998;13561
1342006;13704
1342014;13554
1342022;13673
1342031;13520
1342039;13636
1342047;13433
1342056;13488
1342064;13793
1342073;13775
1342081;11168
1342089;7160
1342097;4991
1342107;13163
1342117;15721
1342125;15377
1342133;14593
1342141;14530
1342149;14145
1342158;14025
1342166;13723
1342174;13768
1342182;13522
1342190;13582
1342199;13363
1342207;13412
1342215;13203
1342223;13266
1342231;13022
1342239;13063
1342248;12771
1342256;12759
1342264;12461
1342272;12385
1342280;12057
1342289;11979
1342297;11758
1342305;11831
1342313;11786
1342321;12040
1342330;12143
1342338;12523
1342346;12834
1342354;13308
1342362;13581
1342371;13976
1342380;14139
1342390;14475
1342398;14412
1342406;14553
1342415;14366
1342423;14490
1342432;14289
1342440;14352
1342448;14161
1342457;14233
1342465;14019
1342473;14133
1342481;13969
1342489;14079
1342498;13944
1342506;14067
1342514;13943
1342522;14055
1342530;13898
1342538;14025
1342547;13850
1342555;13924
1342563;13803
1342571;13874
1342579;13763
1342588;13849
1342596;13709
1342604;13704
1342612;13433
1342620;13448
1342629;13404
1342637;13495
1342645;13435
1342653;13521
1342661;13534
1342673;13838
1342681;13775
1342689;13872
1342697;13722
1342705;13850
1342714;13670
1342722;13742
1342730;13507
1342739;13544
1342747;13856
1342756;13753
1342764;11011
1342772;7000
1342780;4979
1342788;10638
1342797;15432
1342805;15398
1342813;14607
1342821;14349
1342829;14063
1342838;13950
1342846;13744
1342854;13745
1342862;13620
1342870;13642
1342878;13527
1342887;13561
1342895;13460
1342903;13479
1342911;13394
1342919;13362
1342928;13197
1342936;13042
1342944;12856
1342955;12742
1342963;12417
1342972;12315
1342980;12008
1342988;12105
1342996;12015
1343004;12220
1343013;12233
1343021;12642
1343029;12945
1343037;13479
1343045;13737
1343055;14097
1343063;14219
1343071;14452
1343079;14436
1343087;14547
1343096;14486
1343104;14568
1343112;14488
1343120;14513
1343128;14421
1343137;14445
1343145;14326
1343153;14310
1343161;14259
1343169;14227
1343177;14171
1343186;14141
1343194;14088
1343202;14080
1343210;14056
1343218;14036
1343227;14021
1343238;14120
1343246;14057
1343254;14142
1343262;14006
1343271;14101
1343279;13901
1343287;13862
1343295;13605
1343303;13661
1343312;13590
1343320;13674
1343328;13596
1343336;13727
1343344;13720
1343353;13914
1343362;13867
1343370;13913
1343378;13834
1343386;13863
1343395;13791
1343403;13838
1343411;13798
1343419;13756
1343427;14152
1343436;13948
1343444;11445
1343452;7480
1343460;5559
1343468;11125
1343476;16002
1343485;15758
1343493;15063
1343501;14652
1343509;14523
1343517;14228
1343529;14085
1343537;14168
1343545;13947
1343553;13966
1343561;13771
1343570;13744
1343578;13582
1343586;13573
1343594;13378
1343602;13308
1343611;13117
1343619;13001
1343627;12755
1343635;12568
1343643;12292
1343652;12099
1343660;11980
1343668;11985
1343676;12053
1343684;12194
1343694;12346
1343702;12604
1343710;13006
1343718;13382
1343726;13780
1343735;14025
1343743;14221
1343751;14336
1343759;14455
1343767;14418
1343775;14461
1343784;14373
1343792;14374
1343800;14263
1343811;14207
1343820;14243
1343828;14051
1343836;14046
1343844;13951
1343852;13945
1343860;13831
1343869;13868
1343877;13790
1343885;13810
1343893;13763
1343901;13772
1343910;13709
1343918;13720
1343926;13743
1343934;13736
1343942;13732
1343951;13666
1343959;13598
1343967;13440
1343975;13346
1343983;13307
1343992;13367
1344000;13324
1344009;13369
1344017;13358
1344025;13465
1344034;13500
1344042;13623
1344050;13570
1344058;13671
1344066;13599
1344074;13660
1344083;13531
1344094;13531
1344102;13624
1344110;14154
1344119;13021
1344127;9501
1344135;6322
1344143;6794
1344151;14368
1344159;15971
1344168;15324
1344176;14662
1344184;14360
1344192;14194
1344200;13953
1344209;13835
1344217;13688
1344225;13611
1344233;13476
1344241;13421
1344250;13291
1344258;13232
1344266;13053
1344274;12990
1344282;12803
1344291;12717
1344299;12464
1344307;12356
1344315;12074
1344323;11914
1344333;11632
1344341;11609
1344349;11505
1344357;11671
1344365;11766
1344376;12184
1344385;12624
1344393;12997
1344401;13404
1344409;13733
1344418;14013
1344426;14215
1344434;14336
1344442;14383
1344450;14387
1344458;14394
1344467;14352
1344475;14360
1344483;14302
1344491;14248
1344499;14081
1344508;14066
1344516;13965
1344524;14023
1344532;13939
1344540;13961
1344549;13884
1344557;14000
1344565;13940
1344573;14003
1344581;13927
1344590;14019
1344598;13962
1344606;14093
1344614;14008
1344622;14126
1344631;13943
1344639;13938
1344647;13622
1344658;13683
1344666;13754
1344675;13744
1344683;13682
1344691;13726
1344699;13752
1344708;13882
1344717;13898
1344725;13888
1344733;13861
1344741;13914
1344749;13863
1344758;13908
1344766;13812
1344774;13798
1344782;14300
1344790;13889
1344798;10821
1344807;6782
1344815;5255
1344823;11798
1344831;15751
1344839;15481
1344848;14716
1344856;14566
1344864;14286
1344872;14176
1344880;13917
1344889;13969
1344897;13788
1344905;13836
1344913;13602
1344921;13681
1344930;13481
1344938;13519
1344949;13343
1344957;13276
1344965;13048
1344974;12901
1344982;12632
1344990;12459
1344998;12171
1345006;11997
1345015;11791
1345024;11832
1345032;11798
1345040;12023
1345048;12130
1345057;12519
1345065;12841
1345073;13334
1345081;13629
1345089;14017
1345097;14070
1345106;14314
1345114;14222
1345122;14337
1345130;14199
1345138;14320
1345147;14172
1345155;14247
1345163;14055
1345171;14149
1345179;13935
1345188;14031
1345196;13846
1345204;13947
1345212;13772
1345220;13862
1345232;13816
1345240;13941
1345248;13862
1345256;13945
1345264;13855
1345273;13916
1345281;13846
1345289;13929
1345297;13817
1345305;13906
1345314;13758
1345322;13792
1345330;13507
1345339;13568
1345347;13463
1345356;13626
1345364;13498
1345372;13643
1345380;13570
1345388;13789
1345396;13727
1345405;13842
1345413;13710
1345421;13820
1345429;13648
1345437;13776
1345446;13606
1345454;13684
1345462;13629
1345470;14211
1345478;12379
1345487;8615
1345495;5077
1345503;7336
1345514;15484
1345522;15553
1345531;14783
1345539;14505
1345547;14196
1345555;14069
1345563;13843
1345572;13862
1345580;13666
1345588;13719
1345596;13481
1345604;13565
1345613;13388
1345621;13438
1345629;13227
1345637;13245
1345645;12965
1345654;12972
1345662;12679
1345670;12596
1345679;12244
1345687;12182
1345695;11874
1345704;11949
1345712;11853
1345720;12083
1345728;12071
1345736;12450
1345745;12658
1345753;13214
1345761;13448
1345769;13898
1345777;14045
1345786;14377
1345797;14420
1345805;14590
1345813;14420
1345821;14499
1345830;14337
1345838;14429
1345846;14277
1345854;14381
1345862;14186
1345871;14264
1345879;14039
1345887;14121
1345895;13977
1345903;14042
1345912;13849
1345920;13970
1345928;13797
1345936;13881
1345944;13708
1345953;13829
1345961;13701
1345969;13831
1345977;13677
1345985;13804
1345993;13584
1346002;13604
1346011;13306
1346019;13419
1346027;13276
1346035;13427
1346044;13282
1346052;13440
1346060;13364
1346068;13600
1346079;13609
1346088;13786
1346096;13636
1346104;13722
1346112;13576
1346120;13660
1346129;13444
1346137;13566
1346145;14033
1346153;12888
1346161;9083
1346170;5473
1346178;6222
1346186;14073
1346194;15559
1346202;15126
1346211;14411
1346219;14410
1346227;14028
1346235;13957
1346243;13698
1346252;13765
1346260;13591
1346268;13688
1346276;13495
1346284;13570
1346292;13338
1346301;13362
1346309;13114
1346317;13130
1346325;12891
1346334;12859
1346343;12577
1346351;12435
1346359;12050
1346369;12027
1346378;11860
1346387;11998
1346395;11929
1346403;12176
1346411;12227
1346419;12683
1346428;12934
1346436;13484
1346444;13683
1346452;14159
1346460;14206
1346469;14479
1346477;14867
1346485;15015
1346493;14461
1346501;14237
1346510;14118
1346518;14349
1346526;14251
1346534;14384
1346542;14235
1346551;14333
1346559;14172
1346567;14287
1346575;14135
1346583;14285
1346591;14181
1346600;14323
1346608;14216
1346616;14359
1346624;14284
1346632;14350
1346641;14223
1346652;14220
1346660;13969
1346668;14016
1346676;13826
1346686;13957
1346694;13806
1346702;14016
1346710;13961
1346718;14161
1346727;14024
1346735;14170
1346743;14007
1346751;14140
1346759;14014
1346768;14130
1346776;13909
1346784;13934
1346792;14215
1346800;13981
1346809;11267
1346817;7637
1346825;5820
1346833;12170
1346841;16422
1346850;15936
1346858;15062
1346866;14664
1346874;14427
1346882;14266
1346890;14045
1346899;14027
1346907;13854
1346915;13853
1346923;13692
1346935;13735
1346943;13576
1346951;13618
1346959;13323
1346967;13341
1346975;13049
1346984;13045
1346992;12754
1347001;12705
1347009;12307
1347017;12243
1347026;12038
1347034;12153
1347042;12087
1347050;12313
1347058;12346
1347067;12757
1347075;13012
1347083;13497
1347091;13724
1347099;14136
1347108;14213
1347116;14416
1347124;14376
1347132;14515
1347140;14446
1347149;14506
1347157;14388
1347165;14387
1347173;14264
1347181;14229
1347190;14097
1347198;14104
1347206;14043
1347217;14199
1347225;14091
1347234;14188
1347242;14048
1347250;14151
1347258;13991
1347266;14117
1347274;13978
1347283;14035
1347291;13818
1347300;13806
1347308;13579
1347316;13609
1347325;13446
1347333;13547
1347341;13466
1347349;13636
1347357;13646
1347366;13805
1347374;13731
1347382;13823
1347390;13707
1347398;13734
1347407;13675
1347415;13746
1347423;13620
1347431;13616
1347439;13768
1347448;13882
1347456;11661
1347464;7822
1347472;5269
1347480;9700
1347489;15851
1347497;15751
1347508;14800
1347516;14548
1347524;14214
1347533;14039
1347541;13739
1347549;13767
1347557;13625
1347565;13706
1347574;13523
1347582;13528
1347590;13363
1347598;13382
1347606;13182
1347614;13114
1347623;12854
1347632;12726
1347640;12447
1347648;12268
1347656;11983
1347665;11806
1347673;11638
1347681;11680
1347689;11741
1347697;11943
1347706;12140
1347714;12464
1347722;12848
1347730;13270
1347738;13616
1347747;13879
1347755;14092
1347763;14169
1347771;14209
1347779;14189
1347791;14260
1347799;14443
1347807;14274
1347815;14307
1347823;14156
1347832;14167
1347840;13979
1347848;14006
1347856;13895
1347864;13924
1347873;13814
1347881;13842
1347889;13776
1347897;13854
1347905;13803
1347913;13858
1347922;13828
1347930;13872
1347938;13826
1347946;13803
1347955;13781
1347964;13780
1347972;13778
1347980;13787
1347988;13708
1347996;13523
1348005;13380
1348013;13328
1348021;13392
1348029;13328
1348037;13351
1348046;13335
1348054;13469
1348062;13504
1348073;13624
1348081;13788
1348090;13657
1348098;13710
1348106;13641
1348114;13655
1348122;13539
1348131;13536
1348139;14124
1348147;12975
1348155;9340
1348163;5324
1348172;5365
1348180;12886
1348188;15435
1348196;15040
1348204;14514
1348212;14337
1348221;14131
1348229;13917
1348237;13825
1348245;13732
1348253;13742
1348262;13658
1348270;13662
1348278;13573
1348286;13601
1348294;13476
1348304;13471
1348312;13267
1348320;13240
1348328;13024
1348336;12935
1348345;12589
1348356;12293
1348364;12145
1348372;11946
1348380;11925
1348389;11927
1348397;12047
1348405;12230
1348413;12556
1348421;12962
1348430;13377
1348438;13718
1348446;13970
1348454;14148
1348462;14238
1348471;14312
1348479;14281
1348487;14312
1348495;14221
1348503;14199
1348511;14078
1348520;14103
1348528;13978
1348536;14019
1348544;13874
1348552;13943
1348561;13803
1348569;13872
1348577;13764
1348585;13898
1348594;13755
1348603;13850
1348611;13722
1348619;13822
1348627;13703
1348637;13804
1348647;13855
1348655;13855
1348663;13866
1348671;13839
1348679;13860
1348688;13882
1348696;13820
1348704;13670
1348712;13527
1348720;13550
1348729;13565
1348737;13625
1348745;13554
1348753;13693
1348761;13735
1348770;13946
1348778;13910
1348786;13993
1348794;13884
1348802;13934
1348810;13801
1348819;13866
1348827;13699
1348835;13737
1348843;14097
1348851;13793
1348860;10872
1348868;6805
1348876;4912
1348884;10775
1348892;15409
1348901;15461
1348909;14664
1348917;14534
1348928;14228
1348936;14147
1348945;14025
1348953;13967
1348961;13834
1348969;13803
1348978;13701
1348987;13711
1348995;13554
1349003;13522
1349011;13352
1349019;13291
1349028;13058
1349036;12987
1349044;12737
1349052;12601
1349060;12237
1349069;12134
1349077;11866
1349085;11968
1349093;11859
1349101;12091
1349110;12152
1349118;12585
1349126;12882
1349134;13460
1349142;13703
1349150;14125
1349159;14188
1349167;14493
1349175;14402
1349183;14566
1349191;14422
1349200;14530
1349211;14403
1349219;14450
1349227;14330
1349235;14294
1349244;14158
1349252;14162
1349260;14010
1349268;14041
1349277;13926
1349286;13975
1349294;13821
1349302;13921
1349310;13804
1349318;13896
1349327;13792
1349335;13885
1349343;13748
1349351;13873
1349359;13749
1349368;13880
1349376;13705
1349384;13828
1349392;13686
1349400;13866
1349409;13727
1349417;13906
1349425;13784
1349433;13916
1349441;13752
1349449;13840
1349458;13572
1349466;13620
1349474;13405
1349482;13607
1349494;13592
1349502;13720
1349510;13650
1349518;13774
1349526;13728
1349534;13853
1349543;13708
1349551;13792
1349559;13677
1349567;13789
1349575;13615
1349584;13684
1349593;13469
1349601;14196
1349609;13161
1349617;10086
1349626;6165
1349634;5908
1349642;12710
1349650;15575
1349658;14953
1349667;14505
1349675;14157
1349683;14094
1349691;13733
1349699;13838
1349708;13618
1349716;13702
1349724;13476
1349732;13586
1349740;13359
1349748;13433
1349757;13178
1349765;13259
1349776;13037
1349784;13111
1349793;12827
1349801;12757
1349809;12422
1349817;12293
1349825;11971
1349833;11963
1349842;11806
1349850;12018
1349858;11965
1349866;12276
1349874;12425
1349883;12956
1349891;13211
1349899;13748
1349907;13908
1349916;14291
1349925;14272
1349933;14509
1349941;14352
1349949;14511
1349957;14307
1349966;14412
1349974;14187
1349982;14309
1349990;14079
1349998;14143
1350007;13914
1350015;14035
1350023;13848
1350031;13949
1350039;13725
1350047;13825
1350059;13762
1350067;13963
1350075;13837
1350083;13965
1350092;13825
1350100;13963
1350108;13835
1350116;14002
1350124;13836
1350132;13963
1350141;13800
1350149;13924
1350157;13763
1350165;13904
1350173;13737
1350182;13868
1350190;13686
1350198;13826
1350206;13644
1350214;13771
1350223;13625
1350231;13683
1350240;13424
1350248;13450
1350256;13275
1350265;13405
1350273;13271
1350281;13406
1350289;13274
1350297;13454
1350306;13317
1350314;13525
1350322;13386
1350330;13532
1350341;13507
1350350;13694
1350358;13517
1350366;13591
1350374;13362
1350382;14050
1350391;12890
1350399;9777
1350407;6017
1350415;6134
1350423;13159
1350431;15510
1350440;14839
1350448;14397
1350456;14114
1350464;14100
1350472;13786
1350481;13847
1350489;13652
1350497;13748
1350505;13541
1350513;13628
1350522;13464
1350530;13532
1350538;13324
1350546;13390
1350554;13137
1350563;13150
1350572;12862
1350580;12805
1350588;12473
1350596;12347
1350605;12022
1350613;11962
1350621;11804
1350632;12065
1350640;12070
1350649;12354
1350657;12513
1350665;12990
1350673;13235
1350681;13765
1350690;13926
1350698;14265
1350706;14252
1350714;14486
1350722;14378
1350730;14508
1350739;14350
1350747;14445
1350755;14308
1350763;14417
1350771;14281
1350780;14376
1350788;14200
1350796;14243
1350804;14043
1350812;14096
1350821;13931
1350829;14010
1350837;13887
1350845;14017
1350853;13877
1350862;13988
1350870;13860
1350878;13937
1350887;13817
1350895;13891
1350904;13785
1350914;13965
1350922;13837
1350930;13960
1350939;13809
1350948;13957
1350956;13797
1350964;13901
1350972;13693
1350980;13663
1350989;13455
1350997;13569
1351005;13473
1351013;13611
1351021;13481
1351030;13673
1351038;13583
1351046;13771
1351054;13674
1351062;13818
1351070;13660
1351079;13771
1351087;13673
1351095;13779
1351103;13658
1351111;13891
1351120;14116
1351128;12466
1351136;8811
1351144;6830
1351152;9471
1351161;16085
1351169;16076
1351177;15279
1351185;14510
1351196;14290
1351205;13988
1351213;13935
1351221;13697
1351229;13739
1351237;13541
1351246;13594
1351254;13391
1351263;13458
1351271;13220
1351279;13239
1351288;13022
1351296;13016
1351304;12773
1351312;12726
1351320;12425
1351329;12259
1351337;11887
1351345;11849
1351353;11694
1351361;11851
1351369;11833
1351378;12097
1351386;12256
1351394;12652
1351402;12984
1351410;13435
1351419;13724
1351427;14060
1351435;14176
1351443;14321
1351451;14341
1351460;14353
1351468;14315
1351479;14524
1351487;14447
1351495;14494
1351504;14271
1351512;14337
1351520;14117
1351528;14150
1351536;14007
1351545;14082
1351553;13923
1351561;14003
1351570;13898
1351578;14016
1351587;13904
1351595;14000
1351603;13863
1351611;13912
1351619;13802
1351628;13742
1351636;13528
1351644;13539
1351652;13464
1351660;13547
1351668;13565
1351677;13709
1351685;13772
1351693;13903
1351701;13906
1351709;13919
1351718;13905
1351726;13925
1351734;13945
1351742;13961
1351750;13922
1351762;13905
1351770;14137
1351778;13924
1351786;11320
1351794;7889
1351803;6138
1351811;11625
1351819;16377
1351827;16011
1351835;15152
1351844;14617
1351852;14285
1351860;14094
1351868;13763
1351876;13694
1351885;13512
1351894;13515
1351902;13351
1351910;13343
1351918;13249
1351927;13223
1351935;13099
1351943;13031
1351951;12872
1351959;12716
1351967;12519
1351976;12297
1351984;12033
1351992;11780
1352000;11574
1352008;11485
1352017;11552
1352025;11632
1352033;11766
1352041;12025
1352052;12614
1352061;13202
1352069;13447
1352077;13799
1352085;13913
1352093;14077
1352102;14056
1352110;14155
1352118;14064
1352126;14127
1352134;14042
1352143;14044
1352151;13922
1352159;13916
1352167;13821
1352175;13773
1352184;13673
1352192;13664
1352200;13628
1352209;13662
1352217;13674
1352226;13662
1352234;13675
1352242;13682
1352250;13729
1352258;13755
1352266;13807
1352275;13797
1352283;13828
1352291;13774
1352299;13722
1352307;13562
1352316;13457
1352324;13339
1352335;13330
1352343;13454
1352351;13428
1352360;13586
1352368;13605
1352376;13691
1352384;13627
1352392;13665
1352401;13590
1352409;13587
1352417;13513
1352425;13482
1352433;13399
1352442;13941
1352450;13591
1352458;10809
1352466;6522
1352474;4665
1352483;10514
1352491;15458
1352499;15424
1352507;14820
1352515;14610
1352524;14391
1352532;14182
1352541;14032
1352549;13977
1352557;13861
1352566;13816
1352574;13667
1352582;13581
1352590;13417
1352598;13408
1352606;13220
1352618;13135
1352626;13105
1352634;12862
1352642;12686
1352650;12445
1352659;12239
1352667;12006
1352675;11871
1352683;11844
1352691;11930
1352700;12015
1352708;12186
1352716;12527
1352724;12943
1352732;13416
1352741;13793
1352749;14120
1352757;14342
1352765;14524
1352773;14559
1352782;14604
1352790;14515
1352798;14470
1352806;14351
1352814;14356
1352823;14218
1352831;14209
1352839;14096
1352847;14143
1352856;14027
1352865;14145
1352873;14034
1352881;14147
1352889;14022
1352899;14093
1352909;14114
1352917;14087
1352925;14074
1352933;14089
1352941;14092
1352950;14105
1352958;14133
1352966;14092
1352974;13980
1352982;13815
1352990;13641
1352999;13642
1353007;13661
1353015;13671
1353023;13634
1353031;13725
1353040;13778
1353048;13884
1353056;13828
1353064;13881
1353072;13817
1353081;13882
1353089;13767
1353097;13840
1353105;13670
1353113;13717
1353122;14292
1353130;13390
1353138;9753
1353146;5824
1353154;5654
1353162;13298
1353171;15673
1353179;15371
1353190;14686
1353198;14620
1353207;14300
1353215;14127
1353223;13977
1353231;13924
1353239;13821
1353249;13813
1353257;13700
1353265;13669
1353273;13531
1353281;13493
1353289;13294
1353298;13211
1353306;13000
1353314;12897
1353322;12596
1353330;12457
1353339;12153
1353347;12056
1353355;11825
1353363;11901
1353371;11834
1353380;12107
1353388;12213
1353396;12747
1353404;13080
1353412;13667
1353421;13914
1353429;14339
1353437;14401
1353445;14658
1353453;14593
1353462;14719
1353473;14650
1353481;14710
1353489;14599
1353497;14551
1353506;14414
1353514;14350
1353522;14226
1353530;14236
1353538;14114
1353546;14135
1353556;14027
1353564;14068
1353572;13956
1353580;13973
1353588;13857
1353597;13940
1353605;13830
1353613;13985
1353621;13884
1353629;14014
1353638;13901
1353646;14056
1353654;13900
1353662;13896
1353670;13609
1353679;13673
1353687;13539
1353695;13703
1353703;13599
1353711;13726
1353720;13633
1353728;13839
1353736;13760
1353744;13858
1353755;13817
1353764;13928
1353772;13810
1353780;13808
1353788;13662
1353796;13612
1353805;14118
1353813;13524
1353821;10271
1353829;6157
1353837;4983
1353846;11907
1353854;15433
1353862;15188
1353871;14430
1353879;14375
1353887;14040
1353896;13951
1353904;13718
1353912;13811
1353920;13580
1353928;13655
1353937;13496
1353945;13579
1353953;13377
1353961;13411
1353969;13189
1353978;13218
1353986;12985
1353994;13003
1354002;12696
1354010;12608
1354019;12231
1354027;12091
1354038;11889
1354046;12004
1354054;11932
1354063;12105
1354071;12139
1354079;12515
1354087;12777
1354095;13302
1354104;13551
1354112;13964
1354120;13984
1354128;14243
1354136;14228
1354145;14443
1354153;14331
1354161;14474
1354169;14336
1354177;14447
1354185;14283
1354195;14383
1354203;14192
1354211;14235
1354219;14053
1354227;14158
1354236;13984
1354244;14068
1354252;13898
1354260;14052
1354268;13954
1354277;14105
1354285;13975
1354293;14106
1354301;13969
1354309;14074
1354321;13989
1354329;14124
1354337;13917
1354345;13968
1354353;13673
1354362;13650
1354370;13487
1354378;13652
1354386;13538
1354394;13694
1354403;13649
1354411;13863
1354419;13824
1354427;13979
1354435;13867
1354444;13957
1354452;13795
1354460;13939
1354468;13749
1354476;13842
1354484;13617
1354493;14356
1354502;13510
1354510;10606
1354518;6941
1354526;6387
1354535;13228
1354543;16311
1354551;15523
1354559;14939
1354567;14390
1354576;14303
1354584;13935
1354592;13879
1354603;13672
1354611;13769
1354620;13591
1354628;13644
1354636;13461
1354644;13508
1354652;13311
1354661;13306
1354669;13023
1354677;13022
1354685;12741
1354693;12637
1354702;12313
1354710;12163
1354718;11823
1354726;11815
1354734;11688
1354743;11882
1354751;11836
1354759;12159
1354767;12371
1354775;12914
1354783;13187
1354792;13702
1354800;13906
1354808;14232
1354816;14258
1354825;14461
1354834;14398
1354842;14534
1354850;14431
1354858;14548
1354866;14472
1354875;14585
1354883;14442
1354894;14498
1354902;14360
1354910;14363
1354919;14204
1354927;14226
1354935;14070
1354943;14137
1354951;14024
1354960;14159
1354968;13987
1354976;14084
1354984;13830
1354992;13780
1355001;13471
1355009;13594
1355017;13446
1355025;13552
1355033;13455
1355042;13647
1355050;13637
1355058;13844
1355066;13791
1355074;13887
1355082;13821
1355091;13906
1355099;13816
1355107;13926
1355115;13831
1355123;13863
1355132;14155
1355141;13817
1355149;11108
1355157;7626
1355165;6067
1355176;14732
1355184;16379
1355193;15758
1355201;14933
1355209;14577
1355218;14170
1355226;14012
1355234;13694
1355242;13663
1355250;13430
1355259;13456
1355267;13258
1355275;13312
1355283;13108
1355291;13115
1355300;12866
1355308;12830
1355316;12595
1355324;12572
1355332;12307
1355341;12218
1355349;11905
1355357;11818
1355365;11643
1355373;11733
1355382;11741
1355390;11941
1355398;12086
1355406;12473
1355414;12890
1355422;13371
1355431;13691
1355439;14073
1355447;14219
1355458;14455
1355466;14443
1355475;14555
1355483;14395
1355491;14451
1355499;14173
1355508;14150
1355517;13877
1355525;13857
1355533;13669
1355541;13758
1355549;13630
1355558;13698
1355566;13592
1355574;13667
1355582;13550
1355590;13663
1355599;13590
1355607;13695
1355615;13639
1355623;13644
1355631;13497
1355640;13498
1355648;13436
1355656;13499
1355664;13476
1355672;13544
1355681;13564
1355689;13673
1355697;13705
1355705;13735
1355713;13652
1355721;13634
1355730;13597
1355741;13689
1355749;13589
1355757;13629
1355766;13875
1355774;13945
1355782;11498
1355790;7503
1355798;4915
1355806;9662
1355815;15392
1355824;15623
1355832;14874
1355840;14551
1355848;14347
1355857;14186
1355865;13975
1355873;13923
1355881;13785
1355889;13779
1355898;13683
1355906;13650
1355914;13543
1355922;13491
1355930;13332
1355939;13236
1355947;13065
1355955;12941
1355963;12744
1355971;12597
1355980;12307
1355988;12068
1355996;11909
1356004;11898
1356012;11956
1356024;12217
1356032;12321
1356040;12703
1356048;12978
1356056;13484
1356065;13751
1356073;14150
1356081;14241
1356089;14405
1356097;14395
1356105;14462
1356114;14373
1356122;14432
1356131;14346
1356139;14356
1356147;14249
1356156;14220
1356164;14130
1356172;14131
1356180;14029
1356188;13994
1356197;13921
1356205;13902
1356213;13858
1356221;13854
1356229;13825
1356238;13838
1356246;13779
1356254;13727
1356262;13738
1356270;13718
1356279;13748
1356287;13618
1356295;13530
1356303;13265
1356314;13163
1356323;13344
1356331;13301
1356339;13420
1356347;13448
1356355;13603
1356364;13660
1356372;13796
1356380;13784
1356388;13833
1356396;13756
1356404;13821
1356413;13755
1356421;13717
1356429;13573
1356437;14072
1356445;13648
1356454;10833
1356463;6337
1356471;4473
1356479;10324
1356487;15206
1356496;15182
1356504;14590
1356512;14394
1356520;14159
1356528;14008
1356537;13863
1356545;13894
1356553;13786
1356561;13756
1356569;13607
1356578;13634
1356586;13581
1356597;13496
1356605;13467
1356613;13281
1356622;13196
1356630;12995
1356638;12845
1356646;12573
1356654;12379
1356663;12159
1356671;12039
1356679;11941
1356687;11942
1356695;11981
1356703;12146
1356712;12465
1356720;12843
1356728;13318
1356736;13689
1356744;13980
1356753;14210
1356761;14359
1356769;14417
1356777;14512
1356785;14489
1356795;14572
1356803;14482
1356811;14526
1356819;14430
1356827;14439
1356836;14339
1356844;14390
1356852;14285
1356860;14316
1356868;14180
1356880;14178
1356888;14207
1356896;14084
1356904;14014
1356912;13949
1356921;13936
1356929;13874
1356937;13880
1356945;13901
1356953;13908
1356962;13891
1356970;13777
1356978;13611
1356986;13441
1356994;13499
1357002;13498
1357011;13560
1357019;13499
1357027;13623
1357035;13669
1357043;13865
1357052;13904
1357060;14001
1357068;13941
1357076;14056
1357084;13972
1357093;14027
1357102;13892
1357110;13860
1357118;14292
1357126;13915
1357135;10998
1357143;6897
1357151;5177
1357170;16141
1357179;15575
1357187;14882
1357195;14683
1357203;14352
1357211;14155
1357220;13998
1357228;13887
1357236;13772
1357244;13733
1357252;13609
1357261;13630
1357269;13496
1357277;13505
1357285;13351
1357293;13290
1357302;13093
1357310;12960
1357318;12699
1357326;12603
1357334;12312
1357342;12195
1357351;11982
1357359;12092
1357367;12057
1357375;12260
1357383;12286
1357392;12635
1357400;12854
1357408;13364
1357417;13570
1357425;13992
1357434;14105
1357442;14393
1357452;14467
1357460;14606
1357469;14556
1357478;14587
1357486;14522
1357494;14499
1357502;14376
1357510;14359
1357519;14243
1357527;14258
1357535;14159
1357543;14185
1357551;14090
1357560;14153
1357568;14050
1357576;14094
1357584;13983
1357592;14080
1357601;13988
1357609;14029
1357617;13894
1357625;13807
1357633;13565
1357641;13608
1357650;13464
1357658;13607
1357666;13542
1357674;13752
1357682;13725
1357691;14011
1357699;13960
1357707;14120
1357715;13975
1357723;14081
1357732;13966
1357743;14116
1357751;14047
1357759;14031
1357767;14329
1357776;14045
1357784;11439
1357792;7884
1357800;6221
1357809;12221
1357818;16494
1357826;15999
1357834;15109
1357842;14670
1357850;14368
1357859;14235
1357867;13887
1357875;13902
1357883;13679
1357891;13723
1357900;13488
1357908;13507
1357916;13293
1357924;13319
1357932;13102
1357940;13166
1357949;12889
1357957;12821
1357965;12491
1357973;12416
1357981;12080
1357990;11968
1357998;11652
1358006;11735
1358014;11649
1358025;11951
1358034;12104
1358042;12493
1358050;12760
1358058;13232
1358066;13463
1358075;13853
1358083;13955
1358091;14223
1358099;14169
1358107;14335
1358117;14198
1358125;14295
1358133;14121
1358141;14219
1358149;14033
1358158;14104
1358166;13914
1358174;13986
1358182;13853
1358190;13975
1358199;13834
1358207;13941
1358215;13828
1358223;13976
1358231;13824
1358239;13934
1358248;13784
1358256;13755
1358264;13495
1358272;13576
1358280;13410
1358289;13511
1358297;13452
1358308;13757
1358316;13795
1358324;13937
1358333;13784
1358341;13877
1358349;13724
1358357;13839
1358365;13686
1358374;13771
1358382;13558
1358390;13628
1358398;14064
1358406;13143
1358415;9733
1358423;6451
1358431;6343
1358439;14032
1358448;15927
1358457;15384
1358465;14611
1358473;14434
1358481;14097
1358489;13960
1358498;13675
1358506;13694
1358514;13479
1358522;13550
1358530;13384
1358538;13448
1358547;13291
1358555;13360
1358563;13130
1358571;13094
1358579;12850
1358591;12849
1358599;12564
1358607;12443
1358615;12069
1358623;12024
1358632;11828
1358640;12003
1358648;12037
1358656;12334
1358664;12491
1358673;13029
1358681;13319
1358689;13895
1358697;14133
1358705;14525
1358714;14563
1358722;14712
1358730;14567
1358738;14711
1358746;14555
1358755;14610
1358763;14386
1358772;14415
1358780;14239
1358788;14264
1358797;14063
1358805;14099
1358813;13936
1358821;14005
1358829;13876
1358838;13922
1358846;13796
1358854;13901
1358862;13847
1358873;14040
1358882;13963
1358890;14063
1358898;13763
1358906;13729
1358914;13488
1358922;13548
1358931;13363
1358939;13504
1358947;13424
1358955;13650
1358963;13615
1358972;13764
1358980;13642
1358988;13749
1358996;13567
1359004;13626
1359013;13469
1359021;13508
1359029;13336
1359037;13816
1359045;13602
1359054;11303
1359062;6928
1359070;4538
1359078;9241
1359086;15290
1359096;15392
1359104;14897
1359112;14521
1359120;14434
1359128;14129
1359137;14102
1359145;13967
1359153;13995
1359164;13917
1359172;14018
1359181;13814
1359189;13853
1359197;13614
1359205;13612
1359213;13370
1359222;13343
1359230;13042
1359238;12971
1359246;12616
1359254;12458
1359262;12118
1359271;12127
1359279;12031
1359287;12192
1359295;12147
1359303;12416
1359312;12576
1359320;13019
1359328;13314
1359336;13746
1359344;13937
1359353;14215
1359361;14256
1359369;14382
1359377;14321
1359385;14321
1359394;14234
1359403;14231
1359411;14146
1359419;14154
1359427;14096
1359436;14067
1359446;13980
1359455;14117
1359463;13899
1359471;13976
1359480;13799
1359488;13917
1359496;13809
1359504;13930
1359512;13813
1359521;13960
1359529;13843
1359537;13950
1359545;13847
1359553;13879
1359561;13607
1359570;13559
1359578;13442
1359586;13541
1359594;13546
1359602;13586
1359611;13555
1359619;13685
1359627;13779
1359635;13869
1359643;13828
1359652;13855
1359660;13823
1359668;13761
1359676;13713
1359684;13618
1359693;13500
1359701;14025
1359709;13662
1359718;10725
1359728;5414
1359737;6181
1359745;13629
1359753;15724
1359761;15136
1359769;14673
1359779;14377
1359787;14213
1359795;13948
1359803;13904
1359811;13714
1359820;13676
1359828;13547
1359836;13537
1359844;13431
1359852;13408
1359860;13320
1359869;13273
1359877;13150
1359885;13043
1359893;12879
1359901;12687
1359910;12452
1359918;12213
1359926;12072
1359934;11925
1359942;11921
1359951;11913
1359959;12054
1359967;12174
1359975;12521
1359983;12902
1359992;13367
1360000;13684
1360011;14093
1360019;14406
1360027;14393
1360036;14506
1360044;14447
1360052;14542
1360060;14401
1360068;14402
1360077;14272
1360086;14240
1360094;14103
1360102;14074
1360110;13947
1360119;13950
1360127;13888
1360135;13895
1360143;13852
1360151;13863
1360159;13850
1360168;13860
1360176;13842
1360184;13825
1360192;13829
1360200;13825
1360209;13819
1360217;13744
1360225;13703
1360233;13510
1360241;13398
1360250;13351
1360258;13443
1360266;13450
1360274;13530
1360282;13540
1360294;13734
1360302;13969
1360310;13891
1360318;13910
1360326;13853
1360335;13889
1360343;13832
1360351;13811
1360359;13683
1360367;13615
1360376;13971
1360384;13813
1360392;11204
1360400;7030
1360408;4937
1360418;10080
1360426;15365
1360434;15313
1360442;14610
1360450;14177
1360458;14025
1360467;13725
1360475;13627
1360483;13533
1360491;13565
1360499;13483
1360508;13512
1360516;13425
1360524;13433
1360532;13318
1360540;13334
1360549;13170
1360557;13084
1360565;12901
1360573;12831
1360584;12597
1360593;12374
1360601;12166
1360609;11968
1360617;11955
1360625;11980
1360634;12104
1360642;12275
1360650;12545
1360658;12899
1360666;13240
1360675;13632
1360683;13876
1360691;14092
1360699;14195
1360707;14323
1360716;14352
1360724;14423
1360733;14381
1360741;14409
1360749;14340
1360758;14384
1360766;14281
1360774;14310
1360782;14230
1360790;14266
1360798;14171
1360807;14229
1360815;14136
1360823;14184
1360831;14071
1360839;14115
1360848;13965
1360856;14015
1360867;13997
1360875;14081
1360883;14041
1360892;14013
1360900;13897
1360908;13807
1360916;13575
1360924;13443
1360933;13378
1360941;13496
1360949;13503
1360957;13578
1360965;13571
1360974;13753
1360982;13826
1360990;13947
1360998;13887
1361006;13947
1361015;13852
1361023;13898
1361031;13781
1361039;13846
1361047;13644
1361057;14193
1361065;13786
1361073;11207
1361081;7261
1361089;5807
1361097;11778
1361106;16209
1361114;15687
1361122;15073
1361130;14513
1361138;14457
1361150;14137
1361158;14132
1361166;13976
1361174;13933
1361182;13795
1361191;13793
1361199;13698
1361207;13643
1361215;13460
1361223;13433
1361232;13267
1361240;13195
1361248;12944
1361256;12846
1361264;12560
1361273;12405
1361281;12168
1361289;12162
1361297;12055
1361305;12189
1361314;12156
1361322;12414
1361330;12602
1361338;13080
1361346;13377
1361354;13855
1361363;14013
1361371;14334
1361379;14309
1361388;14511
1361396;14442
1361405;14559
1361413;14429
1361421;14521
1361461;16244
1361469;16050
1361477;15477
1361486;15227
1361494;14871
1361502;14740
1361510;14469
1361518;14450
1361527;14262
1361535;14182
1361543;13953
1361551;13811
1361559;13508
1361567;13418
1361576;13274
1361584;13209
1361592;13164
1361600;13260
1361608;13253
1361617;13385
1361625;13364
1361633;13417
1361641;13334
1361649;13328
1361658;13275
1361666;13237
1361674;13208
1361682;13160
1361691;13099
1361700;13443
1361708;13139
1361716;10557
1361724;7204
1361732;5871
1361744;14283
1361752;16201
1361760;15320
1361768;14602
1361776;14014
1361785;13869
1361793;13501
1361801;13393
1361809;13241
1361817;13198
1361826;13080
1361834;13064
1361842;12963
1361850;12953
1361858;12856
1361866;12787
1361875;12652
1361883;12551
1361891;12398
1361899;12211
1361907;11996
1361916;11781
1361924;11618
1361932;11502
1361940;11547
1361948;11625
1361957;11803
1361965;12004
1361973;12380
1361981;12743
1361989;13225
1361998;13568
1362006;13962
1362015;14109
1362023;14289
1362033;14432
1362042;14448
1362050;14466
1362058;14353
1362067;14342
1362075;14256
1362084;14202
1362092;14075
1362100;14055
1362108;14010
1362116;13981
1362125;13959
1362133;13919
1362141;13956
1362149;13967
1362157;13999
1362166;13941
1362174;13985
1362182;13920
1362190;14032
1362198;13960
1362206;13994
1362215;13878
1362223;13877
1362231;13652
1362239;13649
1362247;13518
1362256;13648
1362264;13511
1362272;13596
1362280;13500
1362288;13698
1362297;13649
1362305;13795
1362316;13768
1362324;13802
1362332;13758
1362341;13739
1362349;13671
1362357;13623
1362365;14016
1362373;13944
1362383;11352
1362391;7187
1362399;4931
1362407;9898
1362415;15419
1362424;15600
1362432;14917
1362440;14686
1362448;14396
1362456;14277
1362465;14029
1362473;14082
1362481;13912
1362489;13987
1362497;13810
1362505;13888
1362514;13696
1362522;13722
1362530;13492
1362538;13573
1362546;13291
1362555;13292
1362563;12976
1362571;12911
1362579;12479
1362587;12393
1362599;12219
1362607;12315
1362615;12232
1362623;12355
1362631;12448
1362640;12803
1362648;13135
1362656;13626
1362664;13885
1362672;14276
1362681;14387
1362689;14619
1362698;14542
1362706;14661
1362714;14507
1362723;14643
1362731;14479
1362739;14556
1362747;14338
1362755;14451
1362764;14287
1362772;14406
1362780;14189
1362788;14273
1362796;14070
1362804;14210
1362813;14027
1362821;14174
1362829;13962
1362837;14123
1362845;13924
1362854;14033
1362862;13819
1362870;13980
1362881;13771
1362889;13728
1362898;13434
1362906;13527
1362914;13405
1362922;13490
1362930;13322
1362939;13449
1362947;13363
1362955;13630
1362963;13521
1362971;13636
1362980;13461
1362988;13542
1362996;13356
1363004;13462
1363013;13287
1363022;13352
1363030;13648
1363038;13514
1363046;10678
1363054;6742
1363063;4913
1363071;10707
1363079;15178
1363087;15107
1363095;14274
1363103;14132
1363112;13827
1363120;13755
1363128;13438
1363136;13498
1363144;13290
1363153;13367
1363164;13190
1363172;13322
1363180;13113
1363188;13123
1363197;12798
1363205;12819
1363213;12579
1363221;12620
1363229;12272
1363238;12235
1363246;11849
1363254;11811
1363262;11543
1363270;11703
1363279;11695
1363287;11987
1363295;11948
1363303;12439
1363311;12702
1363320;13305
1363328;13524
1363336;13983
1363345;14098
1363353;14378
1363362;14300
1363370;14376
1363378;14260
1363386;14366
1363394;14216
1363402;14369
1363411;14152
1363419;14316
1363427;14193
1363435;14274
1363443;14138
1363455;14371
1363463;14298
1363471;14406
1363479;14256
1363487;14444
1363496;14274
1363504;14415
1363512;14242
1363520;14380
1363528;14217
1363537;14322
1363545;14123
1363553;14206
1363561;13895
1363569;13867
1363578;13573
1363586;13695
1363594;13530
1363602;13706
1363610;13577
1363619;13801
1363627;13681
1363635;13907
1363643;13731
1363651;13878
1363661;13683
1363669;13846
1363677;13682
1363685;13805
1363693;13633
1363702;13700
1363710;14069
1363718;13682
1363726;10867
1363737;6550
1363746;7328
1363754;14507
1363762;15760
1363770;15294
1363778;14485
1363786;14419
1363795;14028
1363803;13951
1363811;13688
1363819;13798
1363827;13575
1363836;13679
1363844;13481
1363852;13559
1363860;13339
1363868;13397
1363877;13205
1363885;13213
1363893;12957
1363901;12913
1363909;12599
1363918;12453
1363926;12144
1363934;12091
1363942;11886
1363950;11997
1363959;11900
1363967;12077
1363976;12126
1363984;12468
1363992;12791
1364001;13238
1364009;13528
1364020;14137
1364028;14244
1364036;14512
1364045;14400
1364053;14566
1364061;14425
1364069;14504
1364077;14354
1364086;14432
1364094;14271
1364102;14398
1364110;14229
1364118;14250
1364126;14122
1364135;14228
1364143;14111
1364151;14186
1364159;14059
1364167;14126
1364176;14040
1364184;14160
1364192;14055
1364200;14113
1364208;14010
1364217;14101
1364225;14051
1364233;14142
1364241;14031
1364249;14028
1364258;13791
1364266;13752
1364274;13704
1364282;13742
1364291;13721
1364302;13872
1364310;13857
1364318;14014
1364326;13917
1364334;13978
1364344;13800
1364352;13865
1364360;13693
1364368;13802
1364376;13673
1364385;13691
1364393;13507
1364401;14126
1364409;12912
1364417;9794
1364425;6914
1364434;7436
1364442;14399
1364450;16084
1364458;15322
1364466;14733
1364475;14306
1364483;14146
1364491;13829
1364499;13729
1364507;13599
1364516;13541
1364524;13468
1364532;13422
1364540;13361
1364548;13339
1364557;13277
1364565;13160
1364573;13054
1364584;12960
1364592;12768
1364601;12665
1364609;12311
1364617;12174
1364625;11853
1364633;11851
1364642;11755
1364650;11944
1364659;12004
1364667;12288
1364675;12534
1364684;12978
1364692;13297
1364700;13711
1364708;13938
1364716;14184
1364724;14201
1364733;14290
1364741;14314
1364749;14350
1364757;14275
1364765;14265
1364774;14215
1364782;14155
1364790;14100
1364798;14027
1364806;13989
1364815;13926
1364823;13890
1364831;13866
1364839;13864
1364847;13806
1364856;13861
1364864;13791
1364875;13840
1364883;14012
1364891;13907
1364900;13944
1364908;13832
1364916;13871
1364924;13796
1364932;13842
1364941;13798
1364949;13809
1364957;13732
1364965;13601
1364974;13456
1364983;13461
1364991;13434
1364999;13451
1365007;13479
1365015;13547
1365023;13650
1365032;13731
1365040;13776
1365048;13727
1365056;13737
1365064;13667
1365073;13638
1365081;13536
1365089;13535
1365097;13408
1365105;13993
1365114;13019
1365122;10019
1365130;6652
1365138;6741
1365146;13456
1365158;15812
1365166;15219
1365174;14570
1365182;14393
1365190;14089
1365199;13952
1365207;13854
1365215;13821
1365223;13784
1365231;13765
1365240;13698
1365248;13663
1365256;13562
1365264;13460
1365272;13331
1365281;13139
1365289;13006
1365297;12793
1365306;12622
1365314;12369
1365322;12170
1365331;11933
1365339;11856
1365347;11762
1365355;11863
1365363;11886
1365372;12133
1365380;12352
1365388;12808
1365396;13128
1365404;13552
1365413;13720
1365421;13983
1365429;13993
1365440;14155
1365448;14235
1365457;14190
1365465;14191
1365473;14125
1365481;14101
1365489;14101
1365498;14074
1365506;14053
1365514;14021
1365522;14042
1365530;13994
1365539;14020
1365547;13990
1365555;14021
1365563;13913
1365571;14006
1365580;13931
1365588;13992
1365596;13949
1365604;13934
1365612;13872
1365620;13883
1365630;13751
1365638;13795
1365646;13700
1365654;13756
1365662;13636
1365671;13665
1365679;13467
1365687;13443
1365695;13174
1365703;13210
1365712;13115
1365723;13296
1365731;13377
1365739;13406
1365747;13485
1365756;13558
1365764;13516
1365772;13418
1365780;13304
1365788;13246
1365797;13195
1365805;13166
1365813;13076
1365821;13020
1365829;13545
1365838;13123
1365846;10035
1365854;5804
1365862;4275
1365870;10664
1365879;14982
1365887;14855
1365895;14308
1365903;14206
1365911;14088
1365919;14044
1365928;13932
1365936;13910
1365945;13773
1365953;13826
1365961;13677
1365970;13719
1365978;13543
1365986;13512
1365994;13254
1366006;13149
1366014;13002
1366022;12802
1366030;12510
1366038;12300
1366046;12026
1366055;11847
1366063;11694
1366071;11685
1366079;11684
1366087;11912
1366096;12054
1366104;12419
1366112;12632
1366120;13047
1366128;13269
1366137;13679
1366145;13902
1366153;14248
1366161;14332
1366169;14516
1366178;14471
1366186;14558
1366194;14449
1366202;14480
1366210;14333
1366218;14415
1366227;14313
1366235;14350
1366243;14253
1366251;14342
1366259;14278
1366269;14408
1366277;14294
1366285;14372
1366295;14317
1366303;14360
1366312;14270
1366320;14295
1366328;14201
1366337;14225
1366345;14129
1366354;14150
1366362;14073
1366370;14122
1366378;13984
1366386;13927
1366395;13665
1366403;13697
1366411;13575
1366419;13639
1366427;13576
1366436;13720
1366444;13705
1366452;13901
1366460;13891
1366468;13993
1366477;13856
1366485;13926
1366493;13840
1366501;13942
1366509;13803
1366518;13819
1366526;13998
1366534;14238
1366542;11847
1366550;7861
1366558;5287
1366567;10000
1366578;16044
1366586;15606
1366594;14806
1366602;14548
1366611;14273
1366619;14115
1366627;13831
1366636;13775
1366644;13552
1366653;13600
1366661;13362
1366669;13403
1366677;13199
1366685;13258
1366694;13034
1366702;13038
1366710;12799
1366718;12839
1366726;12579
1366735;12574
1366743;12243
1366751;12242
1366759;11896
1366767;11979
1366776;11894
1366784;12156
1366792;12226
1366800;12651
1366808;12900
1366817;13443
1366825;13703
1366833;14164
1366841;14304
1366849;14634
1366861;14694
1366869;14942
1366877;14848
1366885;14973
1366893;14825
1366902;14934
1366910;14772
1366918;14861
1366926;14612
1366935;14680
1366943;14496
1366952;14596
1366960;14402
1366968;14536
1366976;14383
1366984;14474
1366993;14293
1367001;14451
1367009;14278
1367017;14371
1367025;14218
1367034;14283
1367042;13936
1367050;13905
1367058;13640
1367066;13739
1367075;13559
1367083;13721
1367091;13581
1367099;13771
1367107;13701
1367116;13863
1367124;13739
1367132;13829
1367143;13761
1367151;13901
1367160;13708
1367168;13804
1367176;13579
1367184;14260
1367192;13164
1367201;10130
1367209;6828
1367217;6961
1367225;14231
1367233;16392
1367242;15508
1367251;14970
1367259;14412
1367267;14394
1367275;13964
1367283;13904
1367292;13683
1367300;13737
1367308;13530
1367316;13627
1367324;13451
1367333;13469
1367341;13207
1367349;13219
1367357;12956
1367365;12866
1367374;12517
1367382;12413
1367390;12043
1367398;11958
1367406;11698
1367415;11732
1367426;11658
1367434;11916
1367442;11857
1367450;12172
1367459;12272
1367467;12862
1367475;13146
1367483;13660
1367491;13836
1367500;14188
1367508;14167
1367516;14342
1367524;14236
1367532;14399
1367540;14292
1367549;14386
1367557;14212
1367566;14296
1367574;14108
1367582;14173
1367591;13993
1367599;14017
1367607;13850
1367615;13962
1367623;13848
1367632;13980
1367640;13887
1367648;13938
1367656;13826
1367664;13765
1367673;13575
1367681;13603
1367689;13523
1367697;13551
1367708;13640
1367717;13855
1367725;13795
1367733;13931
1367741;13830
1367749;13953
1367758;13796
1367766;13887
1367774;13776
1367782;13846
1367790;13691
1367799;13771
1367807;13989
1367815;13916
1367823;11397
1367831;7763
1367839;5716
1367848;11054
1367856;16027
1367864;15699
1367872;14956
1367880;14507
1367889;14222
1367898;14029
1367906;13760
1367914;13721
1367922;13590
1367931;13593
1367939;13468
1367947;13433
1367955;13331
1367963;13269
1367972;13113
1367980;13035
1367988;12926
1367999;12839
1368007;12573
1368016;12392
1368024;11994
1368032;11889
1368040;11648
1368048;11799
1368057;11791
1368065;11989
1368073;12108
1368081;12523
1368089;12878
1368098;13409
1368106;13717
1368114;14089
1368122;14184
1368130;14369
1368138;14370
1368147;14412
1368155;14372
1368163;14408
1368171;14313
1368179;14283
1368188;14204
1368196;14172
1368204;14032
1368213;13984
1368221;13901
1368230;13886
1368238;13905
1368246;13891
1368254;13907
1368262;13896
1368271;13878
1368282;13966
1368290;13789
1368298;13708
1368306;13536
1368315;13610
1368323;13535
1368331;13674
1368339;13638
1368347;13764
1368356;13780
1368364;13863
1368372;13791
1368380;13828
1368388;13781
1368397;13772
1368405;13714
1368413;13687
1368421;13601
1368429;13636
1368438;14163
1368446;12900
1368454;9314
1368462;5825
1368470;6488
1368478;14285
1368487;15840
1368495;15249
1368503;14701
1368511;14445
1368519;14308
1368528;13998
1368537;13881
1368545;13737
1368553;13736
1368563;13699
1368572;13579
1368581;13515
1368589;13352
1368597;13302
1368605;13117
1368614;13025
1368622;12817
1368630;12660
1368638;12440
1368646;12245
1368655;11960
1368663;11824
1368671;11805
1368679;11834
1368687;11902
1368696;12100
1368704;12346
1368712;12746
1368720;13193
1368728;13552
1368737;13901
1368745;14058
1368753;14217
1368761;14233
1368769;14286
1368777;14242
1368786;14254
1368794;14189
1368802;14191
1368810;14058
1368818;14057
1368827;13985
1368835;14002
1368846;14027
1368854;14011
1368862;14009
1368871;13975
1368879;14018
1368887;13969
1368895;14010
1368904;13989
1368913;13954
1368921;13919
1368929;13761
1368937;13647
1368945;13575
1368954;13589
1368962;13559
1368970;13618
1368978;13650
1368986;13747
1368995;13811
1369003;13889
1369011;13811
1369019;13875
1369027;13884
1369036;13950
1369044;13837
1369052;13893
1369060;13760
1369068;13868
1369076;14309
1369085;12813
1369093;8770
1369101;5160
1369109;6571
1369117;14488
1369126;15637
1369137;15064
1369145;14757
1369153;14564
1369161;14279
1369170;14155
1369178;14030
1369186;13938
1369194;13810
1369202;13737
1369212;13606
1369220;13529
1369228;13426
1369236;13371
1369244;13178
1369253;13085
1369261;12871
1369269;12739
1369277;12513
1369285;12341
1369294;12038
1369302;11949
1369310;11806
1369318;11916
1369326;11914
1369335;12173
1369343;12322
1369351;12792
1369359;13140
1369367;13655
1369375;13854
1369384;14163
1369392;14249
1369400;14450
1369408;14380
1369420;14497
1369428;14546
1369436;14538
1369444;14452
1369452;14441
1369460;14354
1369469;14355
1369477;14236
1369485;14208
1369493;14113
1369501;14148
1369510;14070
1369518;14096
1369527;13963
1369535;14001
1369543;13924
1369552;14042
1369560;13988
1369568;14084
1369576;14026
1369584;14071
1369593;13801
1369601;13729
1369609;13578
1369617;13668
1369625;13555
1369634;13687
1369642;13580
1369650;13743
1369658;13712
1369666;13865
1369674;13746
1369683;13860
1369691;13751
1369702;13856
1369710;13848
1369719;13816
1369727;13651
1369735;13987
1369743;14071
1369751;11923
1369759;7612
1369768;4798
1369776;8499
1369784;15258
1369792;15559
1369800;15063
1369809;14507
1369817;14428
1369825;14078
1369833;14008
1369841;13803
1369850;13820
1369859;13619
1369867;13640
1369875;13439
1369883;13502
1369892;13298
1369900;13354
1369908;13153
1369916;13162
1369924;12865
1369933;12789
1369941;12423
1369949;12309
1369957;11977
1369965;11929
1369974;11733
1369985;11943
1369993;12032
1370001;12282
1370009;12486
1370018;12949
1370026;13237
1370034;13676
1370042;13895
1370050;14239
1370058;14261
1370067;14415
1370075;14305
1370083;14432
1370091;14270
1370099;14333
1370108;14184
1370116;14238
1370124;14100
1370132;14179
1370140;14025
1370149;14071
1370157;13935
1370165;14035
1370173;13886
1370182;14017
1370191;13935
1370199;14042
1370207;13908
1370215;13983
1370223;13859
1370232;13996
1370240;13879
1370248;13913
1370256;13703
1370267;13660
1370276;13594
1370284;13698
1370292;13606
1370300;13706
1370308;13624
1370317;13809
1370325;13831
1370333;13979
1370341;13813
1370349;13889
1370358;13735
1370366;13824
1370374;13692
1370382;13793
1370390;13603
1370398;13871
1370407;14170
1370415;12437
1370423;8178
1370431;4999
1370439;7483
1370448;14973
1370456;15611
1370464;15203
1370472;14563
1370480;14532
1370489;14155
1370497;14049
1370505;13827
1370514;13848
1370522;13666
1370531;13721
1370539;13570
1370547;13628
1370557;13519
1370566;13629
1370575;13369
1370583;13368
1370591;13092
1370599;13003
1370607;12638
1370616;12476
1370624;12103
1370632;12059
1370640;11845
1370648;11962
1370657;11920
1370665;12197
1370673;12340
1370681;12806
1370689;13100
1370697;13576
1370706;13805
1370714;14151
1370722;14177
1370730;14378
1370738;14299
1370747;14378
1370755;14261
1370763;14318
1370771;14144
1370779;14158
1370788;14022
1370796;14040
1370804;13910
1370812;13918
1370820;13829
1370830;13858
1370840;13835
1370848;14027
1370856;13861
1370864;13982
1370873;13731
1370881;13813
1370890;13714
1370898;13875
1370906;13725
1370915;13872
1370923;13714
1370931;13796
1370939;13544
1370947;13529
1370956;13365
1370964;13522
1370972;13382
1370980;13477
1370988;13365
1370996;13573
1371005;13532
1371013;13640
1371021;13480
1371029;13515
1371037;13374
1371046;13400
1371054;13330
1371062;13390
1371070;13258
1371078;13496
1371087;13743
1371095;11819
1371103;7713
1371111;4793
1371122;11169
1371131;15780
1371139;15463
1371147;14976
1371155;14579
1371163;14574
1371172;14188
1371180;14211
1371188;13993
1371196;14044
1371205;13831
1371214;13867
1371222;13673
1371230;13706
1371238;13483
1371246;13413
1371255;13179
1371263;13157
1371271;12929
1371279;12826
1371287;12567
1371295;12446
1371304;12184
1371312;12100
1371320;12033
1371328;12068
1371336;12137
1371345;12316
1371353;12567
1371361;12896
1371369;13335
1371377;13707
1371386;14092
1371394;14261
1371405;14517
1371413;14726
1371421;14551
1371430;14623
1371438;14481
1371446;14473
1371454;14310
1371462;14334
1371471;14236
1371479;14265
1371487;14150
1371495;14104
1371503;14008
1371512;14001
1371520;13939
1371529;13906
1371537;13876
1371545;13861
1371554;13927
1371562;13924
1371570;13905
1371578;13850
1371586;13914
1371594;13874
1371603;13943
1371611;13857
1371619;13928
1371627;13816
1371635;13857
1371644;13616
1371652;13688
1371660;13615
1371668;13766
1371676;13656
1371688;13838
1371696;14006
1371704;14032
1371712;14140
1371720;14074
1371729;14028
1371737;13925
1371745;13918
1371753;13865
1371761;13796
1371770;13740
1371778;13964
1371786;14139
1371794;12012
1371802;8005
1371811;5173
1371819;8637
1371827;15141
1371835;15576
1371844;14868
1371853;14446
1371861;14196
1371869;14002
1371877;13808
1371885;13758
1371894;13528
1371902;13521
1371910;13279
1371918;13295
1371926;13091
1371934;13116
1371943;12878
1371951;12959
1371959;12686
1371967;12717
1371978;12463
1371987;12311
1371995;12051
1372003;11814
1372011;11658
1372019;11634
1372028;11630
1372036;11735
1372044;11844
1372052;12164
1372060;12477
1372069;12972
1372077;13329
1372085;13731
1372093;13896
1372101;14141
1372110;14155
1372118;14315
1372126;14220
1372134;14299
1372142;14151
1372151;14243
1372159;14095
1372168;14231
1372176;14070
1372184;14260
1372193;14108
1372201;14181
1372209;14027
1372217;14178
1372225;13999
1372233;14165
1372242;13973
1372250;14124
1372261;14075
1372269;14108
1372278;13999
1372286;14005
1372294;13932
1372302;14035
1372310;13976
1372318;14056
1372327;13910
1372335;13918
1372343;13650
1372351;13750
1372359;13706
1372368;13869
1372376;13762
1372384;13943
1372392;13904
1372400;14177
1372409;14062
1372417;14193
1372425;14023
1372433;14154
1372441;13970
1372450;14099
1372458;13901
1372466;13990
1372475;14160
1372483;14166
1372492;11578
1372500;7942
1372508;5899
1372516;11266
1372524;16125
1372532;15975
1372544;14996
1372552;14762
1372560;14443
1372568;14242
1372577;13947
1372585;13938
1372593;13721
1372601;13737
1372609;13502
1372617;13551
1372626;13300
1372634;13333
1372642;13078
1372650;13137
1372658;12861
1372667;12903
1372675;12569
1372683;12525
1372691;12091
1372699;12066
1372708;11780
1372716;11903
1372724;11783
1372732;12082
1372740;12098
1372749;12551
1372757;12695
1372765;13251
1372773;13424
1372781;13900
1372790;13974
1372799;14321
1372807;14218
1372815;14439
1372825;14420
1372834;14602
1372842;14406
1372851;14488
1372859;14232
1372867;14293
1372876;14115
1372884;14195
1372892;13969
1372900;14094
1372908;13904
1372916;14065
1372925;13891
1372933;14061
1372941;13881
1372949;14084
1372957;13997
1372966;14233
1372974;14031
1372982;14103
1372990;13820
1372998;13917
1373007;13766
1373015;14008
1373023;13899
1373031;14169
1373039;14075
1373048;14353
1373056;14192
1373064;14369
1373072;14204
1373080;14327
1373089;14126
1373097;14278
1373108;14112
1373116;14203
1373124;14226
1373133;14425
1373141;12117
1373149;8582
1373157;6260
1373165;10642
1373175;16267
1373183;16246
1373191;15392
1373199;14956
1373207;14485
1373215;14443
1373224;14021
1373232;14054
1373240;13767
1373248;13860
1373256;13610
1373265;13729
1373273;13463
1373281;13564
1373289;13292
1373297;13342
1373306;13043
1373314;13078
1373322;12740
1373330;12683
1373338;12330
1373347;12233
1373355;11866
1373363;11915
1373371;11814
1373379;12027
1373388;12029
1373399;12567
1373407;12824
1373415;13431
1373423;13660
1373432;14166
1373440;14176
1373448;14500
1373456;14401
1373464;14565
1373473;14392
1373481;14574
1373490;14361
1373498;14472
1373506;14202
1373514;14319
1373523;14066
1373531;14158
1373539;13885
1373547;13992
1373555;13812
1373564;13929
1373572;13752
1373580;13887
1373588;13746
1373596;13881
1373605;13724
1373613;13810
1373621;13668
1373629;13668
1373637;13427
1373646;13435
1373654;13303
1373662;13342
1373670;13308
1373681;13597
1373690;13515
1373698;13789
1373706;13607
1373714;13785
1373722;13570
1373731;13741
1373739;13504
1373747;13655
1373755;13443
1373763;13525
1373772;13868
1373780;13646
1373788;10854
1373796;7134
1373804;5139
1373812;11169
1373822;15574
1373830;15465
1373838;14717
1373846;14381
1373854;14109
1373863;13912
1373871;13647
1373879;13653
1373887;13526
1373895;13549
1373904;13392
1373912;13345
1373920;13234
1373928;13238
1373936;13110
1373945;13043
1373953;12851
1373964;12808
1373972;12503
1373980;12429
1373989;11986
1373997;11915
1374005;11646
1374013;11792
1374021;11729
1374030;11999
1374038;12041
1374046;12512
1374054;12781
1374062;13290
1374071;13521
1374079;13943
1374087;14041
1374095;14273
1374103;14253
1374111;14366
1374120;14265
1374128;14324
1374137;14267
1374145;14286
1374153;14184
1374162;14156
1374170;14080
1374178;14102
1374186;14030
1374194;13991
1374203;13933
1374211;13879
1374219;13827
1374227;13783
1374235;13796
1374247;13919
1374255;13857
1374263;13961
1374271;13779
1374279;13769
1374288;13637
1374296;13752
1374304;13577
1374312;13587
1374320;13396
1374329;13513
1374337;13503
1374345;13661
1374353;13640
1374361;13789
1374370;13791
1374378;13851
1374386;13784
1374394;13856
1374402;13825
1374410;13821
1374419;13720
1374427;13635
1374436;14256
1374444;13709
1374452;10739
1374461;6539
1374469;5133
1374477;11457
1374485;15613
1374493;15440
1374502;14910
1374510;14547
1374518;14396
1374529;14154
1374537;13937
1374546;13939
1374554;13772
1374562;13762
1374570;13554
1374578;13566
1374587;13435
1374595;13393
1374603;13272
1374611;13228
1374619;13031
1374628;12852
1374636;12632
1374644;12397
1374652;12160
1374660;11942
1374669;11814
1374677;11781
1374685;11856
1374693;11914
1374701;12137
1374710;12427
1374718;12873
1374726;13274
1374734;13706
1374742;13913
1374750;14143
1374759;14211
1374768;14355
1374776;14262
1374784;14337
1374792;14168
1374801;14245
1374809;14072
1374820;14156
1374828;14243
1374836;14154
1374845;14146
1374853;14074
1374861;14075
1374869;14034
1374877;14009
1374886;13983
1374894;13970
1374902;13965
1374910;13964
1374918;14014
1374927;13968
1374935;13970
1374943;13896
1374951;13961
1374959;13859
1374968;13844
1374976;13591
1374984;13598
1374992;13504
1375000;13614
1375009;13504
1375017;13593
1375025;13520
1375033;13731
1375041;13701
1375049;13847
1375058;13701
1375066;13887
1375074;13748
1375083;13883
1375091;13711
1375102;13786
1375110;14378
1375118;14049
1375126;11347
1375135;7183
1375144;5234
1375152;10784
1375160;15609
1375168;15684
1375176;15004
1375185;14720
1375193;14459
1375201;14266
1375209;14040
1375217;14059
1375226;13870
1375234;13879
1375242;13715
1375250;13777
1375258;13571
1375267;13584
1375275;13366
1375283;13370
1375291;13076
1375299;13072
1375308;12753
1375316;12678
1375324;12262
1375332;12212
1375340;11889
1375348;11984
1375357;11839
1375365;12091
1375373;12048
1375393;13261
1375401;13739
1375409;13950
1375417;14238
1375425;14323
1375433;14520
1375442;14450
1375451;14558
1375459;14419
1375467;14442
1375475;14274
1375484;14332
1375492;14123
1375500;14184
1375508;14022
1375516;14127
1375525;13927
1375533;14015
1375541;13823
1375549;13946
1375557;13759
1375566;13893
1375574;13737
1375582;13915
1375590;13742
1375598;13910
1375607;13721
1375615;13914
1375623;13769
1375631;13906
1375639;13703
1375647;13724
1375656;13489
1375664;13619
1375675;13529
1375683;13680
1375692;13534
1375700;13626
1375708;13574
1375716;13736
1375724;13594
1375732;13693
1375741;13505
1375749;13649
1375758;13465
1375766;13572
1375774;13418
1375783;13739
1375791;14007
1375799;12508
1375807;8461
1375815;5287
1375824;7246
1375832;14631
1375840;15437
1375848;15070
1375856;14367
1375865;14325
1375873;13883
1375881;13921
1375889;13684
1375897;13808
1375906;13586
1375914;13698
1375922;13442
1375930;13549
1375938;13274
1375946;13374
1375958;13156
1375966;13263
1375974;12972
1375982;12958
1375991;12555
1375999;12453
1376007;12049
1376015;12053
1376023;11813
1376031;11993
1376040;11881
1376048;12174
1376056;12230
1376064;12788
1376072;13048
1376081;13627
1376089;13815
1376098;14234
1376106;14211
1376114;14431
1376123;14253
1376131;14436
1376139;14258
1376147;14377
1376155;14159
1376164;14321
1376172;14114
1376180;14235
1376188;14003
1376196;14095
1376205;13892
1376213;14032
1376221;13865
1376229;14034
1376237;13905
1376249;14114
1376257;14026
1376265;14179
1376273;13987
1376281;14168
1376290;13978
1376298;14196
1376306;14007
1376314;14184
1376322;13949
1376330;14021
1376339;13661
1376347;13753
1376355;13535
1376363;13726
1376371;13529
1376380;13709
1376388;13595
1376396;13851
1376405;13752
1376413;13976
1376422;13782
1376430;13911
1376438;13725
1376446;13869
1376454;13631
1376463;13679
1376471;13867
1376479;14058
1376487;11686
1376495;7854
1376504;5315
1376512;9783
1376520;15390
1376531;15624
1376539;14897
1376548;14760
1376556;14338
1376564;14258
1376572;13951
1376580;14025
1376589;13787
1376597;13890
1376605;13645
1376613;13755
1376621;13473
1376630;13538
1376638;13275
1376646;13337
1376654;13116
1376662;13166
1376670;12857
1376679;12843
1376687;12507
1376695;12420
1376703;12123
1376711;12176
1376720;12054
1376728;12235
1376737;12266
1376745;12600
1376753;12804
1376762;13274
1376770;13514
1376778;13878
1376786;14012
1376794;14199
1376803;14206
1376814;14375
1376822;14293
1376830;14430
1376838;14201
1376847;14306
1376855;14085
1376863;14182
1376871;13997
1376879;14107
1376888;13984
1376896;14119
1376904;14018
1376912;14101
1376920;14009
1376929;14103
1376937;13972
1376945;14057
1376953;13969
1376961;14078
1376969;13965
1376978;14017
1376986;13954
1376994;13987
1377002;13929
1377010;13940
1377019;13811
1377027;13708
1377035;13583
1377043;13664
1377052;13661
1377061;13666
1377069;13678
1377077;13750
1377085;13826
1377095;14043
1377105;13984
1377113;13996
1377121;13813
1377129;13830
1377137;13660
1377146;13619
1377154;13473
1377162;14003
1377170;13476
1377178;11023
1377187;7512
1377195;6281
1377203;12159
1377211;15940
1377219;15429
1377228;14726
1377236;14181
1377244;14036
1377252;13723
1377260;13609
1377268;13460
1377277;13404
1377285;13340
1377293;13330
1377301;13278
1377309;13246
1377318;13180
1377326;13110
1377334;13000
1377342;12895
1377350;12763
1377359;12556
1377368;12367
1377378;12186
1377386;11974
1377394;11894
1377403;11803
1377411;11942
1377420;11946
1377428;12187
1377436;12419
1377445;12836
1377453;13219
1377461;13624
1377469;13911
1377477;14169
1377486;14243
1377494;14312
1377502;14298
1377510;14317
1377518;14293
1377527;14289
1377535;14264
1377543;14221
1377551;14191
1377559;14145
1377567;14108
1377576;14028
1377584;13936
1377592;13856
1377600;13838
1377608;13765
1377617;13839
1377625;13836
1377633;13847
1377641;13810
1377649;13867
1377658;13828
1377669;13915
1377677;14030
1377685;13899
1377693;13883
1377702;13674
1377710;13619
1377718;13594
1377726;13606
1377735;13595
1377744;13583
1377752;13609
1377760;13670
1377768;13725
1377776;13709
1377785;13677
1377793;13675
1377801;13667
1377809;13640
1377817;13611
1377826;13539
1377834;13482
1377842;14003
1377850;12958
1377858;9782
1377866;6769
1377875;6916
1377883;14110
1377891;15815
1377899;15291
1377907;14562
1377916;14245
1377924;13981
1377932;13793
1377940;13568
1377951;13527
1377960;13564
1377968;13477
1377976;13432
1377984;13331
1377992;13232
1378001;13134
1378009;13029
1378017;12916
1378025;12743
1378033;12598
1378042;12416
1378050;12233
1378059;11977
1378067;11822
1378075;11750
1378084;11791
1378092;11835
1378100;12036
1378108;12212
1378116;12632
1378125;13046
1378133;13495
1378141;13844
1378149;14219
1378157;14344
1378166;14569
1378174;14558
1378182;14660
1378190;14594
1378198;14655
1378206;14519
1378215;14590
1378223;14451
1378234;14460
1378242;14414
1378250;14336
1378259;14274
1378267;14232
1378275;14140
1378283;14132
1378291;14074
1378300;14108
1378308;13996
1378316;14010
1378324;13970
1378332;14021
1378341;13979
1378349;14032
1378357;13961
1378365;13979
1378374;13827
1378383;13794
1378391;13569
1378399;13615
1378407;13527
1378415;13635
1378424;13570
1378432;13705
1378440;13692
1378448;13842
1378456;13830
1378465;13913
1378473;13769
1378481;13849
1378489;13724
1378497;13751
1378505;13597
1378517;13652
1378525;14180
1378533;13339
1378541;10307
1378550;6852
1378558;6229
1378566;13082
1378574;15763
1378582;15357
1378590;14583
1378599;14316
1378607;14030
1378615;13852
1378623;13652
1378631;13709
1378640;13580
1378648;13596
1378656;13435
1378664;13441
1378672;13271
1378681;13260
1378689;13086
1378697;13056
1378706;12826
1378714;12738
1378723;12428
1378731;12264
1378739;11935
1378747;11792
1378755;11535
1378764;11576
1378772;11529
1378780;11726
1378788;11802
1378799;12393
1378808;12824
1378816;13295
1378824;13576
1378832;13895
1378840;14023
1378849;14181
1378857;14135
1378865;14279
1378873;14200
1378881;14255
1378889;14124
1378898;14168
1378906;14075
1378914;14132
1378922;13996
1378930;14075
1378939;13929
1378947;14005
1378955;13893
1378963;13934
1378971;13823
1378980;13915
1378988;13775
1378996;13860
1379004;13766
1379012;13861
1379022;13749
1379030;13896
1379038;13817
1379046;13910
1379054;13761
1379063;13845
1379071;13644
1379079;13602
1379090;13534
1379098;13690
1379107;13619
1379115;13697
1379123;13648
1379131;13820
1379139;13837
1379148;13914
1379156;13784
1379164;13824
1379172;13680
1379180;13720
1379188;13583
1379197;13631
1379205;13488
1379213;14213
1379221;13176
1379229;10098
1379238;6485
1379246;6514
1379254;13479
1379262;15884
1379270;15266
1379279;14673
1379287;14319
1379295;14164
1379303;13821
1379311;13826
1379320;13667
1379328;13667
1379337;13492
1379345;13538
1379353;13443
1379362;13458
1379372;13303
1379380;13338
1379389;13101
1379397;13028
1379406;12716
1379414;12591
1379422;12256
1379430;12094
1379438;11789
1379447;11791
1379455;11707
1379463;11871
1379471;11923
1379479;12251
1379487;12469
1379496;12996
1379504;13353
1379512;13801
1379520;13990
1379528;14279
1379537;14294
1379545;14416
1379553;14369
1379561;14452
1379569;14361
1379578;14379
1379586;14280
1379594;14309
1379602;14172
1379610;14166
1379619;14059
1379627;14114
1379635;14021
1379643;14082
1379654;14019
1379663;14143
1379671;14014
1379679;14072
1379687;13967
1379695;14062
1379705;13962
1379713;14058
1379721;13972
1379729;14038
1379737;13929
1379746;13989
1379754;13896
1379762;13955
1379770;13786
1379778;13738
1379786;13513
1379795;13587
1379803;13523
1379811;13635
1379819;13588
1379827;13686
1379836;13702
1379844;13845
1379852;13844
1379860;13899
1379868;13819
1379877;13885
1379885;13805
1379893;13819
1379901;13715
1379909;13644
1379918;14093
1379926;13463
1379937;9320
1379945;6325
1379953;7365
1379962;14493
1379970;15685
1379978;15134
1379986;14377
1379994;14254
1380003;13933
1380012;13820
1380020;13625
1380028;13607
1380036;13450
1380045;13458
1380053;13372
1380061;13345
1380069;13184
1380077;13208
1380086;13062
1380094;13018
1380102;12851
1380110;12810
1380118;12603
1380126;12474
1380135;12223
1380143;12062
1380151;11917
1380159;11916
1380167;11958
1380176;12075
1380184;12156
1380192;12423
1380200;12802
1380208;13267
1380220;13861
1380228;14312
1380236;14373
1380244;14530
1380252;14466
1380261;14489
1380269;14406
1380277;14445
1380285;14319
1380293;14343
1380302;14232
1380311;14257
1380319;14135
1380327;14172
1380335;14073
1380344;14111
1380352;14077
1380360;14154
1380368;14126
1380376;14183
1380385;14109
1380393;14087
1380401;13993
1380409;13972
1380417;13855
1380425;13867
1380434;13738
1380442;13732
1380450;13654
1380458;13655
1380466;13618
1380475;13507
1380483;13373
1380491;13220
1380499;13116
1380510;13208
1380519;13215
1380527;13244
1380535;13177
1380543;13306
1380551;13287
1380560;13450
1380568;13426
1380576;13561
1380584;13516
1380592;13596
1380601;13493
1380609;13513
1380617;13365
1380625;13735
1380634;13650
1380643;11411
1380651;7404
1380659;5207
1380667;9465
1380675;15102
1380684;15149
1380692;14506
1380700;14061
1380708;13916
1380716;13609
1380724;13489
1380733;13417
