Tempo (ms);Valor
1200666;15002
1200675;14866
1200683;14990
1200691;14711
1200699;14770
1200707;14447
1200716;14521
1200724;14189
1200732;14307
1200740;13997
1200748;14089
1200756;13802
1200765;13969
1200773;13767
1200782;14008
1200790;13741
1200798;13896
1200807;13669
1200815;13783
1200823;13466
1200831;13624
1200839;13357
1200848;13555
1200856;13427
1200864;13690
1200872;13549
1200880;13936
1200889;13814
1200897;14000
1200905;13817
1200913;13960
1200921;13752
1200930;13935
1200941;13782
1200949;13970
1200957;13945
1200965;12770
1200974;9441
1200982;7356
1200990;8609
1200998;15778
1201006;16388
1201015;15772
1201023;14712
1201031;14564
1201039;14042
1201047;13984
1201055;13636
1201064;13766
1201072;13444
1201080;13591
1201088;13333
1201096;13454
1201105;13152
1201114;13224
1201122;12911
1201130;12990
1201138;12673
1201147;12726
1201155;12322
1201163;12307
1201171;11972
1201179;11995
1201188;11837
1201196;12068
1201204;12093
1201212;12352
1201220;12418
1201232;13105
1201240;13300
1201248;13830
1201256;13911
1201264;14333
1201273;14230
1201281;14527
1201289;14364
1201297;14529
1201305;14291
1201314;14413
1201322;14141
1201330;14259
1201338;14050
1201346;14183
1201354;13913
1201363;14020
1201371;13873
1201379;13994
1201387;13876
1201395;13977
1201404;13769
1201412;13819
1201420;13569
1201429;13626
1201437;13503
1201446;13626
1201454;13556
1201462;13725
1201470;13717
1201478;13915
1201487;13925
1201495;14046
1201503;13973
1201514;14131
1201522;13953
1201531;14163
1201539;13895
1201547;13931
1201555;13819
1201563;13491
1201572;11111
1201580;7996
1201588;6544
1201596;11814
1201604;16093
1201613;15829
1201621;14737
1201629;14318
1201637;13937
1201645;13775
1201654;13459
1201662;13483
1201670;13303
1201678;13360
1201686;13217
1201694;13244
1201703;13100
1201711;13089
1201719;12950
1201727;12890
1201735;12741
1201744;12610
1201753;12383
1201761;12201
1201769;11984
1201777;11798
1201786;11709
1201797;11931
1201805;11873
1201813;12195
1201821;12241
1201830;12662
1201838;12867
1201846;13430
1201854;13652
1201862;14084
1201871;14168
1201879;14422
1201887;14403
1201895;14534
1201903;14424
1201912;14464
1201920;14285
1201928;14280
1201936;14167
1201944;14164
1201953;14118
1201961;14108
1201969;13992
1201977;13969
1201985;13929
1201993;13923
1202002;13896
1202010;13878
1202018;13866
1202026;13758
1202034;13686
1202043;13501
1202051;13501
1202060;13479
1202068;13620
1202078;13772
1202087;13710
1202095;13867
1202104;13896
1202112;14087
1202120;13929
1202129;14032
1202137;13962
1202145;14042
1202153;13905
1202161;13961
1202170;13893
1202178;14163
1202186;12718
1202194;9414
1202202;6776
1202211;8668
1202219;15640
1202227;16452
1202235;15647
1202243;14842
1202252;14553
1202260;14191
1202268;13978
1202276;13783
1202284;13751
1202292;13591
1202301;13604
1202309;13436
1202317;13446
1202325;13249
1202333;13274
1202342;13057
1202350;13010
1202358;12739
1202369;12562
1202377;12469
1202386;12221
1202394;12045
1202402;11874
1202410;11856
1202418;11910
1202428;12062
1202436;12206
1202444;12428
1202452;12783
1202460;13167
1202469;13605
1202477;13909
1202485;14173
1202493;14226
1202501;14390
1202510;14318
1202518;14395
1202526;14265
1202534;14298
1202542;14147
1202551;14223
1202559;14012
1202567;14068
1202575;13888
1202583;14027
1202591;13875
1202600;14006
1202608;13829
1202616;13997
1202624;13818
1202632;13983
1202641;13781
1202652;13821
1202660;13669
1202668;13591
1202676;13587
1202685;13628
1202693;13622
1202701;13708
1202709;13741
1202717;13903
1202726;13965
1202735;14065
1202743;13971
1202751;14066
1202759;13931
1202768;14007
1202776;13844
1202784;13919
1202792;13774
1202800;13826
1202809;11877
1202817;8572
1202825;6431
1202833;10027
1202841;16039
1202850;16261
1202858;15193
1202866;14736
1202874;14272
1202882;14151
1202890;13736
1202899;13834
1202907;13592
1202915;13725
1202923;13431
1202935;13531
1202943;13408
1202951;13428
1202959;13244
1202967;13200
1202975;12890
1202984;12844
1202992;12549
1203000;12399
1203008;12016
1203016;11981
1203025;11723
1203033;11815
1203041;11741
1203050;12035
1203058;12066
1203067;12494
1203075;12651
1203083;13236
1203091;13452
1203099;13946
1203108;13969
1203116;14368
1203124;14246
1203132;14527
1203140;14320
1203149;14531
1203157;14234
1203165;14370
1203173;14098
1203181;14274
1203190;14022
1203198;14207
1203206;13960
1203217;14129
1203225;14068
1203234;14204
1203242;14029
1203250;14099
1203258;13913
1203266;13993
1203274;13694
1203283;13810
1203291;13647
1203299;13879
1203307;13702
1203315;13932
1203324;13793
1203332;14131
1203340;13972
1203348;14217
1203356;14002
1203365;14258
1203374;13987
1203382;14188
1203390;13905
1203398;14030
1203407;13989
1203415;13190
1203423;10261
1203431;8118
1203439;8126
1203448;14953
1203456;17279
1203464;16503
1203472;15250
1203480;14741
1203489;14217
1203500;14099
1203508;13748
1203516;13905
1203524;13577
1203533;13780
1203541;13413
1203549;13586
1203557;13223
1203565;13366
1203574;12961
1203582;13072
1203590;12653
1203598;12745
1203606;12228
1203614;12230
1203623;11708
1203631;11786
1203639;11476
1203647;11776
1203655;11570
1203664;11987
1203672;11939
1203680;12516
1203688;12623
1203696;13299
1203706;13454
1203714;13971
1203722;13952
1203730;14347
1203738;14238
1203747;14530
1203755;14364
1203763;14577
1203771;14316
1203779;14458
1203791;14181
1203799;14454
1203807;14065
1203815;14328
1203823;14015
1203832;14277
1203840;13988
1203848;14326
1203856;14029
1203864;14272
1203873;13942
1203881;14078
1203889;13693
1203897;13918
1203905;13643
1203913;13903
1203922;13730
1203930;14023
1203938;13832
1203946;14156
1203954;13937
1203963;14106
1203971;13850
1203979;14034
1203987;13768
1203995;13918
1204004;13677
1204012;13754
1204021;13666
1204029;12304
1204037;8947
1204046;7506
1204054;9789
1204062;16652
1204072;16399
1204081;15738
1204090;14620
1204098;14509
1204106;13946
1204114;13923
1204122;13559
1204131;13701
1204139;13376
1204147;13534
1204155;13274
1204163;13381
1204172;13103
1204180;13174
1204188;12876
1204196;12934
1204204;12556
1204212;12544
1204221;12095
1204229;12013
1204237;11656
1204245;11684
1204253;11524
1204262;11760
1204270;11751
1204278;12107
1204286;12278
1204294;12753
1204303;13106
1204311;13590
1204319;13823
1204327;14137
1204336;14232
1204345;14360
1204355;14377
1204363;14687
1204371;14432
1204380;14573
1204389;14305
1204397;14445
1204405;14172
1204413;14281
1204421;14004
1204430;14108
1204438;13892
1204446;14023
1204454;13826
1204462;14005
1204471;13882
1204479;14019
1204487;13887
1204495;14043
1204503;13975
1204511;14092
1204520;13963
1204528;13993
1204536;13719
1204544;13643
1204552;13499
1204561;13531
1204569;13465
1204577;13524
1204585;13492
1204593;13596
1204602;13708
1204610;13786
1204618;13783
1204626;13805
1204637;13714
1204646;13915
1204654;13683
1204662;13746
1204670;13890
1204678;12899
1204688;9571
1204696;6873
1204704;7609
1204712;14715
1204720;16266
1204729;15632
1204737;14640
1204745;14312
1204753;13951
1204761;13795
1204770;13618
1204778;13610
1204786;13449
1204794;13439
1204802;13360
1204810;13360
1204819;13259
1204827;13169
1204835;13058
1204843;12962
1204851;12831
1204860;12641
1204868;12444
1204876;12134
1204884;11939
1204892;11667
1204901;11657
1204909;11575
1204917;11707
1204928;11954
1204936;12093
1204945;12553
1204953;12841
1204961;13369
1204969;13650
1204977;14036
1204986;14100
1204994;14246
1205002;14222
1205011;14278
1205019;14231
1205028;14209
1205036;14091
1205044;14106
1205052;14040
1205060;13982
1205069;13943
1205077;13920
1205085;13930
1205093;13861
1205101;13895
1205110;13828
1205118;13850
1205126;13752
1205134;13818
1205142;13720
1205150;13835
1205159;13741
1205167;13852
1205175;13652
1205183;13693
1205191;13389
1205200;13483
1205211;13569
1205219;13606
1205227;13659
1205235;13659
1205244;13776
1205252;13876
1205260;13977
1205268;13961
1205276;13994
1205285;13989
1205293;13964
1205301;13938
1205309;13840
1205317;13852
1205327;13868
1205335;12318
1205343;8737
1205351;6545
1205359;9309
1205368;15842
1205376;16235
1205384;15486
1205392;14647
1205400;14494
1205409;14035
1205417;13973
1205425;13728
1205433;13791
1205441;13590
1205449;13689
1205458;13487
1205466;13591
1205474;13296
1205482;13363
1205494;13192
1205502;13082
1205510;12895
1205518;12705
1205526;12443
1205534;12153
1205543;11865
1205551;11781
1205559;11644
1205567;11751
1205575;11771
1205584;12038
1205592;12270
1205600;12797
1205608;13117
1205616;13700
1205625;13933
1205633;14325
1205641;14336
1205650;14563
1205658;14410
1205667;14579
1205675;14390
1205683;14546
1205691;14267
1205699;14424
1205708;14165
1205716;14308
1205724;14070
1205732;14248
1205740;13971
1205748;14158
1205757;13877
1205765;14072
1205776;13993
1205784;14120
1205793;14029
1205801;14118
1205809;13970
1205817;14078
1205825;13925
1205833;14073
1205842;13884
1205850;14043
1205858;13772
1205866;13803
1205874;13428
1205883;13574
1205891;13362
1205899;13583
1205907;13368
1205915;13602
1205924;13432
1205932;13738
1205940;13612
1205948;13860
1205956;13579
1205966;13818
1205974;13613
1205982;13827
1205990;13535
1205998;13668
1206007;13648
1206015;12630
1206023;9252
1206031;6935
1206039;8197
1206047;15126
1206059;16102
1206067;15340
1206075;14495
1206083;14322
1206092;13817
1206100;13789
1206108;13518
1206116;13644
1206124;13375
1206132;13496
1206141;13246
1206149;13421
1206157;13149
1206165;13274
1206173;12960
1206182;13066
1206190;12678
1206198;12724
1206206;12272
1206214;12277
1206223;11811
1206231;11857
1206239;11521
1206247;11795
1206255;11654
1206264;12091
1206272;12068
1206280;12662
1206288;12813
1206297;13516
1206306;13629
1206314;14200
1206322;14163
1206330;14543
1206338;14359
1206350;14703
1206358;14498
1206366;14677
1206374;14326
1206382;14565
1206391;14245
1206399;14442
1206407;14104
1206415;14351
1206423;13979
1206431;14223
1206440;13910
1206448;14207
1206456;13895
1206464;14162
1206472;13846
1206481;14141
1206489;13868
1206497;14191
1206505;13915
1206513;14211
1206522;13971
1206530;14218
1206538;13964
1206546;14200
1206554;13910
1206563;14046
1206571;13652
1206579;13710
1206587;13445
1206595;13666
1206604;13489
1206613;13723
1206621;13585
1206631;13974
1206639;13843
1206648;14179
1206657;13867
1206665;14137
1206673;13785
1206681;13990
1206690;13612
1206698;13784
1206706;13554
1206714;13634
1206722;11414
1206730;8371
1206739;6805
1206747;11090
1206755;16027
1206763;16157
1206771;14952
1206780;14564
1206788;14011
1206796;13937
1206804;13565
1206812;13728
1206821;13440
1206829;13594
1206837;13324
1206845;13464
1206853;13235
1206862;13318
1206870;13100
1206878;13173
1206886;12889
1206894;12863
1206903;12594
1206914;12564
1206922;12047
1206930;12036
1206938;11570
1206947;11795
1206955;11548
1206963;11890
1206971;11770
1206980;12284
1206989;12402
1206997;13106
1207005;13304
1207013;13892
1207021;13946
1207030;14348
1207038;14209
1207046;14476
1207054;14279
1207062;14470
1207070;14214
1207079;14345
1207087;14093
1207095;14255
1207103;14066
1207111;14154
1207120;13974
1207128;14091
1207136;13974
1207144;14039
1207152;13918
1207161;13961
1207169;13857
1207177;13925
1207185;13833
1207196;14033
1207205;13838
1207213;14045
1207221;13762
1207229;13963
1207237;13740
1207246;13973
1207254;13760
1207262;13922
1207270;13606
1207279;13641
1207288;13406
1207296;13622
1207304;13516
1207312;13641
1207320;13516
1207329;13744
1207337;13723
1207345;13905
1207353;13784
1207361;13901
1207369;13768
1207378;13847
1207386;13704
1207394;13705
1207402;13721
1207410;13569
1207419;11622
1207427;8386
1207435;7113
1207443;11218
1207451;16328
1207460;16045
1207468;15084
1207479;14462
1207487;13963
1207495;13898
1207504;13501
1207512;13612
1207520;13348
1207528;13484
1207536;13233
1207545;13322
1207553;13071
1207561;13162
1207569;12900
1207577;12937
1207586;12661
1207594;12619
1207603;12323
1207611;12176
1207619;11867
1207628;11673
1207636;11441
1207644;11433
1207652;11446
1207660;11551
1207668;11695
1207677;11936
1207685;12389
1207693;12784
1207701;13244
1207709;13542
1207718;13915
1207726;14019
1207734;14236
1207742;14176
1207750;14347
1207759;14197
1207770;14203
1207778;14335
1207786;14136
1207794;14224
1207803;14022
1207811;14075
1207819;13944
1207827;14045
1207835;13965
1207844;14010
1207852;13978
1207860;14034
1207868;13977
1207876;14032
1207885;14024
1207893;13996
1207901;13989
1207909;13897
1207917;13959
1207927;13866
1207935;13939
1207943;13843
1207951;13960
1207959;13844
1207967;13914
1207976;13660
1207984;13662
1207992;13453
1208000;13668
1208008;13517
1208017;13692
1208025;13508
1208033;13805
1208041;13645
1208052;13889
1208061;14013
1208069;13883
1208077;13868
1208085;13786
1208093;13769
1208102;13704
1208110;13842
1208118;13414
1208126;11260
1208134;8157
1208143;7342
1208151;12291
1208159;16487
1208167;16138
1208175;15001
1208184;14496
1208192;14054
1208200;13903
1208208;13567
1208216;13686
1208225;13406
1208233;13559
1208241;13261
1208249;13455
1208258;13121
1208266;13297
1208275;12928
1208283;13090
1208291;12645
1208299;12841
1208307;12352
1208316;12410
1208324;11842
1208335;11785
1208343;11653
1208351;11665
1208360;11606
1208368;11742
1208376;11815
1208384;12165
1208392;12446
1208401;12996
1208409;13259
1208417;13763
1208425;13894
1208433;14210
1208442;14100
1208450;14357
1208458;14196
1208466;14433
1208474;14159
1208483;14376
1208491;14069
1208499;14293
1208507;13974
1208515;14246
1208524;13896
1208532;14176
1208540;13824
1208548;14107
1208556;13764
1208564;14126
1208574;13786
1208582;14185
1208590;13848
1208598;14220
1208606;13875
1208618;14208
1208626;14099
1208634;14224
1208642;14037
1208650;14140
1208659;13804
1208667;13800
1208675;13523
1208683;13784
1208691;13564
1208700;13777
1208708;13558
1208716;13860
1208724;13691
1208732;14049
1208741;13744
1208749;14048
1208757;13672
1208765;14033
1208773;13667
1208782;13902
1208790;13528
1208798;13766
1208806;11600
1208814;8676
1208823;6818
1208831;10994
1208839;16295
1208847;16462
1208855;15059
1208863;14672
1208872;14007
1208880;14098
1208888;13528
1208899;13766
1208908;13521
1208916;13701
1208924;13410
1208932;13599
1208940;13225
1208950;13420
1208958;13021
1208966;13209
1208974;12785
1208982;12943
1208990;12383
1208999;12457
1209007;11868
1209015;11990
1209023;11513
1209031;11858
1209040;11587
1209048;12082
1209056;11883
1209064;12511
1209072;12498
1209081;13272
1209089;13315
1209097;14071
1209105;13963
1209113;14518
1209122;14302
1209130;14738
1209138;14391
1209146;14753
1209154;14302
1209162;14608
1209171;14198
1209182;14536
1209190;14192
1209198;14413
1209207;14032
1209215;14336
1209223;13974
1209231;14318
1209239;13953
1209247;14313
1209257;13947
1209265;14303
1209273;13943
1209281;14377
1209289;13943
1209298;14258
1209306;13805
1209314;14010
1209322;13469
1209330;13768
1209339;13370
1209347;13768
1209355;13444
1209363;13860
1209371;13608
1209380;14059
1209388;13727
1209396;14100
1209404;13728
1209412;14045
1209421;13646
1209429;13968
1209437;13649
1209445;13939
1209453;13515
1209462;11989
1209473;7675
1209481;7834
1209489;13873
1209497;17411
1209506;16053
1209514;15379
1209522;14251
1209530;14353
1209538;13597
1209546;13799
1209555;13291
1209564;13634
1209572;13168
1209580;13500
1209588;12998
1209597;13287
1209605;12825
1209613;13144
1209621;12695
1209629;12935
1209638;12427
1209646;12603
1209654;12050
1209662;12160
1209670;11609
1209679;11821
1209687;11473
1209695;11760
1209703;11606
1209711;12030
1209720;11989
1209728;12588
1209736;12788
1209744;13410
1209755;13648
1209764;14381
1209772;14134
1209780;14601
1209788;14253
1209796;14710
1209805;14283
1209813;14637
1209821;14173
1209829;14459
1209837;13950
1209846;14270
1209854;13817
1209862;14127
1209870;13766
1209879;14129
1209887;13772
1209896;14078
1209904;13758
1209912;14104
1209920;13811
1209928;14125
1209937;13804
1209945;14034
1209953;13675
1209961;13762
1209969;13435
1209978;13684
1209986;13466
1209994;13683
1210002;13603
1210010;13841
1210019;13776
1210027;13921
1210038;13701
1210046;14148
1210054;13696
1210063;14060
1210071;13577
1210079;13890
1210087;13443
1210095;13856
1210104;11830
1210112;8917
1210120;6960
1210128;10182
1210136;16517
1210145;16756
1210153;15447
1210161;14753
1210169;14075
1210177;14019
1210185;13511
1210194;13567
1210202;13330
1210211;13439
1210219;13221
1210227;13285
1210236;13075
1210244;13097
1210252;12940
1210260;12969
1210268;12777
1210277;12704
1210285;12463
1210293;12297
1210301;12058
1210309;11852
1210321;11499
1210329;11881
1210337;11582
1210345;12047
1210353;11876
1210362;12430
1210370;12451
1210378;13189
1210386;13332
1210394;13958
1210403;13993
1210411;14422
1210419;14297
1210427;14588
1210435;14414
1210444;14580
1210452;14372
1210460;14442
1210468;14261
1210476;14347
1210484;14229
1210493;14251
1210501;14154
1210509;14198
1210517;14134
1210526;14136
1210535;14108
1210543;14055
1210551;14108
1210559;14068
1210567;14142
1210576;14064
1210584;14130
1210592;14062
1210603;14064
1210611;14315
1210620;14025
1210628;14168
1210636;13762
1210644;13809
1210652;13626
1210661;13822
1210669;13681
1210677;13789
1210685;13663
1210693;13842
1210702;13823
1210710;13915
1210718;13779
1210726;13760
1210734;13697
1210743;13664
1210751;13581
1210759;13511
1210767;13806
1210775;12954
1210783;10231
1210792;7023
1210800;7121
1210808;13512
1210816;16447
1210824;15632
1210833;14815
1210841;14148
1210849;14009
1210858;13498
1210866;13538
1210875;13237
1210883;13399
1210893;13345
1210902;13165
1210910;13206
1210919;13022
1210927;13019
1210935;12790
1210943;12719
1210951;12523
1210960;12403
1210968;12158
1210976;11975
1210984;11766
1210992;11584
1211001;11534
1211009;11468
1211017;11609
1211025;11685
1211033;11984
1211042;12169
1211050;12731
1211058;13015
1211066;13584
1211074;13720
1211082;14174
1211091;14141
1211099;14491
1211107;14313
1211115;14596
1211123;14314
1211132;14567
1211140;14217
1211148;14469
1211156;14107
1211165;14384
1211176;14252
1211184;14204
1211192;14214
1211200;14204
1211208;14163
1211218;14146
1211226;14096
1211234;14156
1211242;14088
1211250;14179
1211259;14006
1211267;14072
1211275;13759
1211283;13761
1211291;13517
1211300;13696
1211308;13474
1211316;13778
1211324;13631
1211332;13985
1211341;13833
1211349;14167
1211357;13880
1211365;14223
1211373;13915
1211382;14156
1211390;13751
1211398;13992
1211406;13721
1211414;13919
1211422;11610
1211431;8340
1211439;6153
1211447;11031
1211458;16510
1211466;15904
1211475;14819
1211483;14481
1211491;14019
1211499;13864
1211507;13561
1211516;13658
1211524;13405
1211533;13527
1211541;13244
1211549;13416
1211558;13063
1211566;13249
1211574;12895
1211582;13047
1211590;12591
1211599;12714
1211607;12188
1211615;12304
1211623;11718
1211631;11924
1211640;11464
1211648;11817
1211656;11472
1211664;11984
1211672;11783
1211681;12469
1211689;12430
1211697;13305
1211705;13328
1211713;14113
1211721;13945
1211730;14490
1211741;14340
1211749;14618
1211757;14424
1211766;14569
1211774;14286
1211782;14452
1211790;14182
1211798;14414
1211806;14073
1211815;14333
1211823;13996
1211832;14280
1211840;13914
1211848;14229
1211857;13850
1211865;14217
1211873;13849
1211881;14265
1211889;13846
1211898;14191
1211906;13634
1211914;13893
1211922;13339
1211930;13762
1211939;13312
1211947;13789
1211955;13389
1211963;13911
1211971;13600
1211980;14142
1211988;13685
1211996;14109
1212004;13668
1212012;14094
1212024;13703
1212032;13964
1212040;13528
1212048;14123
1212056;12540
1212065;9633
1212073;6335
1212081;8171
1212089;15103
1212097;16640
1212105;15332
1212114;14902
1212122;14161
1212130;14217
1212138;13577
1212146;13940
1212155;13407
1212164;13787
1212172;13320
1212180;13660
1212188;13091
1212197;13473
1212205;12959
1212213;13303
1212221;12720
1212229;13005
1212238;12366
1212246;12617
1212254;11950
1212262;12155
1212270;11579
1212279;11947
1212287;11519
1212295;12011
1212303;11743
1212314;12529
1212323;12539
1212331;13326
1212339;13354
1212347;14127
1212355;13952
1212364;14536
1212372;14196
1212380;14682
1212388;14244
1212396;14676
1212404;14187
1212413;14582
1212421;14089
1212429;14549
1212437;14044
1212445;14425
1212454;13911
1212462;14327
1212471;13899
1212479;14314
1212487;13850
1212496;14297
1212504;13860
1212512;14328
1212520;13924
1212528;14328
1212537;13897
1212545;14244
1212553;13734
1212561;13913
1212569;13515
1212578;13942
1212586;13666
1212597;14103
1212605;13791
1212613;14275
1212622;13948
1212630;14399
1212638;13960
1212646;14367
1212654;13867
1212663;14243
1212671;13789
1212679;14144
1212687;13787
1212695;13922
1212703;11429
1212712;8397
1212720;6564
1212728;12213
1212736;16874
1212744;16663
1212753;15169
1212761;14830
1212769;14200
1212777;14256
1212785;13718
1212794;13956
1212803;13571
1212811;13822
1212819;13421
1212827;13661
1212836;13294
1212844;13428
1212852;13036
1212860;13179
1212868;12786
1212880;12958
1212888;12392
1212896;12501
1212904;11840
1212912;12034
1212921;11454
1212929;11817
1212937;11508
1212945;12005
1212953;11803
1212962;12495
1212970;12477
1212978;13258
1212986;13314
1212994;13975
1213002;13930
1213011;14434
1213019;14201
1213027;14554
1213035;14242
1213043;14485
1213052;14148
1213060;14363
1213068;14090
1213076;14337
1213084;14002
1213093;14145
1213101;13917
1213109;14112
1213117;13902
1213126;14095
1213135;13933
1213143;14064
1213151;13908
1213161;14096
1213169;13619
1213179;13885
1213187;13513
1213195;13879
1213203;13557
1213211;13940
1213220;13648
1213228;14129
1213236;13887
1213244;14202
1213252;13877
1213261;14171
1213269;13814
1213277;14055
1213285;13730
1213293;13948
1213302;13790
1213310;13816
1213318;11457
1213326;8361
1213334;6972
1213342;11882
1213351;17153
1213359;16727
1213367;15563
1213375;14869
1213383;14404
1213392;14210
1213400;13899
1213408;13841
1213416;13692
1213424;13649
1213433;13572
1213444;13717
1213452;13316
1213460;13533
1213468;13046
1213477;13211
1213485;12706
1213493;12767
1213501;12266
1213510;12281
1213519;11755
1213527;11819
1213535;11450
1213543;11671
1213551;11532
1213560;11885
1213568;11911
1213576;12412
1213584;12638
1213592;13210
1213601;13463
1213609;13868
1213617;13992
1213625;14223
1213633;14199
1213641;14289
1213650;14272
1213658;14282
1213666;14225
1213674;14192
1213682;14148
1213691;14081
1213699;14055
1213707;13929
1213715;13936
1213723;13807
1213735;13701
1213743;13993
1213751;13721
1213759;13972
1213767;13748
1213776;13974
1213784;13774
1213792;13970
1213800;13820
1213808;13945
1213818;13641
1213826;13573
1213834;13426
1213842;13563
1213850;13500
1213859;13619
1213867;13588
1213875;13702
1213883;13810
1213891;13951
1213900;13984
1213908;13971
1213916;14004
1213924;13977
1213932;13995
1213940;13852
1213949;13851
1213957;14079
1213965;12991
1213973;9569
1213981;6752
1213990;7758
1213998;15123
1214006;16375
1214017;15265
1214025;14767
1214034;14315
1214042;14139
1214050;13781
1214058;13800
1214066;13593
1214075;13567
1214083;13420
1214091;13451
1214099;13322
1214107;13240
1214116;13140
1214124;13062
1214132;12948
1214140;12740
1214149;12601
1214158;12325
1214166;12144
1214174;11814
1214182;11672
1214190;11457
1214199;11608
1214207;11563
1214215;11873
1214223;11933
1214231;12483
1214239;12707
1214248;13364
1214256;13505
1214264;14076
1214272;14002
1214280;14379
1214289;14156
1214300;14356
1214308;14469
1214316;14356
1214324;14358
1214333;14262
1214341;14207
1214349;14085
1214357;14022
1214365;13968
1214374;13887
1214382;13910
1214390;13834
1214398;13926
1214406;13801
1214415;13936
1214423;13870
1214431;14044
1214439;13905
1214447;14087
1214456;13833
1214464;13853
1214473;13505
1214481;13785
1214489;13570
1214498;13836
1214506;13598
1214514;13947
1214522;13707
1214530;14123
1214538;13841
1214547;14188
1214555;13772
1214563;14102
1214571;13678
1214583;13846
1214591;13773
1214599;13978
1214607;13421
1214615;11119
1214623;7367
1214632;6375
1214640;11868
1214648;16379
1214656;15820
1214664;15005
1214673;14321
1214681;14250
1214689;13768
1214697;13900
1214705;13573
1214714;13710
1214722;13369
1214730;13606
1214738;13235
1214746;13454
1214755;13095
1214763;13379
1214771;12914
1214779;13073
1214787;12532
1214796;12751
1214805;12146
1214813;12255
1214821;11636
1214829;11883
1214838;11431
1214846;11900
1214854;11606
1214865;12185
1214873;12471
1214882;12989
1214890;13249
1214898;13848
1214906;13981
1214914;14419
1214922;14313
1214931;14614
1214939;14422
1214947;14692
1214955;14402
1214963;14605
1214972;14261
1214980;14509
1214988;14140
1214996;14446
1215004;14097
1215013;14432
1215021;14048
1215029;14395
1215037;14012
1215045;14376
1215054;13999
1215062;14397
1215070;13985
1215078;14356
1215086;13958
1215095;14322
1215104;13801
1215112;14038
1215120;13527
1215128;13995
1215137;13567
1215145;13997
1215156;13758
1215164;14106
1215172;13921
1215181;14234
1215189;13887
1215197;14127
1215205;13795
1215213;14051
1215222;13685
1215230;13922
1215238;13475
1215246;14131
1215254;13083
1215262;10914
1215271;6988
1215279;6892
1215287;12717
1215295;16648
1215303;15595
1215312;15035
1215320;14181
1215328;14317
1215336;13628
1215344;13946
1215353;13434
1215361;13794
1215369;13239
1215377;13663
1215385;13175
1215394;13563
1215402;13028
1215410;13365
1215418;12788
1215427;13091
1215438;12555
1215446;12703
1215454;12045
1215462;12099
1215470;11483
1215480;11756
1215488;11324
1215496;11823
1215504;11547
1215512;12178
1215521;12051
1215529;12920
1215537;12918
1215545;13782
1215553;13631
1215561;14318
1215570;13965
1215578;14526
1215586;14081
1215594;14564
1215602;14042
1215611;14464
1215619;13938
1215627;14363
1215635;13866
1215643;14305
1215652;13800
1215660;14208
1215668;13745
1215676;14177
1215684;13744
1215693;14156
1215701;13769
1215709;14165
1215720;13805
1215728;14267
1215737;13832
1215745;14241
1215753;13762
1215761;14065
1215769;13386
1215778;13766
1215787;13346
1215795;13829
1215803;13316
1215811;13796
1215820;13409
1215828;14005
1215836;13665
1215844;14150
1215852;13637
1215860;14064
1215869;13542
1215877;13968
1215885;13481
1215893;13898
1215901;13506
1215910;13860
1215918;11543
1215926;8401
1215934;6169
1215942;10580
1215951;16047
1215959;16347
1215967;14928
1215975;14632
1215983;14001
1215992;13990
1216003;13413
1216011;13817
1216019;13213
1216027;13585
1216036;13013
1216044;13405
1216052;12867
1216060;13241
1216068;12668
1216077;13052
1216085;12468
1216093;12795
1216102;12140
1216110;12360
1216119;11675
1216127;11908
1216135;11317
1216143;11748
1216151;11402
1216159;11961
1216168;11731
1216176;12433
1216184;12449
1216192;13277
1216200;13346
1216209;14069
1216217;13991
1216225;14503
1216233;14265
1216241;14594
1216250;14318
1216258;14568
1216266;14244
1216274;14442
1216285;14060
1216294;14497
1216302;13912
1216310;14323
1216318;13760
1216326;14145
1216335;13655
1216343;14143
1216351;13727
1216359;14212
1216367;13752
1216376;14189
1216384;13732
1216392;14167
1216400;13706
1216408;14116
1216417;13673
1216426;13911
1216434;13353
1216442;13541
1216450;13146
1216458;13516
1216467;13211
1216475;13518
1216483;13315
1216491;13703
1216499;13626
1216508;13920
1216516;13742
1216524;13921
1216532;13736
1216540;13829
1216549;13656
1216557;13659
1216565;13517
1216576;13599
1216584;11103
1216593;7884
1216601;6333
1216609;11896
1216617;16276
1216625;16150
1216634;14801
1216642;14514
1216650;13965
1216658;13991
1216666;13513
1216675;13771
1216683;13406
1216691;13614
1216699;13235
1216707;13445
1216716;13129
1216724;13292
1216732;12996
1216740;13082
1216748;12764
1216756;12746
1216766;12375
1216774;12281
1216782;11870
1216790;11743
1216798;11502
1216807;11537
1216815;11525
1216823;11621
1216831;11744
1216839;11993
1216848;12363
1216859;13203
1216867;13250
1216875;13948
1216883;13785
1216892;14297
1216900;14035
1216908;14407
1216916;14145
1216924;14442
1216933;14119
1216941;14356
1216949;14045
1216957;14218
1216965;13977
1216974;14137
1216982;13894
1216990;14020
1216998;13827
1217006;13944
1217015;13765
1217023;13885
1217031;13837
1217039;14013
1217047;13970
1217055;13915
1217064;13813
1217072;13660
1217080;13572
1217089;13550
1217097;13561
1217106;13525
1217114;13637
1217122;13585
1217130;13831
1217142;14033
1217150;13791
1217158;13938
1217166;13691
1217174;13792
1217182;13553
1217191;13614
1217199;13351
1217207;13794
1217215;12857
1217223;10185
1217232;6617
1217240;6538
1217248;13503
1217256;16349
1217264;15447
1217273;14561
1217281;14035
1217289;13801
1217297;13509
1217305;13452
1217314;13386
1217322;13336
1217330;13263
1217338;13201
1217346;13139
1217354;13049
1217363;13080
1217371;12950
1217379;12966
1217387;12808
1217395;12810
1217405;12475
1217413;12401
1217423;12230
1217431;11871
1217441;12100
1217449;11918
1217457;12299
1217465;12217
1217473;12729
1217481;12967
1217490;13605
1217498;13905
1217506;14516
1217514;14721
1217522;15097
1217531;15200
1217539;15401
1217547;15414
1217555;15478
1217563;15434
1217572;15416
1217580;15355
1217588;15240
1217596;15200
1217604;14995
1217613;15026
1217621;14794
1217629;14852
1217637;14637
1217645;14757
1217654;14566
1217662;14806
1217670;14531
1217678;14684
1217686;14279
1217694;14365
1217706;14169
1217714;13961
1217722;14054
1217730;13879
1217738;14074
1217747;13984
1217756;14207
1217764;14118
1217772;14148
1217780;14079
1217789;14091
1217797;13964
1217805;13626
1217813;13454
1217821;13087
1217830;13240
1217838;13066
1217846;11208
1217854;7918
1217862;7252
1217871;13728
1217879;17305
1217887;16260
1217895;15456
1217903;14575
1217912;14504
1217920;13928
1217928;13964
1217936;13454
1217944;13304
1217953;13320
1217961;13833
1217969;13426
1217977;13433
1217985;13099
1217997;13249
1218005;13195
1218013;12966
1218021;12901
1218029;12727
1218038;12465
1218046;12161
1218054;11906
1218062;11843
1218071;11880
1218079;12045
1218088;12065
1218096;12271
1218104;12756
1218112;13401
1218120;13562
1218129;14027
1218137;14175
1218145;14554
1218153;14495
1218161;14437
1218170;14532
1218178;15123
1218186;14371
1218194;14519
1218202;14647
1218211;15130
1218219;14664
1218227;14800
1218235;14335
1218243;14594
1218252;14171
1218260;14501
1218268;13875
1218279;14260
1218287;14387
1218296;14080
1218304;13770
1218312;13745
1218320;13565
1218328;13665
1218337;13528
1218345;13733
1218353;13658
1218361;13934
1218370;13740
1218378;13825
1218387;13559
1218395;13815
1218403;13687
1218411;13947
1218419;13724
1218428;14093
1218436;14118
1218444;13342
1218452;10239
1218460;7966
1218469;7636
1218477;14573
1218485;16612
1218493;16187
1218501;14915
1218510;14750
1218518;14139
1218526;14216
1218534;13620
1218542;14049
1218551;13785
1218562;13975
1218570;13698
1218578;13619
1218586;13281
1218595;13235
1218603;12902
1218611;12834
1218619;12435
1218627;12394
1218636;11979
1218644;11869
1218652;11461
1218660;11513
1218668;11226
1218676;11428
1218685;11295
1218694;11597
1218702;11667
1218710;12214
1218718;12441
1218727;13085
1218735;13249
1218743;13712
1218751;13669
1218759;13948
1218768;13725
1218776;13956
1218784;13728
1218792;13930
1218800;13643
1218809;13896
1218817;13613
1218825;13875
1218833;13552
1218853;13894
1218861;14127
1218869;13936
1218877;14129
1218885;13938
1218894;14089
1218902;13746
1218910;13880
1218918;13629
1218926;13837
1218935;13643
1218943;13871
1218951;13730
1218959;13956
1218967;13833
1218975;14098
1218984;13894
1218992;14062
1219000;13810
1219009;13972
1219017;13714
1219026;13866
1219034;13550
1219042;13831
1219050;13325
1219058;11664
1219067;7905
1219075;6191
1219083;10202
1219091;15766
1219099;15453
1219108;14815
1219116;14172
1219124;14168
1219135;13691
1219143;13747
1219152;13499
1219160;13598
1219168;13341
1219176;13474
1219184;13169
1219193;13311
1219201;13048
1219209;13181
1219217;12850
1219225;12861
1219234;12503
1219242;12487
1219250;12008
1219258;11982
1219266;11572
1219274;11649
1219283;11478
1219291;11743
1219299;11706
1219307;11990
1219315;12164
1219325;12694
1219333;12999
1219341;13538
1219349;13702
1219357;14014
1219366;14011
1219374;14256
1219382;14123
1219390;14228
1219398;14080
1219407;14178
1219415;14043
1219426;14192
1219434;14094
1219442;14173
1219451;13951
1219459;14106
1219467;13930
1219475;14032
1219483;13862
1219492;14033
1219500;13839
1219508;13957
1219516;13680
1219524;13639
1219533;13390
1219541;13476
1219549;13351
1219557;13437
1219565;13205
1219574;13350
1219582;13259
1219590;13457
1219598;13310
1219606;13462
1219614;13257
1219623;13418
1219631;13233
1219640;13342
1219648;13135
1219656;13384
1219665;13146
1219673;11426
1219681;7657
1219689;5556
1219697;9400
1219709;15912
1219717;15129
1219725;14400
1219733;13806
1219741;13715
1219750;13239
1219758;13351
1219766;13129
1219774;13264
1219782;13038
1219791;13223
1219799;13016
1219807;13181
1219815;12963
1219823;13145
1219832;12955
1219840;13006
1219848;12668
1219856;12681
1219864;12337
1219873;12305
1219881;11942
1219889;12020
1219897;11876
1219905;12102
1219913;12093
1219922;12395
1219930;12573
1219938;13091
1219946;13460
1219955;13987
1219964;14218
1219972;14548
1219980;14602
1219990;14931
1219998;14819
1220008;14944
1220016;14658
1220024;14815
1220032;14603
1220040;14758
1220049;14500
1220057;14632
1220065;14395
1220073;14542
1220081;14353
1220090;14545
1220098;14393
1220106;14597
1220114;14454
1220122;14584
1220131;14374
1220139;14376
1220147;14138
1220155;14310
1220163;14383
1220172;14687
1220180;14815
1220188;15122
1220196;15250
1220204;15480
1220212;15458
1220221;15487
1220229;15406
1220237;15409
1220245;15318
1220253;15198
1220262;15076
1220273;15223
1220281;14783
1220289;12807
1220297;9225
1220306;7710
1220314;12483
1220323;17761
1220331;17087
1220339;16220
1220348;15421
1220356;15339
1220364;14971
1220372;14877
1220380;14667
1220389;14648
1220397;14397
1220405;14394
1220413;14146
1220421;14083
1220430;13894
1220438;13838
1220446;13597
1220454;13471
1220462;13179
1220471;12982
1220479;12699
1220487;12464
1220495;12189
1220503;12044
1220511;11952
1220520;12011
1220528;12084
1220536;12215
1220544;12510
1220556;13126
1220564;13421
1220572;13902
1220580;14054
1220588;14351
1220596;14356
1220605;14571
1220613;14463
1220621;14479
1220629;14324
1220637;14328
1220647;14182
1220655;14144
1220663;13979
1220671;13948
1220679;13830
1220688;13833
1220696;13734
1220704;13785
1220712;13773
1220720;13736
1220729;13650
1220737;13599
1220745;13439
1220753;13346
1220761;13346
1220770;13370
1220778;13402
1220786;13440
1220794;13538
1220802;13624
1220810;13696
1220819;13672
1220827;13710
1220835;13695
1220846;13702
1220855;13777
1220863;13650
1220871;13643
1220879;13514
1220887;13586
1220895;11820
1220904;8630
1220912;6847
1220920;9568
1220928;16124
1220936;16181
1220945;15173
1220953;14298
1220961;13849
1220970;13598
1220978;13306
1220987;13179
1220995;13033
1221003;12964
1221011;12876
1221019;12806
1221028;12751
1221036;12689
1221044;12569
1221052;12473
1221060;12396
1221069;12205
1221077;12042
1221085;11825
1221093;11649
1221101;11402
1221110;11302
1221118;11222
1221129;11385
1221137;11646
1221145;11774
1221154;12113
1221162;12482
1221170;12950
1221178;13323
1221186;13649
1221194;13814
1221203;14001
1221211;14086
1221219;14176
1221227;14203
1221235;14204
1221244;14132
1221252;14053
1221260;13983
1221268;13909
1221276;13906
1221286;13859
1221294;13803
1221302;13743
1221310;13728
1221318;13685
1221327;13760
1221335;13774
1221343;13817
1221351;13709
1221359;13614
1221368;13495
1221376;13498
1221384;13439
1221392;13531
1221400;13529
1221412;13726
1221420;13890
1221428;13922
1221436;13972
1221444;13962
1221453;13970
1221461;13929
1221469;13910
1221477;13876
1221485;13809
1221494;13736
1221502;13925
1221510;12552
1221518;9274
1221526;6563
1221534;8369
1221543;15449
1221551;16183
1221559;15405
1221567;14641
1221575;14442
1221584;14124
1221592;14041
1221600;13932
1221609;13912
1221617;13814
1221626;13869
1221634;13746
1221642;13762
1221650;13618
1221658;13565
1221667;13370
1221675;13305
1221683;13020
1221694;12830
1221702;12642
1221711;12372
1221719;12092
1221727;11932
1221735;11880
1221743;11926
1221752;11995
1221760;12191
1221768;12464
1221776;12897
1221784;13292
1221793;13714
1221801;14019
1221809;14323
1221817;14400
1221825;14518
1221833;14519
1221842;14558
1221850;14450
1221858;14452
1221866;14325
1221874;14350
1221883;14202
1221891;14240
1221899;14141
1221907;14151
1221915;14049
1221925;14122
1221933;14061
1221941;14129
1221949;14068
1221957;14154
1221966;14031
1221977;14164
1221985;14111
1221993;13949
1222001;13688
1222010;13576
1222018;13557
1222026;13637
1222034;13580
1222042;13617
1222051;13611
1222059;13758
1222067;13813
1222075;13862
1222083;13768
1222092;13792
1222100;13701
1222108;13727
1222116;13591
1222124;13556
1222132;13763
1222141;13336
1222149;10916
1222157;7435
1222165;6199
1222173;12169
1222182;16028
1222190;15665
1222198;14701
1222206;14348
1222214;14007
1222223;13878
1222232;13659
1222240;13692
1222248;13574
1222256;13624
1222267;13512
1222276;13538
1222284;13382
1222292;13305
1222300;13110
1222309;13037
1222317;12816
1222325;12709
1222333;12417
1222341;12261
1222350;11957
1222358;11822
1222366;11628
1222374;11741
1222382;11709
1222391;11934
1222399;12087
1222407;12512
1222415;12846
1222423;13381
1222431;13686
1222440;14047
1222448;14134
1222456;14366
1222464;14340
1222472;14432
1222481;14318
1222489;14367
1222497;14232
1222505;14319
1222513;14202
1222522;14253
1222530;14099
1222538;14174
1222549;14139
1222557;14240
1222566;14120
1222574;14184
1222582;14138
1222590;14197
1222599;14151
1222608;14247
1222616;14137
1222624;14206
1222632;14045
1222640;14025
1222649;13782
1222657;13725
1222665;13686
1222673;13835
1222681;13736
1222690;13780
1222698;13709
1222706;13853
1222714;13898
1222722;14037
1222730;13973
1222739;14035
1222747;13884
1222755;13959
1222763;13853
1222771;13888
1222780;13721
1222788;14217
1222796;13085
1222804;10172
1222812;6916
1222821;7492
1222832;15869
1222840;16285
1222848;15250
1222856;14613
1222865;14239
1222873;14019
1222881;13782
1222889;13788
1222897;13598
1222906;13600
1222915;13411
1222923;13426
1222931;13290
1222939;13305
1222948;13087
1222956;13064
1222964;12866
1222972;12806
1222980;12549
1222989;12416
1222997;12061
1223005;11932
1223013;11683
1223021;11776
1223030;11758
1223038;11914
1223046;11979
1223054;12316
1223062;12590
1223070;13100
1223079;13455
1223087;13914
1223095;14114
1223103;14357
1223114;14424
1223123;14593
1223131;14486
1223139;14515
1223147;14363
1223155;14409
1223164;14318
1223172;14397
1223180;14234
1223188;14235
1223196;14105
1223205;14158
1223213;14017
1223221;14073
1223229;13962
1223238;14038
1223247;13909
1223255;13992
1223263;13898
1223271;14007
1223279;13870
1223288;13874
1223296;13622
1223304;13577
1223312;13544
1223320;13654
1223329;13639
1223337;13710
1223345;13655
1223353;13807
1223361;13850
1223369;13971
1223378;13865
1223386;13880
1223397;13853
1223405;13918
1223414;13757
1223422;13769
1223430;13628
1223438;13858
1223446;12247
1223454;8946
1223463;6366
1223471;8929
1223479;15544
1223487;16116
1223495;15143
1223504;14514
1223512;14175
1223520;13958
1223528;13689
1223536;13660
1223545;13517
1223553;13506
1223561;13361
1223570;13404
1223578;13286
1223587;13287
1223595;13144
1223603;13124
1223611;12974
1223619;12861
1223628;12594
1223636;12432
1223644;12149
1223652;11972
1223660;11723
1223668;11717
1223677;11714
1223688;11919
1223696;12066
1223704;12398
1223713;12688
1223721;13188
1223729;13513
1223737;13912
1223745;14104
1223753;14336
1223762;14296
1223770;14432
1223778;14346
1223786;14351
1223794;14235
1223803;14246
1223811;14119
1223819;14185
1223827;14099
1223835;14155
1223844;14084
1223852;14145
1223860;14087
1223868;14038
1223876;13968
1223886;14054
1223894;14032
1223902;14098
1223910;14067
1223918;14080
1223927;14021
1223935;13918
1223943;13759
1223951;13764
1223959;13738
1223971;13856
1223979;13854
1223987;13969
1223995;13957
1224003;14076
1224012;14009
1224020;14039
1224028;13960
1224036;14025
1224044;13900
1224052;13912
1224061;13734
1224069;13743
1224077;13765
1224085;12212
1224093;8919
1224102;6776
1224110;9554
1224118;16268
1224126;16346
1224134;15436
1224143;14539
1224151;14234
1224159;13914
1224167;13716
1224175;13547
1224184;13482
1224192;13425
1224200;13369
1224208;13294
1224217;13250
1224226;13177
1224234;13089
1224242;13014
1224252;12894
1224261;12713
1224270;12539
1224278;12237
1224286;12107
1224294;11850
1224302;11777
1224311;11706
1224319;11831
1224327;11921
1224335;12124
1224343;12300
1224351;12717
1224360;13086
1224368;13488
1224376;13767
1224384;14030
1224392;14204
1224401;14337
1224409;14384
1224417;14433
1224425;14459
1224433;14424
1224442;14418
1224450;14385
1224458;14320
1224466;14237
1224474;14192
1224483;14105
1224491;14086
1224499;14014
1224507;14055
1224515;14056
1224525;14070
1224535;14127
1224543;14120
1224551;14146
1224560;14045
1224569;14084
1224577;13962
1224585;13958
1224593;13701
1224601;13574
1224610;13523
1224618;13581
1224626;13579
1224634;13586
1224642;13594
1224650;13733
1224659;13868
1224667;13899
1224675;13879
1224683;13841
1224691;13806
1224700;13737
1224708;13696
1224716;13630
1224724;13623
1224732;13798
1224741;12390
1224749;9182
1224757;6768
1224765;8554
1224773;15540
1224782;16206
1224790;15318
1224798;14397
1224806;14134
1224814;13777
1224826;13561
1224834;13526
1224842;13404
1224850;13318
1224858;13218
1224867;13188
1224875;13159
1224884;13108
1224892;12986
1224900;12877
1224909;12753
1224917;12596
1224925;12440
1224933;12195
1224941;11940
1224950;11738
1224958;11623
1224966;11539
1224974;11632
1224982;11752
1224990;11940
1224999;12115
1225007;12561
1225015;12944
1225023;13389
1225031;13712
1225040;14076
1225048;14202
1225056;14415
1225064;14418
1225072;14547
1225081;14448
1225089;14484
1225097;14340
1225108;14340
1225116;14373
1225125;14292
1225133;14258
1225141;14172
1225149;14086
1225157;14028
1225166;13970
1225174;13954
1225182;13925
1225191;13950
1225199;13885
1225208;13933
1225216;13883
1225224;13913
1225232;13888
1225240;13922
1225249;13877
1225257;13907
1225265;13824
1225273;13750
1225281;13534
1225289;13549
1225298;13506
1225306;13651
1225314;13591
1225322;13719
1225330;13734
1225339;13913
1225347;13885
1225355;13982
1225363;13941
1225371;14009
1225380;13916
1225391;13958
1225399;13915
1225407;13968
1225415;13923
1225424;12212
1225432;8821
1225440;6858
1225448;9938
1225456;16029
1225465;16133
1225473;15241
1225481;14484
1225489;14268
1225497;13933
1225506;13796
1225515;13622
1225523;13609
1225531;13469
1225539;13485
1225548;13337
1225556;13379
1225564;13233
1225572;13220
1225580;13053
1225588;13021
1225597;12775
1225605;12657
1225613;12396
1225621;12236
1225629;11870
1225638;11763
1225646;11581
1225654;11607
1225662;11625
1225673;11993
1225682;12225
1225690;12576
1225698;12913
1225706;13373
1225714;13683
1225723;14029
1225731;14162
1225739;14334
1225747;14309
1225755;14387
1225764;14311
1225772;14330
1225780;14208
1225788;14183
1225796;14030
1225805;14049
1225813;13888
1225821;13958
1225829;13861
1225838;13957
1225847;13883
1225855;13963
1225863;13871
1225871;13992
1225879;13906
1225887;13999
1225896;13947
1225904;14063
1225912;13999
1225920;14085
1225928;13930
1225937;13869
1225945;13630
1225956;13783
1225964;13784
1225972;13772
1225981;13673
1225989;13753
1225997;13784
1226005;13965
1226013;13880
1226022;13938
1226030;13816
1226038;13872
1226046;13789
1226054;13845
1226063;13739
1226071;13804
1226079;13871
1226087;12468
1226095;9131
1226104;6815
1226112;9113
1226120;15837
1226128;16216
1226136;15330
1226145;14442
1226153;14232
1226161;13796
1226170;13648
1226178;13417
1226186;13453
1226195;13256
1226203;13269
1226211;13134
1226219;13164
1226227;12964
1226236;12979
1226247;12802
1226255;12799
1226263;12575
1226271;12451
1226280;12161
1226288;12003
1226296;11682
1226304;11619
1226312;11491
1226321;11657
1226329;11659
1226337;11917
1226345;12068
1226353;12548
1226362;12901
1226370;13455
1226378;13750
1226386;14142
1226394;14240
1226403;14460
1226411;14419
1226419;14541
1226427;14450
1226435;14536
1226444;14418
1226452;14474
1226460;14318
1226468;14341
1226476;14184
1226486;14233
1226494;14143
1226502;14214
1226510;14086
1226518;14167
1226529;14176
1226538;14287
1226546;14168
1226554;14224
1226562;14122
1226570;14235
1226579;14141
1226587;14187
1226595;13994
1226603;13955
1226611;13659
1226620;13686
1226628;13619
1226636;13728
1226644;13636
1226652;13719
1226661;13709
1226669;13884
1226677;13875
1226685;13967
1226693;13846
1226702;13900
1226710;13806
1226718;13870
1226726;13736
1226734;13772
1226743;13774
1226751;13691
1226759;11723
1226767;8435
1226775;6730
1226783;11047
1226792;16405
1226801;16195
1226811;14889
1226819;14582
1226828;14208
1226836;14012
1226844;13757
1226853;13748
1226861;13576
1226870;13583
1226878;13392
1226886;13400
1226894;13211
1226902;13203
1226910;13024
1226919;12979
1226927;12730
1226935;12685
1226943;12427
1226951;12267
1226960;11940
1226968;11827
1226976;11629
1226984;11714
1226992;11736
1227001;11922
1227009;12002
1227017;12322
1227025;12612
1227033;13097
1227042;13468
1227050;13850
1227058;14035
1227066;14256
1227074;14319
1227082;14476
1227094;14562
1227102;14712
1227110;14557
1227118;14583
1227127;14422
1227135;14445
1227143;14288
1227152;14375
1227160;14259
1227169;14302
1227177;14177
1227185;14237
1227193;14146
1227201;14224
1227209;14161
1227218;14310
1227226;14243
1227234;14294
1227242;14204
1227250;14233
1227259;14034
1227267;13927
1227275;13835
1227283;13865
1227291;13808
1227300;13896
1227308;13870
1227316;13950
1227324;13952
1227332;13968
1227341;13898
1227349;13947
1227357;13925
1227365;13930
1227376;13872
1227385;13944
1227393;13768
1227401;13780
1227409;11977
1227417;8860
1227426;6902
1227434;10192
1227442;16399
1227450;16311
1227458;15283
1227466;14500
1227476;14051
1227484;13827
1227492;13510
1227500;13459
1227508;13294
1227517;13273
1227525;13145
1227533;13171
1227541;13040
1227549;13040
1227558;12919
1227566;12847
1227574;12665
1227582;12518
1227590;12319
1227599;12108
1227607;11821
1227615;11624
1227623;11474
1227631;11425
1227640;11473
1227648;11631
1227656;11792
1227667;12261
1227675;12623
1227684;13118
1227692;13434
1227700;13836
1227708;14037
1227716;14293
1227725;14309
1227733;14444
1227741;14436
1227749;14497
1227757;14375
1227766;14368
1227774;14261
1227782;14284
1227791;14191
1227799;14162
1227807;14077
1227816;14113
1227824;14035
1227832;14038
1227840;14015
1227848;14070
1227857;14043
1227865;14097
1227873;14090
1227881;14112
1227889;14112
1227898;14136
1227906;14148
1227914;14083
1227922;13923
1227930;13751
1227939;13745
1227950;13875
1227958;13840
1227966;13868
1227974;13804
1227983;13910
1227991;13925
1227999;14007
1228007;13915
1228015;13910
1228024;13795
1228032;13771
1228040;13699
1228048;13655
1228056;13604
1228065;13682
1228073;12038
1228081;8734
1228089;6527
1228097;9552
1228105;15849
1228114;16096
1228122;15216
1228130;14453
1228139;14132
1228147;13784
1228156;13649
1228164;13524
1228172;13452
1228180;13348
1228188;13309
1228197;13227
1228205;13223
1228213;13102
1228221;13064
1228232;12946
1228241;12803
1228249;12680
1228257;12442
1228265;12241
1228273;11958
1228282;11737
1228290;11556
1228298;11565
1228306;11632
1228314;11781
1228323;11933
1228331;12213
1228339;12569
1228347;13049
1228355;13496
1228364;13852
1228372;14123
1228380;14252
1228388;14374
1228396;14397
1228404;14412
1228413;14374
1228421;14370
1228429;14281
1228437;14304
1228446;14217
1228455;14184
1228463;14051
1228471;14060
1228479;13990
1228487;14023
1228496;13932
1228504;13976
1228515;14004
1228523;14019
1228531;14008
1228540;13960
1228548;13974
1228556;13986
1228564;13979
1228572;13913
1228581;13724
1228589;13615
1228597;13619
1228605;13671
1228613;13700
1228622;13756
1228630;13795
1228638;13885
1228646;13931
1228654;13930
1228663;13840
1228671;13846
1228679;13765
1228687;13749
1228695;13609
1228703;13604
1228712;13497
1228720;13832
1228728;12413
1228736;9202
1228744;6502
1228753;8452
1228762;15262
1228770;16101
1228778;15114
1228786;14449
1228795;14110
1228806;13885
1228814;13776
1228822;13660
1228830;13558
1228839;13492
1228847;13405
1228855;13349
1228863;13272
1228871;13212
1228880;13145
1228888;13102
1228896;12947
1228904;12826
1228912;12612
1228921;12453
1228929;12147
1228937;11931
1228945;11689
1228953;11702
1228962;11726
1228970;11862
1228978;11933
1228986;12249
1228994;12518
1229002;13058
1229011;13413
1229019;13843
1229027;14018
1229035;14255
1229043;14290
1229052;14402
1229060;14328
1229069;14371
1229077;14241
1229087;14289
1229096;14288
1229104;14247
1229112;14167
1229121;14148
1229129;14056
1229138;14101
1229146;14023
1229154;13992
1229162;13957
1229170;14046
1229179;14037
1229187;14101
1229195;14059
1229203;14141
1229211;14019
1229220;14036
1229228;13767
1229236;13725
1229244;13636
1229252;13773
1229261;13723
1229269;13805
1229277;13784
1229285;13957
1229293;14007
1229302;14103
1229310;13981
1229318;14033
1229326;13916
1229334;13989
1229342;13801
1229351;13825
1229359;13592
1229370;13823
1229378;12206
1229386;8785
1229395;6433
1229403;9689
1229411;15912
1229419;16079
1229427;15107
1229436;14541
1229445;14206
1229453;13946
1229461;13741
1229469;13707
1229478;13515
1229486;13508
1229494;13333
1229502;13394
1229510;13243
1229519;13258
1229527;13099
1229535;13086
1229543;12841
1229551;12778
1229560;12540
1229568;12428
1229576;12069
1229584;11902
1229592;11609
1229601;11634
1229609;11607
1229617;11819
1229625;11897
1229633;12194
1229641;12449
1229653;13133
1229661;13516
1229669;13908
1229677;14050
1229686;14265
1229694;14320
1229702;14461
1229710;14419
1229718;14440
1229726;14292
1229736;14329
1229744;14197
1229752;14249
1229760;14143
1229768;14179
1229777;14098
1229785;14198
1229793;14109
1229801;14169
1229809;14071
1229818;14188
1229826;14060
1229834;14160
1229842;14077
1229850;14194
1229859;14066
1229867;14090
1229875;13816
1229883;13760
1229891;13662
1229900;13765
1229908;13674
1229916;13713
1229924;13657
1229935;13935
1229944;14032
1229952;14131
1229960;14031
1229968;14055
1229976;13951
1229985;13977
1229993;13849
1230001;13810
1230009;13610
1230017;13998
1230025;12600
1230034;9542
1230042;6989
1230050;8526
1230058;15732
1230067;16752
1230076;15727
1230084;14819
1230092;14260
1230100;14063
1230108;13693
1230117;13647
1230125;13466
1230133;13439
1230141;13309
1230149;13346
1230158;13164
1230166;13143
1230174;12957
1230182;12916
1230190;12700
1230199;12616
1230207;12343
1230215;12189
1230226;11819
1230234;11730
1230243;11482
1230251;11473
1230259;11421
1230267;11663
1230275;11742
1230284;12084
1230292;12373
1230300;12907
1230308;13269
1230316;13804
1230324;14062
1230333;14345
1230341;14369
1230349;14538
1230357;14528
1230365;14611
1230374;14515
1230382;14545
1230391;14395
1230399;14441
1230407;14261
1230416;14289
1230424;14132
1230432;14147
1230440;14047
1230448;14120
1230457;14029
1230465;14113
1230473;14092
1230481;14139
1230489;14065
1230498;14078
1230509;13928
1230517;13985
1230525;13906
1230533;13977
1230542;13901
1230550;14046
1230558;14029
1230566;14186
1230574;14093
1230583;14170
1230591;14054
1230599;14114
1230607;14022
1230615;14103
1230623;13972
1230632;13939
1230640;13758
1230648;13977
1230656;12340
1230664;9174
1230673;7038
1230681;9362
1230689;16295
1230697;16708
1230705;15722
1230714;14905
1230723;14412
1230731;14199
1230739;13869
1230747;13763
1230756;13601
1230764;13556
1230772;13438
1230780;13391
1230791;13237
1230800;13266
1230808;13027
1230816;12969
1230824;12725
1230832;12654
1230841;12379
1230849;12252
1230857;11917
1230865;11769
1230873;11490
1230882;11544
1230890;11523
1230898;11740
1230906;11835
1230914;12208
1230922;12508
1230931;13031
1230939;13392
1230947;13843
1230955;14050
1230963;14297
1230972;14361
1230980;14485
1230988;14477
1230996;14532
1231004;14431
1231013;14444
1231021;14334
1231030;14334
1231038;14211
1231046;14175
1231055;14074
1231063;14036
1231073;13990
1231082;14140
1231090;14006
1231099;14093
1231107;14023
1231115;14124
1231123;14047
1231131;14150
1231140;14079
1231148;14183
1231156;14106
1231164;14128
1231172;13895
1231181;13757
1231189;13606
1231197;13668
1231205;13612
1231213;13653
1231222;13637
1231230;13746
1231238;13802
1231246;13920
1231254;13875
1231262;13912
1231271;13870
1231279;13874
1231287;13796
1231295;13740
1231303;13589
1231312;13903
1231320;12607
1231328;9408
1231336;6566
1231344;7834
1231354;14859
1231364;16041
1231372;15073
1231380;14468
1231388;14099
1231397;13905
1231406;13600
1231414;13518
1231422;13371
1231430;13362
1231439;13225
1231447;13227
1231455;13119
1231463;13116
1231471;12999
1231480;12956
1231488;12780
1231496;12669
1231504;12449
1231512;12253
1231521;11962
1231529;11754
1231537;11561
1231545;11528
1231553;11563
1231561;11674
1231570;11862
1231578;12143
1231586;12505
1231594;12967
1231602;13384
1231611;13765
1231619;14059
1231627;14221
1231635;14340
1231646;14463
1231655;14443
1231663;14469
1231671;14359
1231679;14366
1231687;14265
1231696;14302
1231704;14190
1231713;14201
1231721;14069
1231729;14098
1231738;14021
1231746;14027
1231754;13988
1231762;14029
1231770;13999
1231779;14062
1231787;13983
1231795;13956
1231803;13798
1231811;13644
1231820;13594
1231828;13644
1231836;13663
1231844;13683
1231852;13742
1231860;13792
1231869;13905
1231877;13879
1231885;13912
1231893;13866
1231901;13883
1231910;13818
1231918;13843
1231929;13796
1231937;13656
1231945;14055
1231954;13006
1231962;10150
1231970;6747
1231978;7009
1231986;13996
1231995;16136
1232003;15411
1232011;14649
1232019;14336
1232028;14088
1232037;13841
1232045;13737
1232053;13603
1232061;13519
1232069;13434
1232078;13316
1232086;13247
1232094;13181
1232102;13110
1232110;12986
1232119;12884
1232127;12707
1232135;12571
1232143;12316
1232151;12107
1232159;11821
1232168;11705
1232176;11557
1232184;11627
1232192;11611
1232200;11795
1232212;12170
1232220;12571
1232228;13030
1232236;13432
1232244;13833
1232253;14073
1232261;14278
1232269;14364
1232277;14446
1232285;14435
1232294;14403
1232302;14340
1232310;14275
1232318;14218
1232326;14109
1232335;14034
1232344;13946
1232352;13904
1232360;13878
1232368;13915
1232377;13882
1232385;13889
1232393;13857
1232401;13907
1232409;13828
1232418;13844
1232426;13755
1232434;13792
1232442;13658
1232450;13558
1232458;13286
1232467;13357
1232475;13368
1232483;13552
1232494;13638
1232503;13716
1232511;13817
1232519;13941
1232527;13951
1232535;13922
1232543;13887
1232552;13893
1232560;13852
1232568;13810
1232576;13723
1232584;13664
1232593;13920
1232601;12656
1232609;9298
1232617;6454
1232625;8286
1232634;15369
1232642;16086
1232650;15227
1232658;14400
1232666;14202
1232675;13849
1232684;13793
1232692;13591
1232700;13677
1232708;13511
1232717;13613
1232725;13441
1232733;13512
1232741;13329
1232749;13375
1232758;13127
1232766;13167
1232774;12883
1232785;12813
1232793;12607
1232802;12387
1232810;12106
1232818;12081
1232826;12076
1232834;12199
1232842;12218
1232851;12420
1232859;12592
1232867;13017
1232875;13376
1232883;13855
1232892;14125
1232900;14434
1232908;14511
1232916;14694
1232924;14664
1232933;14775
1232941;14678
1232949;14719
1232957;14588
1232965;14627
1232974;14534
1232982;14578
1232990;14470
1232999;14544
1233007;14399
1233016;14452
1233024;14345
1233032;14438
1233040;14309
1233048;14418
1233057;14299
1233068;14365
1233076;14286
1233084;14172
1233092;13964
1233101;13969
1233109;13913
1233117;13974
1233125;13924
1233133;14084
1233142;14115
1233150;14233
1233158;14136
1233166;14128
1233174;14020
1233182;14075
1233191;13968
1233199;14036
1233207;13899
1233215;13835
1233223;14039
1233232;13264
1233240;10516
1233248;7559
1233256;7102
1233264;14170
1233273;16753
1233281;15985
1233289;14875
1233297;14454
1233305;14069
1233315;13896
1233323;13621
1233331;13625
1233339;13361
1233349;13543
1233358;13470
1233367;13429
1233375;13257
1233383;13219
1233391;13057
1233400;12976
1233408;12709
1233416;12608
1233424;12360
1233432;12172
1233441;11812
1233449;11714
1233457;11551
1233465;11691
1233473;11721
1233481;11998
1233490;12152
1233498;12589
1233506;12950
1233514;13488
1233522;13773
1233531;14184
1233539;14321
1233547;14545
1233555;14497
1233563;14648
1233572;14500
1233580;14562
1233588;14379
1233596;14440
1233604;14319
1233613;14340
1233621;14180
1233632;14224
1233640;14141
1233648;14135
1233657;13987
1233665;14032
1233673;13916
1233682;14005
1233690;13913
1233699;14021
1233707;13897
1233715;13928
1233723;13765
1233731;13759
1233740;13577
1233748;13700
1233756;13610
1233764;13744
1233772;13732
1233780;13896
1233789;13849
1233797;14012
1233805;13935
1233813;14023
1233821;13920
1233830;13946
1233838;13832
1233846;13874
1233854;13756
1233862;13793
1233871;13967
1233879;12695
1233887;9460
1233895;7203
1233903;8505
1233915;16947
1233923;16445
1233931;15530
1233939;14583
1233947;14334
1233956;13921
1233964;13763
1233972;13530
1233980;13546
1233988;13413
1233998;13481
1234006;13285
1234014;13292
1234022;13124
1234030;13105
1234039;12891
1234047;12846
1234055;12555
1234063;12471
1234071;12112
1234079;11951
1234088;11611
1234096;11574
1234104;11436
1234112;11602
1234120;11606
1234129;11862
1234137;12040
1234145;12511
1234153;12906
1234161;13473
1234170;13747
1234178;14074
1234186;14185
1234194;14402
1234205;14481
1234214;14633
1234222;14479
1234230;14523
1234238;14392
1234246;14426
1234255;14247
1234263;14302
1234271;14098
1234279;14151
1234287;14019
1234297;14064
1234305;13947
1234313;14050
1234321;13950
1234329;14040
1234338;13927
1234346;14045
1234354;13971
1234362;14094
1234370;14006
1234378;14052
1234387;13951
1234395;13949
1234403;13764
1234411;13666
1234419;13543
1234428;13600
1234436;13547
1234444;13665
1234452;13649
1234460;13772
1234469;13794
1234477;13972
1234488;13993
1234496;14107
1234504;13976
1234513;14022
1234521;13819
1234529;13864
1234537;13656
1234545;14108
1234554;13286
1234562;10773
1234570;7339
1234578;6933
1234586;12929
1234595;16366
1234603;15738
1234611;14940
1234619;14410
1234628;14243
1234637;13918
1234645;13863
1234653;13676
1234661;13677
1234669;13545
1234678;13555
1234686;13428
1234694;13395
1234702;13244
1234710;13198
1234718;13021
1234727;12902
1234735;12636
1234743;12480
1234751;12213
1234759;11962
1234771;11575
1234779;11567
1234787;11430
1234795;11556
1234803;11545
1234812;11840
1234820;12048
1234828;12549
1234836;12912
1234844;13399
1234853;13587
1234861;13867
1234869;13936
1234877;14123
1234885;14053
1234894;14128
1234902;14023
1234910;14054
1234918;13912
1234926;13948
1234936;13793
1234944;13806
1234952;13715
1234960;13782
1234968;13632
1234977;13642
1234985;13605
1234993;13655
1235001;13562
1235009;13599
1235017;13605
1235026;13639
1235034;13616
1235042;13700
1235053;13719
1235062;13839
1235070;13532
1235078;13427
1235086;13289
1235094;13417
1235102;13371
1235111;13454
1235119;13367
1235127;13492
1235135;13526
1235143;13647
1235152;13585
1235160;13655
1235168;13574
1235176;13609
1235184;13491
1235193;13468
1235201;13304
1235209;13610
1235217;13149
1235225;11033
1235234;7300
1235242;5969
1235250;10923
1235258;15819
1235267;15544
1235276;14605
1235284;14141
1235292;13925
1235300;13658
1235308;13557
1235316;13504
1235325;13429
1235336;13345
1235344;13432
1235352;13240
1235361;13259
1235369;13074
1235377;13045
1235385;12870
1235393;12803
1235401;12548
1235410;12400
1235418;12078
1235426;11881
1235434;11595
1235442;11516
1235451;11416
1235459;11550
1235467;11597
1235475;11857
1235483;12120
1235492;12529
1235500;12971
1235508;13401
1235516;13710
1235524;13976
1235533;14119
1235541;14246
1235549;14240
1235557;14261
1235565;14233
1235574;14178
1235583;14164
1235591;14093
1235599;14075
1235607;13989
1235615;13993
1235626;13973
1235634;13887
1235643;13920
1235651;13821
1235660;13887
1235668;13809
1235676;13902
1235684;13869
1235692;13922
1235700;13899
1235709;13964
1235717;13858
1235725;13825
1235733;13584
1235741;13460
1235750;13452
1235758;13508
1235766;13555
1235774;13604
1235782;13597
1235791;13666
1235799;13812
1235807;13824
1235815;13803
1235823;13775
1235832;13790
1235840;13720
1235848;13693
1235856;13580
1235864;13503
1235873;13791
1235881;12925
1235889;10011
1235897;6757
1235908;8895
1235917;15701
1235925;16176
1235933;15165
1235941;14482
1235949;14177
1235958;13933
1235967;13723
1235975;13634
1235983;13560
1235991;13526
1235999;13447
1236008;13378
1236016;13366
1236024;13327
1236032;13239
1236040;13126
1236049;13031
1236057;12871
1236065;12725
1236073;12495
1236081;12321
1236090;12032
1236098;11875
1236106;11771
1236114;11860
1236122;11867
1236131;12047
1236139;12212
1236147;12648
1236155;12975
1236163;13476
1236172;13820
1236180;14253
1236191;14579
1236199;14710
1236207;14778
1236216;14786
1236224;14817
1236232;14777
1236240;14758
1236248;14773
1236257;14734
1236265;14640
1236274;14546
1236282;14477
1236290;14424
1236298;14363
1236307;14275
1236315;14305
1236323;14277
1236331;14330
1236339;14320
1236348;14405
1236356;14351
1236364;14396
1236372;14247
1236380;14143
1236389;13951
1236397;14041
1236405;13940
1236413;14043
1236421;14008
1236430;14185
1236438;14232
1236446;14410
1236454;14364
1236462;14493
1236474;14468
1236482;14464
1236490;14396
1236498;14319
1236506;14172
1236515;14284
1236523;13981
1236531;11974
1236539;8555
1236547;6922
1236556;12084
1236564;17104
1236572;16411
1236580;15426
1236588;14630
1236598;14418
1236606;14095
1236614;13967
1236622;13777
1236630;13736
1236638;13579
1236647;13589
1236655;13431
1236663;13429
1236671;13302
1236679;13307
1236688;13089
1236696;13009
1236704;12752
1236712;12656
1236720;12328
1236729;12187
1236737;11869
1236745;11789
1236756;11739
1236764;11858
1236773;11910
1236781;12139
1236789;12349
1236797;12747
1236805;13092
1236814;13528
1236822;13836
1236830;14138
1236838;14233
1236846;14406
1236855;14441
1236863;14563
1236871;14469
1236879;14509
1236887;14384
1236895;14438
1236904;14308
1236913;14304
1236921;14100
1236929;14143
1236937;14011
1236946;14104
1236954;14016
1236962;14117
1236970;13975
1236978;14122
1236987;13886
1236995;13857
1237003;13697
1237011;13783
1237019;13688
1237028;13852
1237047;14399
1237055;14494
1237063;14519
1237072;14414
1237080;14435
1237088;14297
1237096;14312
1237104;14222
1237113;14206
1237121;14009
1237129;14013
1237137;13925
1237145;12166
1237154;8809
1237162;7363
1237170;10370
1237178;17040
1237186;16773
1237194;15822
1237203;14750
1237211;14325
1237219;13978
1237228;13808
1237236;13521
1237245;13464
1237253;13248
1237261;13297
1237269;13096
1237277;13093
1237286;12892
1237294;12924
1237302;12704
1237310;12637
1237318;12382
1237327;12323
1237338;12019
1237346;11891
1237354;11616
1237362;11561
1237371;11435
1237379;11591
1237387;11614
1237395;11897
1237403;12088
1237412;12522
1237420;12864
1237428;13418
1237436;13642
1237444;13997
1237453;14094
1237461;14338
1237469;14320
1237477;14397
1237485;14294
1237494;14378
1237502;14235
1237510;14298
1237518;14126
1237526;14112
1237534;13899
1237544;13939
1237552;13789
1237560;13850
1237568;13775
1237576;13825
1237585;13672
1237593;13738
1237601;13553
1237609;13597
1237620;13548
1237629;13696
1237637;13663
1237645;13862
1237653;13841
1237661;14028
1237670;13968
1237678;14083
1237686;14011
1237694;14095
1237702;13933
1237711;14017
1237719;13894
1237727;13922
1237735;13686
1237743;14101
1237752;12982
1237760;10275
1237768;7341
1237776;7467
1237784;14369
1237793;16726
1237801;15840
1237809;14988
1237817;14401
1237825;14265
1237833;13873
1237842;13774
1237850;13593
1237859;13618
1237867;13460
1237875;13464
1237884;13310
1237892;13340
1237903;13172
1237911;13193
1237919;12943
1237928;12877
1237936;12583
1237944;12460
1237952;12080
1237960;11949
1237969;11635
1237977;11646
1237985;11553
1237993;11787
1238001;11823
1238010;12146
1238018;12352
1238026;12874
1238034;13188
1238042;13619
1238051;13788
1238059;14035
1238067;14038
1238075;14162
1238083;14062
1238092;14131
1238100;14024
1238108;14070
1238116;13929
1238124;13960
1238132;13811
1238141;13876
1238149;13759
1238157;13796
1238166;13711
1238174;13774
1238185;13751
1238193;13944
1238201;13770
1238210;13819
1238218;13604
1238227;13638
1238235;13483
1238243;13602
1238251;13518
1238259;13691
1238268;13667
1238276;13870
1238284;13915
1238292;14084
1238300;14028
1238309;14107
1238317;13983
1238325;14081
1238333;13983
1238341;14057
1238350;13872
1238358;13913
1238366;14150
1238374;13012
1238382;9658
1238391;6535
1238399;7865
1238407;15052
1238415;16369
1238423;15668
1238431;14875
1238440;14647
1238448;14344
1238456;14164
1238464;14053
1238476;14045
1238484;13887
1238492;13835
1238500;13607
1238508;13594
1238516;13416
1238525;13409
1238534;13192
1238542;13171
1238550;12930
1238558;12826
1238567;12526
1238575;12408
1238583;12066
1238591;12016
1238599;11859
1238608;11963
1238616;12026
1238624;12304
1238632;12484
1238640;12940
1238649;13345
1238657;13871
1238665;14250
1238673;14603
1238681;14843
1238690;15013
1238698;15012
1238706;15031
1238714;15041
1238722;15055
1238730;14959
1238739;14918
1238747;14854
1238758;14948
1238766;14931
1238775;14909
1238783;14926
1238791;15048
1238799;14987
1238807;15040
1238815;14987
1238824;15115
1238832;14999
1238841;15066
1238849;14977
1238857;14891
1238866;14718
1238874;14486
1238882;14342
1238890;14381
1238898;14330
1238907;14297
1238915;14187
1238923;14246
1238931;14350
1238939;14416
1238948;14546
1238956;14585
1238964;14479
1238972;14484
1238980;14504
1238989;14513
1238997;14407
1239005;14202
1239013;14494
1239021;13574
1239030;10212
1239041;6272
1239049;8786
1239057;15835
1239065;17019
1239074;16239
1239082;15445
1239090;15099
1239098;14581
1239106;14357
1239114;14190
1239123;14128
1239131;14020
1239139;13960
1239148;13918
1239156;13903
1239165;13791
1239173;13767
1239181;13779
1239189;13767
1239197;13722
1239206;13665
1239214;13499
1239222;13241
1239230;12949
1239238;12725
1239247;12501
1239255;12374
1239263;12336
1239271;12431
1239279;12716
1239288;13223
1239296;13780
1239304;14205
1239312;14467
1239323;14673
1239332;14723
1239340;14645
1239348;14514
1239356;14418
1239364;14255
1239373;14142
1239381;14023
1239389;13937
1239397;13827
1239405;13550
1239414;13211
1239422;13027
1239430;12906
1239438;12811
1239446;12720
1239455;12648
1239464;12617
1239472;12566
1239480;12529
1239488;12506
1239496;12457
1239505;12377
1239513;12426
1239521;12346
1239529;12244
1239537;12069
1239546;12071
1239554;12076
1239562;12152
1239570;12109
1239578;12227
1239587;12301
1239595;12512
1239606;12732
1239614;12733
1239622;12747
1239631;12677
1239639;12658
1239647;12569
1239655;12554
1239663;12439
1239672;12803
1239680;12487
1239688;9995
1239696;6015
1239704;4750
1239713;10411
1239721;15182
1239729;14902
1239737;14002
1239745;13633
1239753;13341
1239762;13166
1239770;13069
1239778;13021
1239787;12933
1239795;12993
1239804;12923
1239812;12902
1239820;12777
1239828;12776
1239836;12644
1239845;12558
1239853;12383
1239861;12297
1239869;12028
1239877;11873
1239886;11560
1239897;11389
1239905;11393
1239913;11399
1239921;11459
1239930;11585
1239938;11802
1239946;12104
1239954;12431
1239962;12814
1239971;13192
1239979;13476
1239987;13685
1239995;13943
1240003;14019
1240012;14130
1240020;14171
1240028;14215
1240036;14144
1240044;14117
1240052;13991
1240061;14024
1240069;13905
1240077;13975
1240085;13891
1240093;13948
1240102;13842
1240111;13965
1240119;13902
1240127;13992
1240135;13892
1240144;14015
1240152;13963
1240160;14029
1240168;13929
1240179;13810
1240188;13768
1240196;13720
1240204;13724
1240212;13733
1240220;13729
1240229;13891
1240237;13905
1240245;14066
1240253;14075
1240261;14153
1240270;14106
1240278;14211
1240286;14114
1240294;14162
1240302;14024
1240311;14016
1240319;14247
1240327;13701
1240335;10906
1240343;7691
1240351;7010
1240360;13762
1240368;17201
1240376;16509
1240384;15469
1240392;14923
1240401;14581
1240409;14335
1240417;14038
1240425;13995
1240434;13818
1240443;13819
1240451;13634
1240461;13609
1240469;13486
1240477;13366
1240487;13161
1240495;13030
1240503;12820
1240511;12671
1240519;12348
1240528;12137
1240536;11851
1240544;11741
1240552;11580
1240560;11686
1240569;11767
1240577;12016
1240585;12183
1240593;12594
1240601;12906
1240610;13402
1240618;13715
1240626;14142
1240634;14244
1240642;14517
1240650;14546
1240659;14657
1240667;14586
1240675;14678
1240683;14559
1240691;14608
1240700;14427
1240708;14468
1240716;14355
1240724;14389
1240732;14245
1240744;14356
1240752;14357
1240760;14378
1240768;14319
1240776;14328
1240785;14142
1240793;14103
1240802;13963
1240810;14020
1240818;13962
1240827;14056
1240835;14036
1240843;14196
1240851;14261
1240859;14437
1240868;14363
1240876;14367
1240884;14280
1240892;14363
1240900;14257
1240909;14272
1240917;14125
1240925;14081
1240933;14319
1240941;13328
1240950;10325
1240958;7903
1240966;8135
1240974;15170
1240982;17335
1240990;16466
1240999;15427
1241007;14829
1241015;14452
1241026;14192
1241034;13965
1241043;13891
1241051;13705
1241059;13696
1241067;13557
1241075;13582
1241084;13387
1241092;13339
1241100;13145
1241108;13078
1241116;12817
1241126;12702
1241134;12399
1241142;12242
1241150;11923
1241158;11786
1241167;11650
1241175;11801
1241183;11807
1241191;12060
1241199;12222
1241208;12638
1241216;13008
1241224;13497
1241232;13758
1241240;14157
1241249;14310
1241257;14525
1241265;14607
1241273;14743
1241281;14637
1241289;14681
1241298;14568
1241306;14539
1241317;14433
1241325;14494
1241334;14341
1241342;14324
1241350;14154
1241358;14164
1241366;14099
1241374;14116
1241383;13924
1241391;13934
1241399;13714
1241407;13696
1241415;13556
1241424;13648
1241432;13635
1241441;13786
1241449;13764
1241457;13926
1241466;13996
1241474;14124
1241482;14008
1241490;14114
1241498;14026
1241507;14051
1241515;13959
1241523;13932
1241531;13757
1241539;13995
1241548;13376
1241556;11132
1241564;7746
1241572;6565
1241580;11962
1241588;16553
1241600;15707
1241608;14911
1241616;14314
1241624;14099
1241633;13734
1241641;13638
1241649;13458
1241657;13445
1241665;13246
1241673;13216
1241682;13059
1241690;13049
1241698;12853
1241706;12827
1241714;12617
1241723;12508
1241731;12228
1241739;12068
1241747;11738
1241755;11556
1241764;11275
1241772;11254
1241781;11237
1241789;11417
1241797;11526
1241806;11797
1241814;12118
1241822;12625
1241830;13040
1241838;13503
1241847;13731
1241855;13963
1241863;14050
1241871;14196
1241882;14297
1241891;14404
1241899;14268
1241907;14276
1241915;14128
1241923;14136
1241932;13987
1241940;13986
1241948;13856
1241956;13875
1241964;13740
1241972;13804
1241981;13761
1241989;13768
1241997;13688
1242005;13711
1242013;13492
1242022;13464
1242030;13391
1242038;13498
1242046;13462
1242054;13568
1242063;13550
1242071;13683
1242079;13742
1242087;13837
1242096;13777
1242105;13793
1242113;13749
1242121;13754
1242129;13685
1242137;13714
1242146;13577
1242154;13844
1242165;13209
1242173;10408
1242181;6819
1242190;6646
1242198;13548
1242206;16203
1242214;15595
1242222;14842
1242231;14382
1242239;14203
1242247;13892
1242255;13839
1242263;13673
1242271;13675
1242280;13564
1242288;13566
1242296;13439
1242304;13414
1242312;13245
1242321;13165
1242329;12997
1242337;12885
1242345;12654
1242353;12490
1242362;12235
1242370;12067
1242378;11867
1242386;11800
1242394;11763
1242403;11872
1242412;12022
1242420;12269
1242428;12561
1242436;13037
1242447;13694
1242456;14217
1242464;14436
1242472;14713
1242480;14769
1242489;14894
1242497;14843
1242505;14944
1242513;14874
1242521;14902
1242530;14815
1242538;14828
1242546;14716
1242554;14672
1242562;14576
1242570;14595
1242579;14543
1242587;14567
1242595;14468
1242603;14499
1242611;14473
1242620;14437
1242628;14365
1242636;14281
1242644;14132
1242652;14024
1242661;14023
1242669;14025
1242677;14018
1242685;14013
1242693;14072
1242702;14138
1242710;14199
1242719;14180
1242729;14205
1242737;14342
1242746;14245
1242754;14244
1242762;14123
1242771;14031
1242779;14125
1242788;14134
1242796;12206
1242804;8420
1242812;5979
1242820;9817
1242829;15860
1242837;16061
1242845;15222
1242853;14682
1242861;14398
1242870;14134
1242878;13915
1242886;13826
1242894;13712
1242902;13628
1242910;13501
1242919;13415
1242927;13316
1242935;13205
1242943;13114
1242951;13029
1242960;12920
1242968;12709
1242976;12536
1242984;12289
1242992;12092
1243001;11867
1243009;11747
1243020;11735
1243028;11781
1243036;11927
1243045;12063
1243053;12374
1243061;12771
1243069;13237
1243077;13572
1243087;13932
1243095;14139
1243103;14305
1243111;14358
1243119;14396
1243128;14363
1243136;14343
1243144;14260
1243152;14216
1243160;14164
1243169;14072
1243177;13990
1243185;13931
1243193;13894
1243201;13907
1243209;13860
1243218;13752
1243226;13769
1243234;13796
1243242;13865
1243250;13853
1243259;13883
1243267;13858
1243275;13853
1243283;13716
1243291;13560
1243303;13546
1243311;13637
1243319;13691
1243327;13640
1243335;13711
1243344;13697
1243352;13806
1243360;13887
1243368;13888
1243376;13890
1243385;13832
1243394;13750
1243402;13658
1243410;13614
1243418;13510
1243427;13685
1243435;13502
1243443;11461
1243451;7699
1243459;5685
1243468;9992
1243476;15635
1243484;15616
1243492;14829
1243500;14205
1243508;13983
1243517;13646
1243525;13528
1243533;13405
1243541;13388
1243549;13263
1243558;13254
1243566;13103
1243574;13063
1243585;12988
1243593;12934
1243602;12810
1243610;12653
1243618;12470
1243626;12246
1243634;11997
1243643;11732
1243651;11532
1243659;11465
1243667;11414
1243675;11484
1243684;11596
1243692;11813
1243700;12101
1243708;12509
1243716;12930
1243725;13371
1243734;13677
1243742;13972
1243750;14091
1243758;14222
1243767;14181
1243775;14228
1243783;14131
1243791;14166
1243799;14101
1243807;14128
1243816;14051
1243824;14095
1243832;14002
1243840;14023
1243848;13894
1243857;13953
1243868;13964
1243876;13995
1243884;13977
1243892;14001
1243901;13973
1243909;14016
1243917;13902
1243925;13872
1243933;13638
1243942;13567
1243950;13570
1243958;13661
1243966;13618
1243974;13659
1243983;13652
1243991;13789
1243999;13876
1244007;13988
1244015;13916
1244024;13977
1244032;13920
1244040;13990
1244048;13898
1244056;13948
1244066;13803
1244074;14304
1244082;13476
1244090;10713
1244098;7288
1244106;6816
1244115;13458
1244123;16595
1244131;15951
1244139;15136
1244147;14580
1244159;14330
1244167;14130
1244175;14021
1244183;13871
1244191;13769
1244200;13623
1244208;13597
1244216;13451
1244224;13404
1244232;13246
1244241;13130
1244249;12896
1244257;12775
1244265;12519
1244273;12378
1244282;12048
1244290;11862
1244298;11609
1244306;11602
1244314;11584
1244323;11780
1244331;11895
1244339;12241
1244347;12510
1244355;13023
1244364;13383
1244372;13843
1244381;14094
1244389;14381
1244397;14484
1244406;14650
1244414;14656
1244422;14721
1244430;14600
1244441;14627
1244450;14551
1244458;14538
1244466;14374
1244474;14351
1244482;14236
1244490;14255
1244499;14143
1244507;14167
1244515;14102
1244523;14160
1244531;14071
1244540;14097
1244548;13935
1244556;13866
1244564;13717
1244572;13772
1244581;13679
1244589;13812
1244597;13828
1244605;13965
1244613;13997
1244622;14192
1244630;14142
1244638;14221
1244646;14103
1244654;14117
1244663;13975
1244671;14022
1244680;13923
1244688;13935
1244696;13990
1244705;13877
1244713;11682
1244723;7455
1244731;7038
1244740;14041
1244749;16750
1244757;16080
1244765;15058
1244773;14603
1244781;14264
1244790;14016
1244798;13729
1244806;13695
1244814;13579
1244822;13618
1244830;13505
1244839;13512
1244847;13355
1244855;13326
1244863;13144
1244871;13102
1244880;12908
1244888;12749
1244896;12434
1244904;12245
1244912;11860
1244921;11711
1244929;11542
1244937;11615
1244945;11578
1244953;11805
1244962;11925
1244970;12342
1244978;12687
1244986;13191
1244994;13506
1245006;14048
1245014;14186
1245022;14352
1245030;14359
1245038;14463
1245047;14410
1245056;14482
1245064;14361
1245072;14351
1245080;14205
1245089;14195
1245097;14014
1245105;14031
1245113;13865
1245121;13899
1245129;13812
1245138;13877
1245146;13794
1245154;13889
1245162;13835
1245170;13949
1245179;13921
1245187;14036
1245195;13987
1245203;14035
1245211;13898
1245220;13825
1245228;13598
1245236;13611
1245244;13558
1245252;13649
1245261;13595
1245269;13651
1245277;13640
1245288;13932
1245296;13925
1245305;13989
1245313;13847
1245321;13911
1245329;13770
1245337;13809
1245346;13650
1245354;13634
1245363;13948
1245371;12777
1245379;9419
1245388;6448
1245396;7408
1245404;14686
1245412;16059
1245420;15454
1245428;14545
1245437;14274
1245445;13885
1245453;13752
1245461;13570
1245469;13575
1245478;13438
1245486;13478
1245494;13337
1245502;13319
1245510;13187
1245519;13146
1245527;12978
1245535;12886
1245543;12688
1245551;12541
1245560;12279
1245568;12095
1245579;11788
1245587;11744
1245595;11563
1245604;11645
1245612;11666
1245620;11908
1245628;12085
1245636;12520
1245645;12875
1245653;13394
1245661;13682
1245669;14002
1245678;14097
1245687;14295
1245695;14274
1245703;14364
1245711;14259
1245719;14283
1245727;14188
1245736;14228
1245744;14113
1245752;14141
1245760;14030
1245768;14040
1245777;13948
1245785;13980
1245793;13900
1245801;13954
1245809;13908
1245818;13942
1245826;13891
1245834;13950
1245842;13974
1245850;14014
1245862;14031
1245870;14090
1245878;13807
1245886;13712
1245894;13578
1245903;13673
1245911;13609
1245919;13684
1245927;13636
1245935;13771
1245944;13851
1245952;13938
1245960;13861
1245968;13881
1245976;13786
1245986;13812
1245994;13720
1246002;13749
1246010;13601
1246018;14105
1246026;13276
1246035;10451
1246043;6791
1246051;6392
1246059;13043
1246067;16107
1246076;15574
1246084;14707
1246092;14290
1246100;13986
1246108;13724
1246117;13629
1246125;13499
1246133;13409
1246144;13346
1246152;13513
1246161;13346
1246169;13329
1246177;13188
1246185;13134
1246193;12908
1246202;12827
1246210;12586
1246218;12415
1246226;12091
1246234;11894
1246243;11667
1246251;11650
1246259;11629
1246267;11802
1246275;11911
1246284;12178
1246292;12435
1246300;12902
1246308;13269
1246316;13680
1246324;13916
1246334;14168
1246342;14251
1246350;14290
1246358;14267
1246366;14244
1246375;14214
1246383;14187
1246391;14115
1246399;14048
1246407;14010
1246416;13957
1246427;13927
1246435;14126
1246443;13927
1246451;14001
1246460;13851
1246468;13879
1246476;13749
1246484;13848
1246492;13757
1246501;13857
1246509;13815
1246517;13808
1246525;13632
1246533;13511
1246542;13440
1246550;13465
1246558;13433
1246566;13399
1246574;13382
1246583;13382
1246591;13446
1246599;13469
1246607;13463
1246615;13415
1246623;13446
1246632;13391
1246641;13294
1246649;13229
1246657;13144
1246665;13341
1246674;13085
1246682;11004
1246690;7384
1246698;5714
1246710;13628
1246718;16028
1246726;15235
1246734;14418
1246742;14019
1246750;13790
1246759;13562
1246767;13480
1246775;13416
1246783;13452
1246791;13419
1246800;13432
1246808;13433
1246816;13418
1246824;13393
1246832;13342
1246841;13260
1246849;13123
1246857;12905
1246865;12681
1246873;12530
1246882;12264
1246890;12067
1246898;11934
1246906;11956
1246914;11952
1246922;12060
1246931;12178
1246939;12509
1246948;12849
1246956;13363
1246964;13680
1246973;14031
1246981;14174
1246989;14466
1247000;14644
1247009;14701
1247017;14733
1247025;14720
1247033;14680
1247041;14628
1247049;14584
1247058;14499
1247066;14459
1247074;14436
1247082;14404
1247090;14392
1247099;14400
1247107;14415
1247115;14335
1247123;14412
1247131;14469
1247140;14440
1247148;14378
1247156;14242
1247164;14009
1247172;13936
1247181;13882
1247189;13822
1247197;13770
1247205;13907
1247213;13944
1247222;14112
1247230;14076
1247238;14149
1247246;14097
1247255;14157
1247263;14071
1247272;14112
1247282;14033
1247290;13987
1247299;14353
1247308;13634
1247316;10939
1247324;7536
1247332;6792
1247340;13854
1247348;16909
1247357;16152
1247365;15188
1247373;14698
1247381;14511
1247389;14296
1247398;14072
1247406;13982
1247414;13837
1247422;13814
1247430;13708
1247439;13726
1247447;13599
1247455;13592
1247463;13459
1247471;13402
1247480;13155
1247488;13023
1247496;12681
1247504;12494
1247512;12133
1247521;11960
1247529;11777
1247537;11856
1247545;11859
1247553;12143
1247565;12451
1247573;12835
1247581;13191
1247589;13593
1247597;13865
1247606;14138
1247614;14325
1247623;14518
1247631;14611
1247639;14670
1247647;14647
1247656;14682
1247664;14617
1247672;14606
1247680;14486
1247688;14468
1247697;14355
1247705;14419
1247713;14551
1247721;14729
1247729;14302
1247738;14235
1247746;14081
1247754;14190
1247762;14093
1247770;14108
1247779;13939
1247787;13975
1247795;13835
1247803;13936
1247811;13972
1247820;14171
1247828;14240
1247836;14446
1247847;14448
1247855;14516
1247864;14411
1247872;14392
1247880;14293
1247888;14259
1247896;14089
1247905;14007
1247913;14260
1247921;12964
1247929;9631
1247937;7285
1247946;8506
1247955;15743
1247963;16577
1247971;15764
1247979;14791
1247987;14360
1247996;13983
1248004;13789
1248012;13524
1248020;13494
1248028;13365
1248037;13393
1248045;13221
1248053;13243
1248061;13112
1248069;13075
1248078;12914
1248086;12848
1248094;12651
1248102;12550
1248110;12279
1248119;12087
1248130;11747
1248138;11679
1248146;11554
1248154;11684
1248163;11771
1248171;11994
1248179;12205
1248187;12603
1248195;12892
1248204;13455
1248212;13799
1248220;14230
1248228;14307
1248236;14498
1248244;14528
1248253;14674
1248261;14329
1248269;13628
1248278;13256
1248286;13604
1248295;13718
1248303;14142
1248311;15290
1248319;15246
1248327;14632
1248336;14298
1248344;14027
1248352;13997
1248360;13824
1248368;13740
1248377;13392
1248385;13323
1248393;13066
1248401;13167
1248409;12936
1248421;13406
1248429;13477
1248437;13637
1248445;12890
1248453;13763
1248462;13838
1248470;13970
1248478;14114
1248486;13461
1248494;13578
1248503;13938
1248511;14203
1248519;14045
1248527;13957
1248535;12231
1248543;8232
1248552;5517
1248560;8731
1248568;15475
1248576;15643
1248584;15354
1248593;14759
1248602;14376
1248610;13826
1248618;13705
1248626;13404
1248635;13321
1248643;13045
1248651;12842
1248659;13027
1248667;13305
1248676;12781
1248684;13209
1248692;13057
1248703;12874
1248711;12439
1248720;12261
1248728;11718
1248736;11566
1248744;11685
1248752;11712
1248761;11219
1248769;11954
1248777;12334
1248785;12548
1248793;12416
1248802;12889
1248810;13083
1248818;13582
1248826;13356
1248834;13822
1248842;13971
1248851;14078
1248859;14059
1248867;14254
1248875;13743
1248883;13966
1248892;13406
1248900;13542
1248908;13246
1248917;13960
1248925;13828
1248934;13551
1248942;13085
1248950;13684
1248958;13912
1248966;14080
1248975;13829
1248986;13786
1248994;13237
1249002;13131
1249010;13074
1249019;13184
1249027;13133
1249035;13651
1249043;13395
1249051;13638
1249060;13351
1249068;13330
1249076;13298
1249084;13632
1249092;13406
1249101;13184
1249109;12844
1249117;13668
1249125;13430
1249133;13021
1249142;13833
1249150;14023
1249158;11235
1249166;7075
1249174;5403
1249182;11368
1249191;15283
1249199;15554
1249207;14271
1249215;14849
1249223;14770
1249232;14165
1249240;13962
1249249;13726
1249257;13285
1249267;13304
1249276;13023
1249284;12851
1249292;12794
1249301;12655
1249309;12202
1249318;12478
1249326;12387
1249334;11923
1249342;11716
1249350;11251
1249359;11136
1249367;11075
1249375;10801
1249383;11114
1249391;11391
1249400;11766
1249408;11889
1249416;12165
1249424;12187
1249432;12636
1249441;13000
1249449;13249
1249457;13169
1249465;13454
1249473;13763
1249481;13827
1249490;13625
1249498;13657
1249506;13663
1249514;13701
1249522;13757
1249531;13891
1249539;13871
1249550;14431
1249558;14597
1249566;14667
1249575;14403
1249583;14605
1249591;14364
1249599;14254
1249608;14253
1249617;14536
1249625;14092
1249633;13952
1249641;13572
1249649;13535
1249658;13012
1249666;13123
1249674;13284
1249682;13309
1249690;13004
1249699;13235
1249707;12812
1249715;12898
1249723;13065
1249731;12326
1249740;12368
1249748;13107
1249756;12944
1249764;12712
1249772;13068
1249780;12667
1249789;9996
1249797;5919
1249805;4553
1249813;11289
1249821;15577
1249830;15401
1249841;14557
1249849;14376
1249857;13640
1249865;13326
1249874;12979
1249882;13165
1249890;13120
1249898;13411
1249906;13407
1249915;13610
1249924;13565
1249932;13714
1249940;13577
1249948;13609
1249957;13496
1249965;13523
1249973;13360
1249981;13248
1249989;12978
1249998;12796
1250006;12613
1250014;12614
1250022;12595
1250030;12661
1250039;12802
1250047;13017
1250055;13251
1250063;13482
1250071;13820
1250079;14122
1250088;14501
1250096;14625
1250104;14728
1250112;14710
1250124;14841
1250132;14981
1250140;14855
1250148;14924
1250156;14752
1250164;14756
1250173;14650
1250181;14697
1250189;14571
1250197;14556
1250205;14483
1250214;14579
1250223;14532
1250231;14530
1250239;14521
1250247;14438
1250256;14335
1250264;14313
1250272;14275
1250280;14281
1250288;14389
1250297;14472
1250305;14587
1250313;14650
1250321;14742
1250329;14700
1250338;14738
1250346;14636
1250354;14731
1250362;14589
1250370;14618
1250378;14420
1250387;14819
1250395;14547
1250406;10973
1250414;7882
1250423;7805
1250431;15335
1250439;17528
1250447;16833
1250455;16002
1250463;15542
1250472;15290
1250480;14981
1250488;14808
1250496;14700
1250504;14646
1250513;14620
1250521;14555
1250529;14449
1250537;14385
1250546;14234
1250555;14166
1250563;13961
1250571;13786
1250579;13445
1250587;13234
1250596;12855
1250604;12621
1250612;12263
1250620;12204
1250628;12056
1250637;12247
1250645;12253
1250653;12542
1250661;12625
1250669;13069
1250678;13284
1250689;13810
1250697;14093
1250705;14247
1250713;14365
1250722;14376
1250730;14350
1250738;14330
1250746;14236
1250754;14154
1250762;14021
1250771;13957
1250779;13839
1250787;13799
1250795;13640
1250803;13719
1250812;13665
1250820;13678
1250828;13525
1250836;13585
1250844;13378
1250853;13399
1250861;13264
1250870;13385
1250878;13281
1250886;13416
1250895;13326
1250903;13527
1250911;13517
1250919;13724
1250927;13602
1250936;13720
1250944;13547
1250952;13706
1250960;13545
1250971;13642
1250980;13621
1250988;13901
1250996;13271
1251004;10859
1251012;7685
1251021;6773
1251029;12545
1251037;16493
1251045;15795
1251053;15053
1251062;14299
1251070;14143
1251078;13817
1251086;13698
1251094;13471
1251102;13523
1251111;13343
1251119;13389
1251127;13175
1251135;13253
1251143;13066
1251152;13126
1251160;12851
1251168;12887
1251176;12599
1251184;12565
1251194;12175
1251202;12098
1251210;11760
1251218;11848
1251226;11712
1251235;11956
1251243;11918
1251251;12276
1251262;12661
1251270;13163
1251279;13443
1251287;13829
1251295;14013
1251303;14306
1251311;14348
1251320;14540
1251328;14466
1251336;14570
1251344;14416
1251352;14472
1251361;14271
1251369;14352
1251377;14134
1251385;14173
1251393;13955
1251401;14045
1251410;13829
1251418;13973
1251426;13814
1251434;13962
1251442;13782
1251451;13839
1251459;13582
1251467;13672
1251475;13474
1251483;13661
1251492;13549
1251501;13778
1251509;13672
1251517;13950
1251525;13878
1251534;14078
1251544;13957
1251553;14103
1251561;13919
1251569;13979
1251578;13783
1251586;13807
1251594;14098
1251602;13186
1251610;9927
1251619;6676
1251627;6809
1251635;14165
1251643;15912
1251651;15459
1251660;14566
1251668;14446
1251676;13971
1251684;13950
1251692;13628
1251700;13687
1251709;13412
1251717;13531
1251725;13318
1251733;13455
1251741;13208
1251750;13300
1251758;13011
1251766;13057
1251774;12721
1251782;12704
1251791;12328
1251799;12303
1251807;11930
1251815;11931
1251826;11724
1251835;11947
1251843;11887
1251851;12184
1251859;12278
1251867;12781
1251876;13019
1251885;13561
1251893;13701
1251901;14112
1251909;14087
1251918;14370
1251926;14214
1251934;14363
1251942;14189
1251950;14362
1251959;14152
1251967;14268
1251975;14042
1251983;14190
1251991;13925
1251999;14073
1252008;13901
1252016;14105
1252024;13926
1252032;14130
1252040;14015
1252049;14191
1252057;14073
1252065;14212
1252073;13933
1252081;13898
1252090;13649
1252098;13790
1252109;13742
1252117;13942
1252125;13739
1252134;13930
1252142;13867
1252150;14141
1252158;13947
1252166;14062
1252176;13854
1252184;13983
1252192;13759
1252200;13876
1252208;13593
1252217;14066
1252225;13589
1252233;11686
1252241;7661
1252249;5915
1252258;10584
1252266;15660
1252274;15366
1252282;14743
1252290;14201
1252298;14187
1252307;13778
1252315;13829
1252323;13600
1252331;13677
1252339;13461
1252348;13559
1252356;13331
1252364;13357
1252372;13091
1252380;13107
1252389;12869
1252400;12919
1252408;12630
1252416;12600
1252424;12176
1252433;12146
1252441;11738
1252449;11846
1252457;11708
1252465;11983
1252474;11936
1252482;12313
1252491;12435
1252499;13007
1252507;13228
1252516;13773
1252524;13877
1252532;14269
1252540;14203
1252548;14427
1252557;14251
1252565;14385
1252573;14177
1252581;14250
1252589;14050
1252598;14171
1252606;13971
1252614;14033
1252622;13891
1252630;13982
1252638;13811
1252647;13917
1252655;13850
1252663;14005
1252671;13965
1252682;14184
1252691;14053
1252699;14164
1252707;13808
1252715;13815
1252723;13561
1252732;13796
1252740;13646
1252748;13830
1252756;13686
1252764;13878
1252773;13807
1252781;14031
1252789;13806
1252798;13930
1252806;13734
1252815;13848
1252823;13615
1252831;13669
1252839;13429
1252847;13844
1252856;13508
1252864;11511
1252872;7639
1252880;5873
1252888;10853
1252897;15837
1252905;15534
1252913;14742
1252921;14243
1252929;14087
1252937;13792
1252946;13718
1252954;13584
1252965;13652
1252973;13489
1252982;13562
1252990;13303
1252998;13427
1253006;13190
1253014;13258
1253022;12987
1253031;13019
1253039;12714
1253047;12661
1253055;12303
1253063;12252
1253072;11962
1253080;11989
1253088;11898
1253096;12104
1253104;12110
1253113;12388
1253121;12570
1253130;13016
1253138;13300
1253146;13682
1253155;13899
1253163;14129
1253171;14196
1253179;14308
1253187;14323
1253196;14340
1253204;14273
1253212;14223
1253220;14148
1253228;14073
1253236;14016
1253248;14078
1253256;13920
1253264;14033
1253272;13854
1253281;13975
1253289;13852
1253297;13971
1253305;13857
1253313;13978
1253321;13867
1253330;13953
1253338;13681
1253346;13574
1253354;13454
1253362;13611
1253371;13570
1253379;13652
1253387;13664
1253395;13797
1253403;13878
1253412;14000
1253420;13977
1253428;14007
1253436;13982
1253445;13970
1253454;13936
1253462;13933
1253470;13864
1253478;14050
1253486;13983
1253495;11990
1253503;8311
1253511;6089
1253519;10800
1253530;16426
1253539;15696
1253547;14926
1253555;14459
1253563;14334
1253571;13946
1253580;13890
1253588;13738
1253596;13748
1253604;13575
1253612;13596
1253620;13499
1253629;13491
1253637;13407
1253645;13368
1253653;13251
1253661;13111
1253670;12922
1253678;12741
1253686;12514
1253694;12309
1253702;12127
1253711;12011
1253719;12025
1253727;12083
1253735;12232
1253743;12344
1253752;12637
1253760;12912
1253769;13342
1253777;13632
1253785;14005
1253794;14167
1253802;14396
1253810;14359
1253821;14469
1253829;14531
1253838;14383
1253846;14389
1253854;14281
1253862;14264
1253870;14171
1253879;14154
1253887;14061
1253895;14003
1253903;13948
1253911;13987
1253919;14050
1253928;14049
1253936;14033
1253944;13997
1253952;13947
1253960;13722
1253969;13659
1253977;13638
1253985;13670
1253993;13654
1254001;13745
1254010;13740
1254018;13934
1254026;13945
1254034;14051
1254042;13947
1254051;14027
1254059;13915
1254067;14009
1254076;13864
1254084;13963
1254093;13772
1254103;14115
1254111;12598
1254119;9253
1254128;7207
1254137;9518
1254145;16275
1254153;16533
1254161;15683
1254169;14811
1254178;14363
1254186;14196
1254194;13892
1254202;13741
1254210;13617
1254218;13593
1254227;13484
1254235;13491
1254243;13386
1254251;13382
1254259;13180
1254268;13115
1254276;12900
1254284;12852
1254292;12596
1254300;12481
1254309;12148
1254317;12051
1254325;11760
1254333;11860
1254341;11802
1254350;12022
1254358;12031
1254366;12438
1254374;12610
1254385;13253
1254394;13659
1254402;13953
1254410;14166
1254418;14339
1254426;14433
1254435;14561
1254444;14558
1254452;14534
1254460;14404
1254468;14359
1254477;14215
1254485;14207
1254493;14043
1254501;14062
1254509;13930
1254518;13964
1254526;13828
1254534;13947
1254542;13853
1254550;13935
1254558;13767
1254567;13766
1254575;13507
1254583;13576
1254591;13484
1254599;13638
1254608;13562
1254616;13764
1254624;13665
1254632;13925
1254640;13844
1254649;14005
1254657;13822
1254668;13937
1254676;13931
1254684;13917
1254693;13791
1254701;13783
1254709;13707
1254717;13836
1254725;12070
1254734;8768
1254742;6569
1254751;9648
1254759;15975
1254767;16155
1254776;15232
1254784;14539
1254792;14085
1254800;13996
1254808;13621
1254817;13623
1254825;13418
1254833;13489
1254841;13295
1254849;13366
1254857;13162
1254866;13211
1254874;12955
1254882;13018
1254890;12736
1254898;12711
1254907;12348
1254915;12291
1254923;11877
1254931;11817
1254939;11501
1254951;11647
1254959;11669
1254967;11893
1254975;11989
1254983;12349
1254992;12640
1255000;13140
1255008;13375
1255016;13759
1255024;13849
1255033;14115
1255041;14047
1255049;14241
1255057;14158
1255065;14282
1255075;14089
1255083;14207
1255091;13989
1255099;14092
1255107;13877
1255116;13972
1255124;13736
1255132;13798
1255140;13616
1255148;13776
1255156;13612
1255165;13787
1255173;13673
1255181;13805
1255189;13622
1255197;13703
1255206;13424
1255214;13500
1255222;13325
1255230;13517
1255250;13957
1255258;13916
1255266;14095
1255274;13937
1255282;14024
1255291;13809
1255299;13908
1255307;13715
1255315;13821
1255323;13632
1255332;13673
1255340;13945
1255348;13341
1255356;10327
1255364;6775
1255373;6055
1255381;13033
1255389;15766
1255398;15489
1255406;14591
1255415;14505
1255423;14099
1255431;14061
1255439;13794
1255447;13881
1255455;13604
1255464;13710
1255472;13478
1255480;13559
1255488;13333
1255496;13423
1255505;13187
1255513;13238
1255521;12917
1255532;12878
1255540;12544
1255549;12492
1255557;12086
1255565;12065
1255573;11857
1255581;12017
1255590;11925
1255598;12216
1255606;12261
1255614;12772
1255622;12997
1255631;13540
1255639;13682
1255647;14117
1255655;14100
1255663;14337
1255672;14217
1255680;14399
1255688;14247
1255696;14398
1255704;14207
1255713;14316
1255722;14152
1255730;14263
1255738;14061
1255746;14154
1255754;13986
1255763;14096
1255771;13932
1255779;14037
1255787;13911
1255795;14057
1255804;13948
1255815;14101
1255823;13961
1255831;14145
1255839;13904
1255848;13920
1255856;13557
1255864;13637
1255872;13492
1255880;13679
1255889;13522
1255897;13741
1255905;13643
1255913;13898
1255921;13799
1255930;13943
1255938;13787
1255946;13910
1255954;13749
1255962;13828
1255971;13602
1255979;13663
1255987;13746
1255995;13784
1256003;11687
1256012;8020
1256020;5692
1256028;10015
1256037;15535
1256045;15810
1256054;14953
1256062;14604
1256070;14296
1256078;14136
1256086;13904
1256098;13954
1256106;13767
1256114;13813
1256122;13591
1256130;13697
1256138;13489
1256147;13579
1256155;13319
1256163;13375
1256171;13101
1256179;13087
1256188;12764
1256196;12677
1256204;12307
1256212;12229
1256220;11961
1256229;12082
1256237;12017
1256245;12245
1256253;12284
1256261;12669
1256270;12944
1256278;13461
1256286;13733
1256294;14137
1256302;14271
1256311;14512
1256319;14502
1256327;14618
1256335;14546
1256343;14590
1256353;14448
1256361;14446
1256369;14380
1256379;14453
1256387;14301
1256396;14401
1256405;14203
1256413;14315
1256421;14132
1256429;14250
1256438;14080
1256446;14194
1256454;14017
1256462;14158
1256470;13998
1256478;14131
1256487;13932
1256495;13883
1256503;13580
1256511;13647
1256519;13570
1256528;13674
1256536;13549
1256544;13634
1256552;13587
1256560;13749
1256569;13775
1256577;13825
1256585;13698
1256593;13732
1256601;13693
1256610;13721
1256618;13649
1256626;13614
1256634;13583
1256642;14031
1256650;12889
1256659;9595
1256670;5812
1256678;9779
1256686;15460
1256695;15774
1256703;14852
1256711;14489
1256719;14176
1256728;14039
1256737;13799
1256745;13839
1256753;13648
1256761;13652
1256769;13500
1256777;13551
1256786;13458
1256794;13477
1256802;13312
1256810;13299
1256818;13129
1256827;13039
1256835;12797
1256843;12662
1256851;12413
1256859;12172
1256868;11959
1256876;11924
1256884;11953
1256892;12038
1256900;12165
1256909;12435
1256917;12776
1256925;13131
1256933;13530
1256941;13832
1256953;14134
1256961;14417
1256969;14357
1256977;14462
1256985;14318
1256994;14383
1257002;14226
1257010;14258
1257018;14119
1257026;14112
1257036;13983
1257044;13994
1257052;13885
1257060;13933
1257068;13822
1257076;13854
1257085;13780
1257093;13812
1257101;13779
1257109;13805
1257117;13784
1257126;13810
1257134;13751
1257142;13618
1257150;13419
1257158;13364
1257167;13403
1257175;13373
1257183;13379
1257191;13346
1257199;13455
1257208;13521
1257216;13703
1257224;13626
1257235;13688
1257243;13819
1257252;13720
1257260;13769
1257268;13623
1257276;13599
1257284;13963
1257293;13343
1257301;10616
1257309;7029
1257317;6239
1257325;12819
1257334;15868
1257342;15345
1257350;14537
1257359;14211
1257367;13964
1257375;13794
1257384;13743
1257392;13633
1257400;13567
1257408;13493
1257416;13520
1257425;13468
1257433;13478
1257441;13337
1257449;13289
1257457;13092
1257466;13066
1257474;12820
1257482;12723
1257490;12430
1257498;12317
1257507;12016
1257518;12017
1257526;12136
1257534;12171
1257542;12377
1257551;12529
1257559;12823
1257567;13169
1257575;13550
1257583;13895
1257592;14146
1257600;14345
1257608;14395
1257616;14474
1257624;14442
1257633;14439
1257641;14374
1257649;14364
1257657;14281
1257665;14312
1257673;14141
1257683;14193
1257691;14083
1257699;14150
1257707;14060
1257715;14148
1257724;14085
1257732;14225
1257740;14087
1257748;14236
1257756;14140
1257765;14227
1257773;14011
1257781;13988
1257789;13682
1257800;13771
1257809;13793
1257817;13792
1257825;13826
1257833;13884
1257841;13981
1257850;14092
1257858;14063
1257866;14106
1257874;14076
1257882;14144
1257891;14070
1257899;14089
1257907;13952
1257915;14004
1257923;14123
1257932;12642
1257940;9166
1257948;6812
1257956;9301
1257964;16234
1257972;16313
1257981;15574
1257989;14670
1257997;14477
1258005;14096
1258013;14011
1258023;13728
1258031;13798
1258039;13591
1258047;13654
1258055;13428
1258064;13531
1258072;13317
1258080;13331
1258091;13143
1258099;13093
1258108;12821
1258116;12643
1258124;12297
1258132;12125
1258140;11854
1258149;11854
1258157;11787
1258165;11980
1258173;12009
1258181;12305
1258190;12454
1258198;12875
1258206;13137
1258214;13592
1258222;13741
1258231;14115
1258239;14115
1258247;14322
1258255;14234
1258263;14391
1258271;14213
1258280;14284
1258288;14060
1258296;14157
1258304;13933
1258312;14039
1258321;13832
1258329;13953
1258338;13735
1258346;13880
1258354;13699
1258363;13852
1258373;13772
1258382;13896
1258390;13791
1258398;13854
1258407;13679
1258415;13709
1258423;13467
1258431;13469
1258439;13318
1258448;13410
1258456;13302
1258464;13518
1258472;13483
1258480;13711
1258489;13671
1258497;13840
1258505;13675
1258513;13825
1258521;13683
1258530;13797
1258538;13593
1258546;13709
1258554;13448
1258562;14053
1258570;12936
1258579;10099
1258587;6765
1258595;7106
1258603;14251
1258611;16320
1258620;15439
1258628;14785
1258636;14244
1258644;14175
1258655;13760
1258664;13804
1258672;13590
1258680;13649
1258688;13448
1258696;13520
1258706;13294
1258714;13329
1258722;13048
1258730;13048
1258738;12753
1258747;12752
1258755;12436
1258763;12405
1258771;12010
1258779;11970
1258788;11666
1258796;11848
1258804;11762
1258812;12041
1258820;12051
1258829;12468
1258837;12636
1258845;13205
1258853;13471
1258861;13960
1258870;14032
1258878;14353
1258886;14283
1258894;14476
1258902;14327
1258910;14419
1258919;14212
1258927;14275
1258938;14112
1258946;14245
1258954;13989
1258963;14045
1258971;13850
1258979;13959
1258987;13791
1258995;13937
1259005;13774
1259013;13928
1259021;13780
1259029;13972
1259037;13845
1259046;14033
1259054;13862
1259062;14049
1259070;13888
1259078;14069
1259087;13891
1259095;13959
1259103;13637
1259111;13681
1259119;13508
1259128;13680
1259136;13539
1259144;13733
1259152;13634
1259160;13884
1259169;13877
1259177;14083
1259185;13918
1259193;14053
1259201;13901
1259209;14009
1259221;13918
1259229;14025
1259237;13913
1259245;14179
1259254;12295
1259262;8835
1259270;6249
1259278;9511
1259286;15528
1259294;15988
1259303;14993
1259311;14529
1259320;14116
1259328;13995
1259336;13619
1259345;13646
1259353;13392
1259361;13481
1259369;13276
1259377;13390
1259386;13173
1259394;13243
1259402;13019
1259410;13063
1259418;12784
1259427;12790
1259435;12465
1259443;12401
1259451;12063
1259459;11961
1259468;11660
1259476;11681
1259484;11612
1259492;11788
1259500;11869
1259512;12398
1259520;12631
1259528;13199
1259536;13398
1259544;13857
1259553;13924
1259561;14224
1259569;14176
1259577;14367
1259585;14178
1259593;14328
1259602;14104
1259610;14178
1259618;13997
1259626;14133
1259635;13927
1259644;14029
1259652;13835
1259660;13924
1259668;13779
1259676;13896
1259685;13762
1259693;13868
1259701;13737
1259709;13854
1259717;13772
1259726;13848
1259734;13805
1259742;13896
1259750;13750
1259758;13658
1259767;13533
1259775;13652
1259783;13632
1259794;13835
1259802;13744
1259811;13951
1259819;13897
1259827;14080
1259835;13890
1259843;14031
1259852;13872
1259860;14017
1259868;13858
1259876;13926
1259884;13683
1259892;14089
1259901;13619
1259909;11524
1259917;7743
1259925;6183
1259933;11369
1259942;15971
1259950;15567
1259959;14832
1259967;14356
1259975;14238
1259984;13880
1259992;13820
1260000;13668
1260008;13672
1260016;13538
1260025;13496
1260033;13373
1260041;13339
1260049;13252
1260057;13192
1260066;13104
1260077;13079
1260085;12845
1260093;12768
1260101;12366
1260110;12263
1260118;11918
1260126;11946
1260134;11772
1260142;11940
1260151;12004
1260159;12355
1260167;12519
1260175;12966
1260183;13281
1260191;13766
1260200;13956
1260208;14247
1260216;14304
1260224;14486
1260232;14405
1260241;14419
1260249;14339
1260257;14315
1260265;14205
1260273;14239
1260283;14159
1260291;14106
1260299;14024
1260307;14008
1260315;14017
1260324;14003
1260332;14062
1260340;14045
1260348;14095
1260359;14174
1260368;14089
1260376;14170
1260384;14066
1260392;14127
1260400;13978
1260409;13856
1260417;13570
1260425;13687
1260433;13661
1260441;13793
1260450;13710
1260458;13816
1260466;13821
1260474;13979
1260482;13971
1260490;13998
1260499;13926
1260507;13935
1260515;13857
1260523;13811
1260531;13783
1260540;13729
1260548;14125
1260556;12888
1260564;9669
1260572;6803
1260581;8191
1260589;15412
1260597;16364
1260606;15500
1260614;14723
1260623;14372
1260631;14217
1260639;13897
1260650;13794
1260658;13881
