Tempo (ms);Valor
1440829;13358
1440837;15936
1440846;15660
1440854;14930
1440862;14713
1440870;14250
1440878;14134
1440887;13910
1440895;13959
1440903;13761
1440911;13794
1440919;13619
1440927;13697
1440936;13495
1440944;13500
1440952;13292
1440960;13333
1440969;13078
1440978;13045
1440986;12745
1440994;12573
1441002;12201
1441010;12086
1441019;11784
1441027;11853
1441035;11775
1441043;11959
1441051;11977
1441060;12332
1441068;12580
1441076;13143
1441084;13434
1441092;13878
1441104;14189
1441112;14492
1441120;14434
1441128;14496
1441136;14389
1441145;14473
1441153;14335
1441161;14370
1441169;14232
1441177;14346
1441186;14241
1441194;14336
1441202;14214
1441210;14295
1441218;14124
1441226;14199
1441235;14137
1441243;14315
1441251;14204
1441259;14311
1441267;14201
1441276;14349
1441284;14235
1441293;14353
1441301;14152
1441309;14259
1441318;13980
1441326;14037
1441334;14105
1441342;14109
1441350;13840
1441359;13873
1441367;13645
1441375;13702
1441383;13545
1441394;13827
1441403;13754
1441411;13938
1441419;13877
1441427;14140
1441435;14056
1441444;14268
1441452;14426
1441460;14909
1441468;12681
1441476;8501
1441485;5135
1441493;8314
1441501;14971
1441509;15599
1441517;14627
1441526;14064
1441534;13627
1441542;13457
1441550;13239
1441558;13268
1441566;13019
1441575;13077
1441583;12940
1441591;13096
1441599;13107
1441607;13195
1441617;13044
1441625;13191
1441633;12998
1441641;13011
1441649;13036
1441658;13174
1441666;13040
1441677;12958
1441685;12677
1441693;12642
1441702;12419
1441710;12548
1441718;12466
1441726;12727
1441734;12878
1441743;13413
1441751;13620
1441759;14014
1441767;14049
1441775;14276
1441784;14150
1441792;14141
1441800;13797
1441808;13996
1441816;13869
1441825;13783
1441833;13513
1441841;13748
1441849;13732
1441857;13933
1441865;13964
1441874;14384
1441882;15016
1441890;15217
1441898;14914
1441906;14863
1441915;14706
1441923;14747
1441931;14620
1441940;14541
1441948;14445
1441959;14477
1441967;14207
1441975;14061
1441984;13624
1441992;13474
1442001;13221
1442009;13233
1442017;13053
1442025;13134
1442033;13072
1442042;13376
1442050;13247
1442058;13319
1442066;13072
1442074;12959
1442083;12873
1442091;12957
1442099;12965
1442107;13054
1442115;12866
1442124;13345
1442132;12912
1442140;9918
1442148;5453
1442156;3691
1442164;9837
1442173;15022
1442181;14897
1442189;14250
1442197;13850
1442205;13786
1442214;13598
1442222;13610
1442230;13661
1442241;13729
1442249;13565
1442258;13685
1442266;13604
1442274;13783
1442282;13750
1442290;13899
1442299;13519
1442307;13387
1442316;13222
1442324;13249
1442332;12991
1442341;12760
1442349;12377
1442357;12366
1442365;12220
1442373;12285
1442382;12199
1442390;12454
1442398;12619
1442406;13092
1442414;13443
1442423;13832
1442431;14201
1442439;14511
1442447;14824
1442455;15141
1442463;15331
1442472;15350
1442480;15227
1442488;15076
1442496;15130
1442504;15081
1442513;15098
1442521;15039
1442532;14967
1442540;15134
1442548;15115
1442557;15103
1442565;14822
1442573;14637
1442581;14326
1442589;14142
1442598;13849
1442606;13805
1442614;13681
1442623;13649
1442631;13606
1442640;13649
1442648;13562
1442656;13383
1442664;13222
1442672;13225
1442681;13178
1442689;13132
1442697;13112
1442705;13030
1442713;13129
1442722;13194
1442730;13289
1442738;13240
1442746;12719
1442754;12556
1442762;12819
1442771;13003
1442779;13305
1442787;13218
1442795;13864
1442803;13975
1442815;10197
1442823;6525
1442831;6704
1442839;14632
1442847;16832
1442856;16291
1442864;15493
1442872;15260
1442880;14901
1442888;14472
1442897;14248
1442905;14046
1442913;13782
1442921;13691
1442929;13556
1442938;13406
1442947;13367
1442955;13282
1442963;13129
1442971;12925
1442980;12845
1442988;12701
1442996;12526
1443004;12285
1443012;12148
1443021;11848
1443029;11800
1443037;11753
1443045;11876
1443053;11827
1443062;11901
1443070;12106
1443078;12521
1443086;12781
1443097;13306
1443106;13684
1443114;13814
1443122;13914
1443130;13913
1443138;13969
1443146;13906
1443155;13824
1443163;13778
1443171;13748
1443179;13687
1443187;13688
1443196;13667
1443204;13624
1443212;13620
1443220;13596
1443228;13613
1443237;13502
1443245;13491
1443253;13492
1443261;13632
1443270;13599
1443279;13765
1443287;13879
1443295;14030
1443303;14073
1443311;14190
1443320;14011
1443328;13954
1443336;13660
1443344;13691
1443352;13547
1443361;13715
1443369;13600
1443380;13642
1443388;13823
1443396;13942
1443405;14035
1443413;13979
1443421;13881
1443429;13873
1443437;13883
1443446;13885
1443454;13749
1443462;13670
1443470;14195
1443478;13781
1443486;10661
1443495;6502
1443503;4837
1443511;11669
1443519;15809
1443527;15501
1443536;14850
1443544;14637
1443552;14341
1443560;14364
1443568;14484
1443577;14700
1443585;14426
1443594;14264
1443602;13801
1443610;13655
1443619;13262
1443627;12900
1443635;12499
1443643;12538
1443651;12278
1443663;12252
1443671;12171
1443679;11922
1443687;11605
1443695;11423
1443704;11295
1443712;11364
1443720;11309
1443728;11496
1443736;11603
1443745;11931
1443753;12214
1443761;12732
1443769;13072
1443777;13494
1443785;13684
1443794;13947
1443802;14021
1443810;14119
1443818;14006
1443826;14107
1443835;14044
1443843;14188
1443851;14126
1443859;14269
1443867;14211
1443876;14314
1443884;14182
1443892;14268
1443901;14142
1443909;14300
1443918;14219
1443926;14359
1443934;14264
1443942;14484
1443953;14404
1443962;14534
1443970;14383
1443978;14301
1443986;14086
1443994;14091
1444003;13975
1444011;14105
1444019;14047
1444027;14181
1444035;14135
1444044;14211
1444052;14099
1444060;14173
1444068;14087
1444076;14172
1444084;14126
1444093;14241
1444101;14090
1444109;14122
1444117;14526
1444125;13459
1444134;9997
1444142;7382
1444150;7721
1444158;15239
1444166;16926
1444175;16155
1444183;15305
1444191;14874
1444199;14557
1444207;14676
1444216;14418
1444225;14409
1444235;14236
1444243;14318
1444251;14214
1444260;14215
1444268;14004
1444277;14043
1444285;13882
1444293;13930
1444302;13725
1444310;13651
1444318;13344
1444326;13202
1444334;12794
1444343;12747
1444351;12491
1444359;12601
1444367;12424
1444375;12539
1444383;12422
1444392;12914
1444400;13014
1444408;13317
1444416;13539
1444424;13992
1444433;13746
1444441;14214
1444449;14100
1444457;13820
1444465;14023
1444474;14142
1444482;13709
1444490;13758
1444498;13642
1444506;13874
1444518;14023
1444526;14261
1444534;14185
1444542;14223
1444550;13897
1444559;13914
1444567;13756
1444575;13979
1444584;13858
1444592;13898
1444601;13582
1444609;13569
1444617;13290
1444625;13377
1444633;13192
1444642;13374
1444650;13408
1444658;13722
1444666;13776
1444674;14078
1444682;14241
1444691;14730
1444699;14850
1444707;14833
1444715;13951
1444723;13298
1444732;12243
1444740;11786
1444748;10614
1444756;8158
1444764;4600
1444773;3077
1444781;8509
1444789;14517
1444800;14710
1444808;14467
1444817;14164
1444825;14102
1444833;13764
1444841;13905
1444849;13778
1444858;13875
1444866;13750
1444874;13866
1444882;13598
1444890;13642
1444899;13355
1444907;13323
1444916;13073
1444924;13093
1444932;12795
1444941;12683
1444949;12421
1444957;12346
1444965;11994
1444973;11921
1444982;11737
1444990;11880
1444998;11931
1445006;12270
1445014;12420
1445022;12990
1445031;13320
1445039;13841
1445047;14043
1445055;14410
1445063;14491
1445072;14728
1445080;14723
1445091;14870
1445099;14802
1445107;14790
1445116;14540
1445124;14556
1445132;14304
1445140;14386
1445148;14231
1445157;14323
1445165;14142
1445173;14241
1445181;13971
1445189;14207
1445198;14182
1445206;14256
1445214;14141
1445222;14368
1445230;14199
1445239;14167
1445248;13928
1445256;14079
1445264;14036
1445272;14178
1445281;14194
1445289;14367
1445297;14260
1445305;14343
1445313;14226
1445321;14323
1445330;14140
1445338;14182
1445346;14121
1445354;14111
1445362;13947
1445374;14084
1445382;14532
1445390;13041
1445398;8636
1445406;4847
1445415;6585
1445423;14393
1445431;15425
1445439;14987
1445447;14400
1445456;14334
1445464;13883
1445472;13775
1445480;13571
1445488;13670
1445497;13584
1445505;13705
1445513;13571
1445521;13591
1445529;13354
1445538;13299
1445546;13039
1445554;12962
1445562;12665
1445570;12557
1445578;12264
1445588;12054
1445596;11777
1445604;11617
1445612;11479
1445620;11543
1445629;11564
1445637;11756
1445645;11880
1445656;12345
1445665;12677
1445673;13296
1445681;13540
1445689;13835
1445697;13809
1445705;13978
1445714;13972
1445722;14093
1445730;13912
1445738;13891
1445746;13734
1445755;13849
1445763;13798
1445771;13850
1445779;13687
1445787;13745
1445796;13715
1445804;13818
1445812;13654
1445820;13623
1445828;13793
1445837;13855
1445845;13775
1445853;13870
1445861;13877
1445869;13871
1445878;13750
1445886;13608
1445894;13538
1445903;13612
1445911;13682
1445919;13735
1445928;13812
1445938;13998
1445946;14045
1445955;14178
1445964;14069
1445972;14152
1445980;14030
1445988;14106
1445996;13954
1446004;13974
1446013;13946
1446021;14210
1446029;14553
1446037;12613
1446045;8205
1446054;5055
1446062;8675
1446070;15574
1446078;16018
1446086;15417
1446095;14904
1446103;14754
1446111;14393
1446119;14275
1446127;14149
1446136;14072
1446144;13968
1446152;13919
1446160;13838
1446168;13789
1446177;13716
1446185;13672
1446193;13613
1446201;13440
1446209;13362
1446221;13393
1446229;13179
1446237;13004
1446245;12724
1446253;12648
1446262;12456
1446270;12662
1446279;12794
1446287;13043
1446295;13177
1446303;13554
1446312;13909
1446320;14350
1446328;14606
1446336;14883
1446344;14993
1446353;15074
1446361;15059
1446369;14955
1446377;14815
1446385;14663
1446394;14559
1446402;14405
1446410;14276
1446418;14082
1446426;13988
1446435;13839
1446443;13786
1446451;13648
1446459;13664
1446467;13566
1446476;13573
1446484;13468
1446492;13546
1446500;13465
1446511;13602
1446520;13627
1446528;13364
1446536;13169
1446544;13002
1446552;12999
1446561;12954
1446569;12977
1446577;12968
1446586;13020
1446594;13051
1446602;13187
1446611;13248
1446619;13138
1446627;13043
1446635;12970
1446643;13001
1446652;12942
1446660;12895
1446668;12793
1446676;13429
1446684;12048
1446693;8386
1446701;4671
1446709;6002
1446717;13769
1446725;15114
1446734;14368
1446742;13894
1446750;13703
1446758;13571
1446766;13366
1446775;13405
1446783;13270
1446794;13322
1446802;13339
1446810;13271
1446819;13234
1446827;13146
1446835;13104
1446843;13048
1446851;12955
1446860;12891
1446868;12767
1446876;12650
1446884;12437
1446892;12275
1446900;12129
1446909;12128
1446918;12128
1446926;12300
1446934;12394
1446942;12653
1446951;12887
1446959;13294
1446967;13617
1446975;14068
1446983;14290
1446992;14517
1447000;14544
1447008;14637
1447016;14556
1447024;14574
1447033;14382
1447041;14337
1447049;14186
1447057;14197
1447065;14042
1447077;14148
1447085;14179
1447093;14122
1447101;14130
1447109;14143
1447118;14199
1447126;14267
1447134;14304
1447142;14394
1447150;14405
1447159;14435
1447167;14268
1447175;14228
1447183;14164
1447191;14148
1447199;14100
1447208;14186
1447216;14190
1447224;14318
1447233;14348
1447241;14408
1447250;14363
1447258;14409
1447266;14382
1447274;14398
1447282;14266
1447291;14286
1447299;14127
1447307;14664
1447315;14079
1447323;11175
1447332;7587
1447340;6764
1447348;13245
1447359;17108
1447367;16250
1447376;15494
1447384;14951
1447392;14751
1447400;14369
1447408;14177
1447417;13986
1447425;13956
1447433;13780
1447441;13736
1447449;13561
1447458;13483
1447466;13234
1447474;13157
1447482;12905
1447490;12797
1447498;12556
1447507;12464
1447515;12132
1447523;11966
1447531;11630
1447539;11611
1447548;11461
1447556;11594
1447565;11549
1447573;11815
1447581;11938
1447590;12396
1447598;12670
1447606;13145
1447614;13265
1447622;13553
1447631;13555
1447642;13782
1447650;13841
1447658;13945
1447666;13843
1447675;13857
1447683;13712
1447691;13735
1447699;13573
1447707;13620
1447716;13519
1447724;13556
1447732;13459
1447740;13571
1447748;13456
1447757;13567
1447765;13481
1447773;13599
1447781;13507
1447789;13722
1447798;13727
1447806;13834
1447814;13729
1447822;13660
1447830;13399
1447838;13522
1447847;13465
1447855;13649
1447863;13552
1447871;13748
1447880;13739
1447889;13992
1447897;13952
1447905;14107
1447913;13993
1447921;14081
1447932;14046
1447941;14150
1447949;13922
1447957;14330
1447965;14261
1447974;11964
1447982;7465
1447990;4845
1447998;9359
1448006;15521
1448015;15644
1448023;15108
1448031;14636
1448039;14539
1448047;14130
1448056;14055
1448064;13865
1448072;13897
1448080;13718
1448088;13752
1448097;13579
1448105;13632
1448113;13432
1448121;13410
1448129;13177
1448137;13143
1448146;12900
1448154;12859
1448162;12589
1448170;12481
1448178;12209
1448187;12169
1448195;12027
1448203;12180
1448214;12241
1448222;12522
1448231;12636
1448239;13058
1448247;13341
1448255;13793
1448264;14056
1448273;14423
1448281;14511
1448289;14687
1448297;14644
1448305;14770
1448314;14642
1448322;14686
1448330;14546
1448338;14709
1448346;14606
1448355;14653
1448363;14428
1448371;14587
1448379;14555
1448387;14674
1448396;14494
1448404;14646
1448412;14511
1448420;14576
1448428;14370
1448436;14413
1448445;14205
1448453;14228
1448461;13974
1448469;13950
1448477;13614
1448486;13583
1448497;13509
1448505;13700
1448513;13457
1448521;13544
1448530;13383
1448538;13569
1448546;13390
1448554;13440
1448562;13198
1448572;13247
1448580;13008
1448588;13114
1448596;12911
1448604;12915
1448613;13224
1448621;13058
1448629;10085
1448637;5761
1448645;3683
1448654;9913
1448662;14514
1448670;14505
1448678;13773
1448686;13672
1448695;13397
1448703;13291
1448711;13143
1448719;13202
1448727;13125
1448735;13245
1448744;13145
1448752;13176
1448760;13057
1448768;13081
1448780;12954
1448788;13119
1448796;12910
1448804;12945
1448812;12663
1448820;12645
1448829;12317
1448837;12292
1448845;12061
1448853;12202
1448861;12150
1448870;12391
1448878;12438
1448886;12791
1448894;13003
1448902;13483
1448911;13739
1448920;14129
1448928;14224
1448936;14463
1448944;14409
1448953;14509
1448961;14416
1448969;14432
1448977;14253
1448985;14298
1448994;14181
1449002;14190
1449010;14112
1449018;14165
1449026;14078
1449034;14093
1449043;14065
1449051;14082
1449059;14029
1449070;14197
1449079;14133
1449087;14248
1449095;14109
1449103;14230
1449111;14081
1449119;14083
1449128;13819
1449136;13846
1449144;13725
1449152;13867
1449160;13798
1449169;13914
1449177;13882
1449185;14083
1449193;14158
1449201;14307
1449210;14222
1449218;14336
1449226;14267
1449235;14314
1449243;14226
1449252;14274
1449260;14310
1449268;14936
1449276;13300
1449284;9416
1449293;5817
1449301;8093
1449309;15658
1449317;16372
1449325;15725
1449334;15255
1449342;15058
1449353;14823
1449361;14647
1449369;14705
1449378;14471
1449386;14413
1449394;14137
1449402;14058
1449410;13785
1449418;13678
1449427;13372
1449435;13255
1449443;12935
1449451;12823
1449459;12517
1449468;12332
1449476;12002
1449484;11781
1449492;11481
1449500;11397
1449509;11326
1449517;11389
1449525;11414
1449533;11599
1449541;11831
1449550;12186
1449558;12508
1449566;12829
1449575;13072
1449583;13286
1449592;13416
1449600;13489
1449608;13532
1449616;13506
1449624;13511
1449636;13598
1449644;13524
1449652;13561
1449660;13440
1449668;13478
1449677;13394
1449685;13479
1449693;13408
1449701;13483
1449709;13451
1449718;13580
1449726;13604
1449734;13697
1449742;13599
1449750;13585
1449758;13383
1449767;13373
1449775;13407
1449783;13505
1449791;13591
1449799;13665
1449808;13790
1449816;13988
1449824;14144
1449832;14219
1449840;14273
1449849;14279
1449857;14299
1449865;14262
1449873;14298
1449881;14190
1449890;14160
1449899;14603
1449907;14207
1449917;10241
1449925;7185
1449934;8040
1449942;15686
1449950;17066
1449958;16209
1449967;15546
1449976;15096
1449984;14914
1449992;14574
1450000;14445
1450008;14279
1450017;14233
1450025;14124
1450033;14071
1450041;13988
1450049;13923
1450057;13760
1450066;13633
1450074;13484
1450082;13327
1450090;13194
1450098;12980
1450107;12742
1450115;12495
1450123;12313
1450131;12205
1450139;12221
1450148;12261
1450156;12425
1450164;12562
1450172;12848
1450180;13149
1450189;13591
1450200;14124
1450208;14403
1450216;14667
1450224;14744
1450233;14864
1450241;14860
1450249;14932
1450257;14908
1450266;14926
1450275;14829
1450283;14800
1450291;14712
1450299;14675
1450307;14643
1450316;14542
1450324;14484
1450332;14474
1450340;14479
1450348;14459
1450356;14439
1450365;14330
1450373;14339
1450381;14196
1450389;14171
1450397;14041
1450406;14034
1450414;13909
1450422;13959
1450430;13846
1450438;13916
1450447;13859
1450455;13927
1450463;13788
1450471;13828
1450479;13690
1450491;13700
1450499;13706
1450507;13551
1450515;13436
1450523;13934
1450532;12744
1450540;9288
1450548;6186
1450556;6363
1450564;13834
1450573;15669
1450581;14900
1450590;14237
1450598;13794
1450606;13576
1450615;13237
1450623;13141
1450631;12995
1450639;12936
1450647;12777
1450655;12735
1450664;12613
1450672;12677
1450680;12495
1450688;12417
1450696;12165
1450705;12093
1450713;11903
1450721;11845
1450729;11569
1450737;11500
1450746;11256
1450754;11303
1450762;11268
1450773;11526
1450781;11714
1450790;11942
1450798;12235
1450806;12705
1450814;13116
1450822;13549
1450831;13802
1450839;14050
1450847;14094
1450855;14194
1450863;14208
1450872;14282
1450880;14212
1450888;14280
1450896;14144
1450905;14193
1450914;14076
1450922;14112
1450930;14011
1450938;14054
1450946;13922
1450954;14010
1450963;13916
1450971;14024
1450979;13946
1450987;14048
1450995;13969
1451004;14093
1451012;13958
1451020;13987
1451028;13743
1451036;13736
1451045;13567
1451056;13686
1451064;13771
1451072;13879
1451080;13920
1451089;14047
1451097;14045
1451105;14074
1451113;14016
1451121;14085
1451130;14014
1451138;14036
1451146;13901
1451154;13849
1451162;14371
1451171;13915
1451179;10904
1451187;6675
1451195;5038
1451203;11795
1451212;15816
1451220;15602
1451229;14954
1451237;14785
1451245;14542
1451254;14404
1451262;14193
1451270;14272
1451278;14100
1451286;14158
1451294;13993
1451303;14083
1451311;13858
1451319;13861
1451327;13618
1451338;13647
1451347;13502
1451355;13388
1451363;13050
1451371;12873
1451379;12583
1451388;12460
1451396;12278
1451404;12314
1451412;12193
1451420;12355
1451429;12397
1451437;12758
1451445;13022
1451453;13450
1451461;13652
1451470;14004
1451478;14033
1451486;14233
1451494;14138
1451502;14234
1451511;14086
1451519;14148
1451527;13900
1451535;13913
1451544;13682
1451553;13760
1451561;13531
1451569;13551
1451577;13293
1451585;13328
1451593;13131
1451602;13255
1451610;13113
1451621;13310
1451629;13322
1451638;13428
1451646;13338
1451654;13438
1451662;13365
1451670;13400
1451678;13100
1451687;13094
1451695;13031
1451703;13213
1451711;13123
1451719;13230
1451728;13168
1451736;13384
1451744;13393
1451752;13548
1451760;13449
1451769;13605
1451777;13478
1451785;13622
1451793;13475
1451801;13545
1451810;13474
1451818;14209
1451826;12589
1451834;8764
1451842;4840
1451850;6612
1451859;14258
1451868;15611
1451876;14963
1451884;14639
1451892;14395
1451901;14277
1451912;14067
1451920;14156
1451928;13964
1451937;14062
1451945;13839
1451953;13870
1451961;13658
1451969;13755
1451977;13555
1451986;13618
1451994;13387
1452002;13380
1452010;13032
1452018;12971
1452027;12671
1452035;12603
1452043;12282
1452051;12345
1452059;12226
1452068;12448
1452076;12420
1452084;12790
1452092;12996
1452100;13488
1452109;13742
1452117;14221
1452125;14384
1452133;14725
1452141;14731
1452150;14901
1452158;14779
1452166;14857
1452175;14681
1452183;14693
1452194;14559
1452202;14686
1452210;14456
1452218;14500
1452227;14349
1452236;14467
1452244;14280
1452252;14385
1452260;14260
1452268;14414
1452276;14308
1452285;14469
1452293;14344
1452301;14485
1452309;14280
1452317;14320
1452326;14060
1452334;14016
1452342;13767
1452350;13886
1452358;13776
1452367;13911
1452375;13820
1452383;13960
1452391;13900
1452399;14102
1452408;13963
1452416;14078
1452424;13862
1452432;13877
1452440;13707
1452449;13756
1452457;13533
1452465;13536
1452476;14022
1452484;12269
1452493;7971
1452501;4826
1452509;7893
1452517;14927
1452525;15138
1452534;14628
1452542;14007
1452551;14002
1452559;13476
1452567;13404
1452575;13108
1452584;13096
1452592;12817
1452600;12881
1452608;12737
1452616;12824
1452625;12625
1452633;12639
1452641;12454
1452649;12481
1452657;12220
1452666;12201
1452674;11991
1452682;11922
1452690;11705
1452698;11687
1452707;11565
1452715;11715
1452723;11761
1452731;12033
1452739;12211
1452748;12626
1452759;13205
1452767;13860
1452775;14103
1452783;14552
1452792;14605
1452800;14865
1452808;14818
1452816;15004
1452824;14892
1452833;14998
1452841;14838
1452849;14941
1452858;14752
1452866;14798
1452874;14604
1452883;14596
1452891;14491
1452899;14529
1452907;14408
1452915;14453
1452924;14350
1452932;14354
1452940;14264
1452948;14229
1452956;14111
1452965;14083
1452973;14009
1452981;13926
1452989;13732
1452997;13548
1453006;13529
1453014;13604
1453022;13686
1453030;13691
1453041;13834
1453050;14168
1453058;14086
1453066;14190
1453074;14053
1453082;14158
1453091;14030
1453099;14160
1453107;14069
1453115;14191
1453123;14336
1453132;14804
1453140;12855
1453148;9031
1453156;6135
1453164;9407
1453172;16191
1453182;16337
1453190;15576
1453198;14985
1453206;14675
1453214;14443
1453223;14100
1453231;13896
1453239;13720
1453247;13562
1453255;13424
1453264;13263
1453272;13138
1453280;13010
1453288;12954
1453296;12779
1453305;12701
1453313;12534
1453321;12452
1453332;12244
1453340;11941
1453349;11866
1453357;11594
1453365;11621
1453373;11538
1453381;11731
1453390;11795
1453398;12027
1453406;12285
1453414;12749
1453422;13143
1453431;13559
1453439;13823
1453447;14035
1453455;14131
1453463;14230
1453471;14258
1453480;14246
1453488;14242
1453496;14182
1453505;14211
1453513;14138
1453522;14117
1453530;14009
1453538;14019
1453546;13951
1453554;14038
1453563;13968
1453571;14085
1453579;14030
1453587;14166
1453595;14062
1453604;14143
1453615;14057
1453623;13880
1453631;13799
1453639;13709
1453648;13669
1453656;13634
1453664;13711
1453672;13728
1453680;13879
1453689;13897
1453697;13857
1453705;13861
1453713;13827
1453721;13799
1453730;13736
1453738;13676
1453746;13504
1453754;13843
1453762;13712
1453770;11425
1453779;7587
1453787;5582
1453795;10477
1453803;15988
1453811;15532
1453820;14937
1453829;14259
1453837;14147
1453845;13824
1453853;13766
1453862;13518
1453870;13552
1453878;13352
1453886;13468
1453897;13394
1453906;13338
1453914;13202
1453922;13045
1453930;12883
1453938;12762
1453947;12492
1453955;12302
1453963;12069
1453971;11967
1453979;11832
1453988;11750
1453996;11647
1454004;11751
1454012;11819
1454020;12163
1454029;12263
1454037;12836
1454045;13319
1454053;13968
1454061;14546
1454070;14876
1454078;14760
1454086;14961
1454094;14939
1454102;15171
1454110;15033
1454119;15079
1454127;14767
1454136;14793
1454144;14720
1454152;14997
1454161;14619
1454169;14707
1454180;14558
1454188;14537
1454196;14426
1454205;14387
1454213;14323
1454221;14311
1454229;14125
1454237;14026
1454246;13872
1454254;13782
1454262;13502
1454270;13425
1454278;13236
1454287;13413
1454295;13420
1454303;13519
1454311;13401
1454319;13591
1454328;13331
1454336;13564
1454344;13580
1454352;13510
1454360;13208
1454369;13372
1454377;13120
1454385;13301
1454393;13752
1454401;12532
1454409;8454
1454418;4827
1454426;5796
1454434;13834
1454442;15190
1454451;14971
1454460;14293
1454470;14280
1454478;13973
1454486;13884
1454494;13622
1454504;13541
1454512;13284
1454520;13347
1454528;13242
1454536;13306
1454545;13099
1454553;13122
1454561;12844
1454569;12858
1454577;12577
1454586;12507
1454594;12144
1454602;12089
1454610;11739
1454618;11756
1454627;11515
1454635;11725
1454643;11625
1454651;11941
1454659;11995
1454668;12548
1454676;12770
1454684;13369
1454692;13480
1454700;13880
1454708;13841
1454717;14127
1454725;13952
1454733;14161
1454741;13954
1454753;14190
1454761;14089
1454769;14127
1454777;13966
1454785;14066
1454793;13892
1454802;14046
1454811;13925
1454819;14128
1454827;14023
1454835;14256
1454844;14098
1454852;14274
1454860;14134
1454868;14349
1454876;14163
1454885;14346
1454893;14054
1454901;14120
1454909;13839
1454917;14035
1454926;13859
1454934;14058
1454942;13882
1454950;14145
1454958;14027
1454967;14281
1454975;14082
1454983;14254
1454991;14004
1454999;14150
1455007;13895
1455016;13980
1455024;13702
1455035;14486
1455043;12421
1455052;8335
1455060;4780
1455068;7927
1455076;14951
1455084;15740
1455092;15017
1455101;14774
1455109;14453
1455117;14369
1455125;14027
1455134;14115
1455143;13796
1455151;13908
1455159;13632
1455167;13737
1455175;13479
1455184;13612
1455192;13267
1455200;13319
1455208;12949
1455216;12962
1455225;12558
1455233;12590
1455241;12167
1455249;12136
1455257;11750
1455266;11865
1455274;11698
1455282;12008
1455290;11975
1455298;12353
1455306;12485
1455318;13260
1455326;13555
1455334;14033
1455342;14101
1455351;14457
1455359;14361
1455367;14556
1455375;14338
1455383;14522
1455391;14277
1455400;14384
1455408;14153
1455416;14323
1455424;14125
1455432;14272
1455441;14039
1455450;14184
1455458;13918
1455466;14092
1455474;13859
1455483;14019
1455491;13820
1455499;13976
1455507;13757
1455515;13915
1455524;13727
1455532;13820
1455540;13521
1455548;13510
1455556;13265
1455565;13430
1455573;13327
1455581;13500
1455589;13409
1455600;13736
1455609;13723
1455617;13951
1455625;13724
1455633;13865
1455641;13639
1455650;13842
1455658;13613
1455666;13807
1455674;13597
1455682;14517
1455690;13059
1455699;9575
1455707;5286
1455715;5990
1455723;13700
1455731;15791
1455740;15106
1455748;14796
1455756;14484
1455764;14424
1455772;14046
1455782;14148
1455790;13931
1455798;14067
1455806;13858
1455814;13934
1455823;13701
1455831;13797
1455839;13574
1455847;13576
1455855;13341
1455864;13336
1455872;13073
1455880;12970
1455891;12541
1455899;12518
1455908;12121
1455916;12211
1455924;12026
1455932;12259
1455940;12120
1455949;12471
1455957;12578
1455965;13158
1455973;13380
1455981;13892
1455990;14017
1455998;14389
1456006;14315
1456014;14530
1456022;14348
1456030;14475
1456039;14297
1456047;14396
1456055;14200
1456063;14257
1456071;14063
1456080;14196
1456088;14062
1456097;14182
1456105;14027
1456113;14172
1456122;14104
1456130;14284
1456138;14230
1456146;14415
1456154;14285
1456163;14356
1456174;14097
1456182;14162
1456190;13910
1456198;13959
1456207;13745
1456215;13905
1456223;13766
1456231;13970
1456239;13865
1456248;14024
1456256;13871
1456264;14038
1456272;13870
1456280;13989
1456289;13824
1456297;13905
1456305;13796
1456313;14449
1456321;12865
1456329;9308
1456338;6085
1456346;7934
1456354;15278
1456362;16094
1456370;15209
1456379;14715
1456387;14306
1456395;14197
1456403;13839
1456411;13792
1456421;13641
1456429;13673
1456437;13557
1456445;13564
1456455;13513
1456465;13691
1456473;13378
1456481;13408
1456489;13088
1456497;13060
1456506;12729
1456514;12706
1456522;12279
1456530;12231
1456538;11915
1456547;11996
1456555;11892
1456563;12107
1456571;12111
1456579;12473
1456588;12735
1456596;13343
1456604;13644
1456612;14096
1456620;14287
1456628;14558
1456637;14547
1456645;14693
1456653;14646
1456661;14721
1456669;14624
1456678;14635
1456686;14464
1456694;14474
1456702;14372
1456710;14340
1456719;14250
1456727;14243
1456738;14213
1456746;14411
1456754;14227
1456763;14333
1456772;14132
1456780;14184
1456788;13896
1456796;13942
1456805;13780
1456813;13931
1456821;13888
1456829;14088
1456837;14060
1456846;14275
1456854;14253
1456862;14361
1456870;14238
1456878;14252
1456887;14088
1456895;14105
1456903;13936
1456911;13923
1456919;13933
1456927;14217
1456936;12354
1456944;8761
1456952;6143
1456960;9155
1456968;15905
1456977;16161
1456985;15460
1456993;14847
1457001;14542
1457009;14280
1457018;14015
1457029;13910
1457037;13752
1457045;13758
1457053;13484
1457062;13458
1457070;13210
1457078;13210
1457087;12987
1457095;12961
1457104;12749
1457112;12720
1457120;12486
1457128;12394
1457136;12093
1457145;11996
1457153;11808
1457161;11857
1457169;11937
1457177;12056
1457186;12131
1457194;12435
1457202;12822
1457210;13258
1457218;13648
1457226;13910
1457235;14118
1457243;14181
1457251;14238
1457259;14189
1457267;14280
1457276;14149
1457284;14205
1457292;14090
1457300;14154
1457311;14152
1457320;14088
1457328;14079
1457336;13911
1457344;13975
1457352;13897
1457361;13922
1457369;13851
1457377;13910
1457385;13865
1457393;13823
1457403;13686
1457411;13599
1457419;13544
1457427;13491
1457435;13488
1457444;13570
1457452;13683
1457460;13747
1457468;13836
1457476;13781
1457485;13770
1457493;13646
1457501;13675
1457509;13545
1457517;13587
1457526;13438
1457534;13906
1457542;13456
1457550;11097
1457558;7281
1457566;5308
1457575;10596
1457583;15677
1457594;15334
1457602;14760
1457610;14460
1457619;14221
1457627;13962
1457635;13795
1457643;13654
1457651;13602
1457660;13528
1457668;13472
1457676;13418
1457684;13332
1457692;13182
1457701;13104
1457709;12971
1457717;12920
1457726;12760
1457734;12631
1457743;12344
1457751;12181
1457759;11910
1457767;11889
1457775;11884
1457784;11998
1457792;12000
1457800;12264
1457808;12485
1457816;13032
1457825;13316
1457833;13805
1457841;13904
1457849;14232
1457857;14202
1457865;14408
1457877;14460
1457885;14486
1457893;14456
1457901;14441
1457910;14383
1457918;14361
1457926;14312
1457934;14305
1457942;14248
1457950;14227
1457959;14161
1457967;14169
1457975;14131
1457983;14200
1457991;14134
1458000;14205
1458008;14017
1458016;14043
1458024;13818
1458032;13880
1458041;13725
1458050;13876
1458058;13813
1458066;14030
1458074;13951
1458083;14200
1458091;14039
1458099;14142
1458107;13945
1458115;14104
1458124;13854
1458132;13905
1458140;13627
1458148;14160
1458159;13430
1458168;10289
1458176;6396
1458184;5784
1458192;13002
1458200;15909
1458209;15503
1458217;15029
1458225;14621
1458233;14462
1458241;14070
1458249;13997
1458258;13788
1458266;13823
1458274;13631
1458282;13716
1458290;13555
1458299;13607
1458307;13456
1458315;13508
1458323;13267
1458331;13263
1458340;13023
1458348;12965
1458356;12612
1458364;12512
1458373;12176
1458382;12171
1458390;12014
1458398;12226
1458406;12110
1458414;12394
1458423;12459
1458431;13034
1458439;13263
1458450;13910
1458458;14101
1458467;14315
1458475;14279
1458483;14432
1458491;14322
1458499;14476
1458508;14368
1458516;14399
1458524;14223
1458532;14253
1458540;14076
1458548;14163
1458557;14003
1458565;14102
1458573;13952
1458581;14056
1458589;13911
1458598;14029
1458606;13885
1458614;14033
1458622;13836
1458630;14016
1458639;13743
1458647;13764
1458655;13389
1458663;13497
1458671;13283
1458681;13474
1458689;13312
1458697;13482
1458705;13331
1458713;13578
1458722;13493
1458733;13732
1458741;13670
1458749;13737
1458757;13604
1458766;13638
1458774;13416
1458782;13599
1458790;13953
1458798;12493
1458807;8408
1458815;4813
1458823;5958
1458831;13829
1458839;15152
1458847;14931
1458856;14315
1458864;14287
1458872;13894
1458880;13872
1458888;13590
1458897;13689
1458905;13460
1458913;13586
1458921;13377
1458929;13538
1458938;13308
1458946;13372
1458954;13069
1458962;13115
1458970;12835
1458979;12840
1458987;12443
1458995;12359
1459004;11940
1459051;14088
1459059;14136
1459068;14104
1459076;14340
1459084;14449
1459092;14657
1459100;14673
1459109;14687
1459117;14636
1459125;14579
1459133;14463
1459142;14349
1459151;14202
1459159;14081
1459167;14013
1459175;13859
1459183;13767
1459192;13623
1459200;13605
1459208;13487
1459216;13520
1459224;13430
1459233;13534
1459241;13459
1459249;13558
1459257;13470
1459265;13585
1459273;13525
1459282;13542
1459290;13231
1459298;13209
1459306;13105
1459314;13241
1459323;13104
1459334;13240
1459342;13373
1459350;13395
1459358;13514
1459367;13509
1459375;13501
1459383;13488
1459391;13457
1459399;13498
1459408;13440
1459416;13419
1459424;13905
1459432;13781
1459440;11103
1459449;6887
1459457;4558
1459466;9978
1459474;15252
1459482;15404
1459491;14784
1459499;14519
1459507;14225
1459515;14035
1459523;13787
1459532;13810
1459540;13582
1459548;13627
1459556;13355
1459564;13398
1459572;13149
1459581;13155
1459589;12951
1459597;13061
1459605;12836
1459613;12870
1459625;12653
1459633;12539
1459641;12288
1459649;12054
1459657;11887
1459666;11890
1459674;11897
1459682;12060
1459690;12151
1459698;12470
1459707;12738
1459715;13233
1459723;13495
1459731;13891
1459739;13959
1459748;14200
1459756;14108
1459764;14223
1459772;14063
1459780;14170
1459789;13981
1459798;14045
1459806;13892
1459814;13985
1459822;13840
1459831;13967
1459839;13809
1459847;13948
1459855;13803
1459863;13979
1459871;13821
1459880;13987
1459888;13842
1459896;14052
1459907;14009
1459916;14180
1459924;14041
1459932;13985
1459940;13631
1459948;13677
1459956;13633
1459965;13776
1459973;13629
1459981;13769
1459989;13716
1459997;13913
1460006;13933
1460014;14091
1460022;13948
1460030;14058
1460038;13906
1460047;14071
1460055;13853
1460063;13933
1460071;13724
1460079;14505
1460088;12838
1460096;9040
1460104;4787
1460112;5793
1460120;13494
1460130;15509
1460138;14922
1460146;14630
1460154;14269
1460162;14193
1460170;13818
1460179;13919
1460190;13789
1460198;13871
1460206;13688
1460215;13704
1460223;13483
1460231;13485
1460239;13243
1460247;13266
1460255;12968
1460264;12973
1460272;12652
1460280;12616
1460288;12283
1460296;12259
1460305;11941
1460313;12095
1460321;11980
1460329;12246
1460337;12185
1460346;12606
1460354;12798
1460362;13383
1460370;13609
1460378;14135
1460387;14200
1460395;14562
1460403;14458
1460411;14704
1460419;14539
1460428;14694
1460437;14472
1460445;14588
1460453;14338
1460461;14445
1460472;14271
1460480;14429
1460489;14168
1460497;14246
1460505;14055
1460514;14140
1460522;13943
1460530;14072
1460538;13890
1460546;14096
1460554;13932
1460563;14109
1460571;13931
1460579;14113
1460587;13898
1460595;13969
1460604;13613
1460612;13652
1460620;13410
1460628;13600
1460636;13408
1460645;13608
1460653;13457
1460661;13731
1460669;13677
1460677;13949
1460686;13769
1460694;13956
1460702;13723
1460710;13848
1460718;13617
1460727;13720
1460735;13510
1460744;14376
1460754;12065
1460762;8100
1460771;4780
1460779;8416
1460787;15092
1460795;15719
1460803;14944
1460813;14680
1460821;14319
1460829;14298
1460837;13991
1460845;14111
1460854;13829
1460862;13952
1460870;13722
1460878;13881
1460886;13608
1460894;13724
1460903;13437
1460911;13518
1460919;13191
1460927;13183
1460935;12843
1460944;12825
1460952;12415
1460960;12341
1460968;11994
1460976;12123
1460985;11964
1460993;12209
1461001;12187
1461009;12530
1461017;12688
1461026;13193
1461034;13471
1461045;14224
1461053;14319
1461061;14676
1461070;14581
1461078;14811
1461086;14576
1461094;14677
1461102;14391
1461111;14553
1461119;14333
1461128;14501
1461136;14277
1461144;14405
1461153;14176
1461161;14327
1461169;14106
1461177;14258
1461185;14053
1461193;14240
1461202;14101
1461210;14262
1461218;14129
1461226;14272
1461234;14140
1461243;14214
1461251;13944
1461259;13922
1461267;13727
1461275;13844
1461284;13720
1461292;13841
1461300;13823
1461308;14005
1461316;14059
1461328;14403
1461336;14272
1461344;14434
1461352;14167
1461360;14302
1461369;14021
1461377;14102
1461385;13957
1461393;14510
1461401;12632
1461410;9091
1461418;6058
1461426;8803
1461434;15705
1461442;16155
1461452;15200
1461460;14723
1461468;14297
1461476;14255
1461484;13864
1461492;13842
1461501;13617
1461509;13627
1461517;13448
1461525;13496
1461533;13314
1461542;13330
1461550;13165
1461558;13148
1461566;12945
1461574;12874
1461583;12682
1461591;12560
1461599;12315
1461610;12180
1461618;11877
1461627;12026
1461635;11803
1461643;12053
1461651;12004
1461659;12388
1461668;12565
1461676;13067
1461684;13248
1461692;13725
1461700;13831
1461709;14071
1461717;14026
1461725;14186
1461733;14089
1461741;14186
1461750;13996
1461758;14037
1461766;13895
1461775;13958
1461783;13821
1461791;13860
1461800;13764
1461808;13839
1461816;13838
1461824;13905
1461832;13917
1461841;13964
1461849;13966
1461857;13955
1461865;13855
1461873;13769
1461882;13784
1461893;13908
1461901;13848
1461909;13991
1461917;13880
1461926;14139
1461934;13994
1461942;14145
1461950;13995
1461958;14088
1461967;13957
1461975;14017
1461983;13843
1461991;13913
1461999;13999
1462008;14107
1462016;11907
1462024;8468
1462032;6518
1462040;10537
1462049;16394
1462057;16266
1462065;15563
1462073;14976
1462081;14617
1462089;14386
1462098;14113
1462107;13960
1462115;13878
1462123;13733
1462131;13663
1462140;13521
1462148;13451
1462156;13373
1462164;13338
1462175;13255
1462184;13040
1462192;12999
1462200;12694
1462208;12587
1462216;12235
1462225;12171
1462233;11989
1462241;12098
1462249;12082
1462257;12198
1462266;12296
1462274;12669
1462282;12987
1462290;13401
1462298;13768
1462307;14109
1462315;14278
1462323;14395
1462331;14468
1462339;14502
1462348;14479
1462356;14438
1462364;14440
1462372;14307
1462380;14231
1462388;14120
1462397;14111
1462405;14016
1462414;14022
1462422;13870
1462430;13920
1462439;13849
1462447;14003
1462455;13872
1462466;13981
1462474;14068
1462483;13867
1462491;13866
1462499;13810
1462507;13861
1462515;13809
1462524;13934
1462532;13998
1462540;14090
1462548;14114
1462556;14134
1462565;14144
1462573;14085
1462581;14081
1462589;13984
1462597;13963
1462606;13800
1462614;14253
1462622;13618
1462630;11015
1462638;7386
1462647;5898
1462655;11890
1462663;16026
1462671;15495
1462679;14937
1462687;14284
1462696;14161
1462704;13792
1462712;13747
1462720;13506
1462728;13608
1462738;13412
1462748;13470
1462756;13473
1462764;13363
1462772;13279
1462781;13134
1462790;13016
1462798;12843
1462806;12642
1462814;12417
1462823;12144
1462831;11905
1462839;11659
1462847;11648
1462855;11587
1462864;11740
1462872;11810
1462880;12058
1462888;12269
1462896;12779
1462905;13106
1462913;13573
1462921;13732
1462929;14053
1462937;14030
1462946;14213
1462954;14097
1462962;14246
1462970;14063
1462978;14185
1462986;14004
1462995;14119
1463003;13876
1463011;14019
1463019;13794
1463031;13973
1463039;14009
1463047;13997
1463055;13957
1463063;14026
1463071;13982
1463080;14017
1463088;13875
1463097;13903
1463105;13707
1463113;13687
1463122;13548
1463130;13627
1463138;13519
1463146;13669
1463154;13599
1463163;13799
1463171;13796
1463179;14034
1463187;14170
1463195;14531
1463204;14481
1463212;14747
1463220;14627
1463228;14811
1463236;14714
1463245;15407
1463253;13782
1463261;10339
1463269;6617
1463277;8110
1463286;15371
1463294;16741
1463302;16060
1463313;15590
1463321;15355
1463330;15131
1463338;14813
1463346;14761
1463354;14571
1463362;14568
1463370;14335
1463379;14351
1463387;14089
1463395;14092
1463403;13799
1463411;13765
1463421;13478
1463429;13460
1463437;13007
1463445;12883
1463453;12456
1463462;12397
1463470;12045
1463478;12122
1463486;11952
1463494;12197
1463503;12135
1463511;12552
1463519;12733
1463527;13364
1463535;13553
1463544;14068
1463552;14156
1463560;14496
1463568;14337
1463576;14569
1463585;14333
1463596;14486
1463604;14433
1463612;14495
1463620;14307
1463629;14390
1463637;14206
1463645;14289
1463653;14075
1463661;14151
1463670;13946
1463678;14086
1463686;13857
1463694;13989
1463702;13829
1463710;13970
1463719;13725
1463727;13895
1463735;13651
1463743;13742
1463752;13360
1463761;13467
1463769;13239
1463777;13434
1463785;13229
1463793;13430
1463802;13250
1463810;13540
1463818;13425
1463826;13651
1463834;13462
1463843;13671
1463851;13438
1463859;13643
1463867;13346
1463875;13454
1463887;13999
1463895;13192
1463903;9589
1463911;5753
1463919;5257
1463928;12804
1463936;15235
1463944;15126
1463952;14412
1463960;14357
1463969;13911
1463977;13850
1463985;13543
1463993;13643
1464001;13359
1464009;13493
1464018;13222
1464026;13347
1464034;13053
1464042;13180
1464050;12897
1464059;12976
1464067;12660
1464076;12697
1464084;12311
1464092;12303
1464101;11853
1464109;11869
1464117;11589
1464125;11794
1464133;11661
1464142;11938
1464150;11935
1464158;12448
1464169;12892
1464177;13561
1464186;13699
1464194;14168
1464202;14152
1464210;14457
1464218;14321
1464227;14509
1464235;14303
1464243;14468
1464251;14226
1464259;14385
1464268;14163
1464276;14304
1464284;14081
1464292;14255
1464300;14002
1464308;14203
1464317;13973
1464325;14164
1464333;13970
1464341;14195
1464349;13970
1464358;14165
1464366;13964
1464374;14114
1464382;13922
1464391;14069
1464400;13747
1464408;13804
1464416;13565
1464424;13690
1464432;13526
1464441;13686
1464452;13587
1464460;13874
1464468;13770
1464476;14011
1464485;13785
1464493;13952
1464501;13700
1464509;13883
1464517;13624
1464526;13774
1464534;13536
1464542;14383
1464550;12993
1464558;9625
1464567;5519
1464575;5756
1464583;13088
1464591;15621
1464599;15092
1464607;14704
1464616;14316
1464624;14287
1464632;13868
1464640;13893
1464648;13612
1464657;13642
1464665;13449
1464673;13540
1464681;13351
1464689;13467
1464698;13228
1464706;13270
1464715;13020
1464723;13019
1464733;12708
1464742;12724
1464750;12237
1464758;12156
1464767;11718
1464775;11790
1464784;11552
1464792;11785
1464800;11693
1464808;12112
1464816;12286
1464825;12923
1464833;13154
1464841;13705
1464849;13767
1464857;14142
1464866;14096
1464874;14286
1464882;14127
1464890;14267
1464898;14084
1464906;14212
1464915;14037
1464923;14144
1464931;13975
1464939;14077
1464947;13927
1464956;14049
1464964;13912
1464972;14019
1464980;13919
1464988;14017
1464997;13942
1465005;14035
1465016;14003
1465024;14216
1465032;13962
1465041;14122
1465049;13902
1465057;14052
1465065;13744
1465074;13780
1465083;13465
1465091;13614
1465099;13437
1465107;13576
1465115;13421
1465124;13612
1465132;13523
1465140;13748
1465148;13645
1465156;13838
1465165;13708
1465173;13855
1465181;13693
1465189;13791
1465197;13611
1465206;13686
1465214;14220
1465222;13052
1465230;9215
1465238;5391
1465246;5586
1465255;13309
1465263;15398
1465271;15143
1465279;14504
1465287;14350
1465296;14036
1465307;13979
1465315;13780
1465323;13872
1465331;13571
1465340;13633
1465348;13366
1465356;13473
1465364;13227
1465372;13302
1465381;13001
1465390;13053
1465398;12764
1465406;12770
1465414;12421
1465423;12310
1465431;11922
1465439;11854
1465447;11574
1465455;11642
1465464;11588
1465472;11819
1465480;11907
1465488;12376
1465496;12776
1465505;13312
1465513;13551
1465521;13860
1465529;13948
1465537;14132
1465545;14138
1465554;14195
1465562;14225
1465570;14215
1465578;14220
1465590;14373
1465598;14229
1465606;14334
1465614;14128
1465622;14214
1465630;14018
1465639;14147
1465647;13977
1465655;14109
1465663;14009
1465671;14191
1465680;14037
1465688;14223
1465696;14146
1465705;14236
1465713;14122
1465722;14223
1465730;14129
1465738;14140
1465746;13981
1465754;13887
1465763;13770
1465771;13824
1465779;13820
1465787;13806
1465795;13797
1465804;13857
1465812;13963
1465820;14033
1465828;14063
1465836;13998
1465844;14015
1465853;13942
1465861;13951
1465872;13933
1465880;13917
1465889;14508
1465897;12668
1465905;8781
1465913;5166
1465921;7315
1465929;14683
1465938;15750
1465946;15095
1465954;14579
1465962;14287
1465970;14031
1465979;13785
1465987;13694
1465995;13539
1466003;13447
1466011;13387
1466020;13340
1466028;13283
1466036;13185
1466045;13113
1466053;12965
1466062;12853
1466070;12581
1466078;12418
1466086;12153
1466094;11964
1466103;11610
1466111;11479
1466119;11226
1466127;11260
1466135;11165
1466143;11334
1466155;11625
1466163;11928
1466171;12377
1466179;12650
1466188;13079
1466196;13296
1466204;13528
1466212;13567
1466220;13658
1466228;13681
1466237;13673
1466245;13625
1466253;13586
1466261;13590
1466269;13552
1466278;13600
1466286;13587
1466294;13601
1466302;13541
1466310;13569
1466319;13572
1466327;13701
1466335;13606
1466343;13696
1466351;13628
1466360;13744
1466369;13641
1466377;13763
1466385;13674
1466393;13843
1466402;13764
1466410;13917
1466418;13775
1466426;13873
1466434;13577
1466446;13658
1466454;13758
1466462;13664
1466470;13685
1466478;13717
1466487;13792
1466495;13862
1466503;13925
1466511;13944
1466519;13911
1466527;13900
1466536;13865
1466544;13922
1466552;13833
1466560;13833
1466568;14370
1466577;13751
1466585;10583
1466593;6748
1466601;5790
1466609;12990
1466618;16068
1466626;15690
1466634;14885
1466642;14738
1466650;14434
1466659;14332
1466667;14034
1466675;14109
1466684;13884
1466692;13998
1466701;13756
1466709;13857
1466717;13649
1466728;13707
1466736;13698
1466745;13531
1466753;13353
1466761;13144
1466769;12909
1466777;12608
1466786;12349
1466794;12161
1466802;11954
1466810;11916
1466818;11884
1466826;12072
1466835;12125
1466843;12495
1466851;12833
1466859;13347
1466867;13655
1466876;14064
1466884;14243
1466892;14489
1466900;14502
1466908;14656
1466917;14570
1466925;14651
1466933;14488
1466941;14471
1466949;14338
1466958;14465
1466966;14259
1466974;14347
1466982;14078
1466991;14210
1467000;13995
1467010;14146
1467018;14163
1467026;14180
1467034;14126
1467044;14168
1467052;14201
1467060;14283
1467068;14240
1467076;14294
1467085;14158
1467093;14107
1467101;13912
1467109;13954
1467117;13837
1467126;13978
1467134;13948
1467142;14127
1467150;14111
1467158;14277
1467166;14154
1467175;14317
1467183;14185
1467191;14366
1467199;14192
1467207;14289
1467216;14142
1467224;14872
1467232;13353
1467240;9927
1467248;6683
1467257;8184
1467265;15526
1467273;16567
1467281;15680
1467292;15036
1467301;14803
1467309;14548
1467317;14222
1467325;14110
1467333;13876
1467342;13846
1467350;13620
1467359;13608
1467367;13411
1467375;13410
1467384;13173
1467392;13179
1467400;12915
1467408;12887
1467416;12552
1467425;12506
1467433;12149
1467441;12064
1467449;11734
1467457;11800
1467465;11641
1467474;11873
1467482;11895
1467490;12256
1467498;12460
1467506;13072
1467515;13269
1467523;13788
1467531;13819
1467539;14149
1467547;14064
1467556;14273
1467564;14094
1467575;14325
1467583;14291
1467591;14354
1467600;14215
1467608;14248
1467616;14051
1467624;14130
1467632;13987
1467641;14095
1467649;13927
1467657;14043
1467665;13860
1467674;14004
1467683;13847
1467691;14023
1467699;13824
1467707;13980
1467715;13692
1467724;13722
1467732;13524
1467740;13678
1467748;13510
1467756;13740
1467764;13641
1467773;13879
1467781;13779
1467789;14003
1467797;13820
1467805;13996
1467814;13752
1467822;13885
1467830;13631
1467838;13752
1467846;13505
1467855;14226
1467866;12027
1467874;8560
1467882;5732
1467890;9295
1467899;15778
1467907;16024
1467915;15202
1467923;14806
1467931;14402
1467940;14319
1467948;13898
1467956;13937
1467964;13627
1467972;13700
1467981;13449
1467989;13529
1467997;13205
1468005;13304
1468014;13026
1468023;13189
1468031;12904
1468039;12933
1468047;12561
1468055;12532
1468063;12086
1468072;12069
1468080;11708
1468088;11834
1468096;11670
1468104;11890
1468113;11785
1468121;12211
1468129;12391
1468137;13023
1468148;13518
1468157;14072
1468165;14096
1468173;14421
1468181;14338
1468189;14526
1468198;14327
1468206;14475
1468214;14204
1468222;14308
1468230;14074
1468239;14175
1468247;13908
1468255;14006
1468263;13740
1468271;13874
1468280;13643
1468288;13779
1468296;13571
1468304;13756
1468312;13605
1468321;13841
1468329;13681
1468337;13813
1468346;13588
1468354;13649
1468362;13382
1468371;13563
1468379;13433
1468387;13606
1468395;13514
1468403;13729
1468412;13698
1468420;13928
1468431;13846
1468439;14105
1468447;13886
1468456;14035
1468464;13814
1468472;13956
1468480;13770
1468488;14587
1468497;13226
1468505;9829
1468513;5790
1468521;6605
1468529;14093
1468538;15962
1468546;15204
1468554;14807
1468562;14448
1468570;14381
1468579;13998
1468587;14075
1468595;13828
1468603;13906
1468611;13712
1468620;13884
1468628;13656
1468636;13700
1468644;13410
1468652;13448
1468660;13240
1468670;13234
1468678;12936
1468686;12842
1468694;12489
1468702;12348
1468713;11977
1468722;12124
1468730;11922
1468738;12137
1468746;12042
1468755;12415
1468763;12573
1468771;13205
1468779;13419
1468787;13927
1468796;13991
1468804;14316
1468812;14222
1468820;14413
1468828;14265
1468837;14398
1468845;14167
1468853;14286
1468861;14058
1468869;14168
1468878;13962
1468886;14027
1468894;13920
1468902;14056
1468910;13951
1468919;14097
1468927;13997
1468935;14112
1468943;14012
1468951;14114
1468959;14017
1468968;14028
1468976;13906
1468985;13750
1468995;13481
1469004;13658
1469012;13412
1469020;13587
1469029;13470
1469037;13694
1469046;13613
1469054;13864
1469062;13708
1469070;13858
1469078;13678
1469086;13804
1469095;13613
1469103;13698
1469111;13463
1469119;14061
1469127;13621
1469136;11110
1469144;6782
1469152;4675
1469160;10286
1469168;15307
1469177;15161
1469185;14585
1469193;14214
1469201;14085
1469209;13811
1469218;13739
1469226;13617
1469234;13585
1469242;13522
1469250;13502
1469258;13406
1469267;13342
1469275;13245
1469286;13310
1469294;13085
1469303;13060
1469311;12704
1469319;12668
1469327;12301
1469335;12239
1469343;11890
1469353;11910
1469361;11735
1469369;11908
1469377;11876
1469385;12174
1469394;12357
1469402;12821
1469410;13088
1469418;13554
1469426;13772
1469435;14038
1469443;14101
1469451;14193
1469459;14164
1469467;14212
1469476;14127
1469484;14095
1469492;14004
1469500;13949
1469508;13921
1469517;13865
1469525;13849
1469533;13765
1469541;13804
1469549;13756
1469558;13828
1469569;13915
1469577;13775
1469585;13864
1469593;13706
1469602;13808
1469610;13648
1469618;13687
1469626;13446
1469634;13355
1469642;13200
1469652;13329
1469660;13281
1469668;13325
1469676;13294
1469684;13396
1469693;13452
1469701;13533
1469709;13454
1469717;13433
1469725;13412
1469734;13440
1469742;13444
1469750;13436
1469758;13436
1469766;14091
1469775;12941
1469783;9256
1469791;5168
1469799;5523
1469807;13508
1469816;15502
1469824;15155
1469832;14600
1469840;14573
1469851;14352
1469860;14119
1469868;14076
1469876;13828
1469884;13785
1469892;13618
1469901;13590
1469909;13450
1469917;13391
1469925;13226
1469933;13189
1469942;13057
1469950;12955
1469958;12774
1469966;12617
1469975;12432
1469983;12267
1469992;12140
1470000;12067
1470008;12145
1470016;12211
1470024;12393
1470033;12556
1470041;12929
1470049;13238
1470057;13705
1470065;14003
1470074;14330
1470082;14392
1470090;14590
1470098;14499
1470106;14566
1470115;14396
1470123;14502
1470134;14494
1470142;14447
1470150;14396
1470159;14279
1470167;14259
1470175;14203
1470183;14233
1470191;14200
1470200;14171
1470208;14193
1470216;14233
1470224;14280
1470232;14256
1470241;14322
1470249;14291
1470257;14238
1470265;13972
1470273;13883
1470281;13750
1470290;13821
1470299;13712
1470307;13817
1470315;13780
1470323;13985
1470332;14039
1470340;14232
1470348;14107
1470356;14260
1470364;14133
1470373;14239
1470381;14055
1470389;14109
1470397;14316
1470405;14343
1470417;10616
1470425;6514
1470433;5923
1470441;13462
1470449;16127
1470458;15638
1470466;15004
1470474;14856
1470482;14570
1470490;14398
1470499;14235
1470507;14201
1470515;14052
1470523;14027
1470531;13879
1470540;13911
1470548;13724
1470556;13762
1470564;13564
1470572;13562
1470580;13303
1470589;13255
1470597;12955
1470605;12882
1470613;12480
1470621;12378
1470630;12089
1470639;12210
1470647;12078
1470655;12303
1470663;12293
1470672;12781
1470680;12984
1470688;13544
1470696;13707
1470707;14281
1470716;14485
1470724;14581
1470732;14609
1470740;14700
1470748;14622
1470757;14658
1470765;14579
1470773;14593
1470781;14484
1470789;14494
1470798;14362
1470806;14371
1470814;14238
1470822;14265
1470830;14160
1470839;14221
1470847;14162
1470855;14238
1470863;14129
1470871;14164
1470879;13866
1470888;13794
1470896;13571
1470904;13682
1470912;13545
1470920;13738
1470929;13638
1470937;13889
1470946;13808
1470954;14022
1470962;13821
1470971;13963
1470979;13768
1470989;13885
1470998;13828
1471006;13749
1471015;14035
1471023;13824
1471031;11346
1471039;7735
1471047;5765
1471056;11395
1471064;16163
1471072;15806
1471080;14978
1471088;14525
1471097;14183
1471105;14062
1471113;13709
1471121;13776
1471129;13551
1471138;13631
1471146;13400
1471154;13497
1471162;13251
1471170;13328
1471178;13119
1471187;13208
1471195;12947
1471203;13001
1471211;12702
1471219;12652
1471228;12280
1471236;12279
1471244;11986
1471252;12151
1471260;11981
1471272;12320
1471280;12405
1471288;12795
1471296;13037
1471304;13566
1471313;13778
1471322;14220
1471330;14268
1471338;14500
1471346;14453
1471355;14648
1471363;14538
1471371;14637
1471379;14455
1471387;14524
1471396;14297
1471404;14366
1471412;14110
1471420;14203
1471428;13954
1471437;14078
1471445;13866
1471453;14027
1471461;13822
1471469;14023
1471478;13779
1471486;13914
1471494;13650
1471502;13689
1471510;13449
1471518;13625
1471527;13412
1471535;13660
1471543;13544
1471554;13807
1471562;13860
1471571;13986
1471579;13841
1471587;13912
1471595;13711
1471603;13763
1471612;13507
1471621;13633
1471629;13431
1471637;14150
1471645;12762
1471654;9523
1471662;6108
1471670;6688
1471678;14213
1471686;16017
1471695;15197
1471703;14791
1471711;14272
1471719;14238
1471727;13774
1471736;13780
1471744;13509
1471752;13609
1471760;13351
1471768;13387
1471777;13133
1471785;13205
1471793;12929
1471801;12982
1471809;12690
1471817;12708
1471826;12356
1471834;12330
1471845;11931
1471853;11960
1471862;11659
1471870;11810
1471878;11716
1471886;12004
1471894;11986
1471902;12416
1471911;12592
1471919;13192
1471927;13402
1471936;13889
1471944;13943
1471953;14245
1471961;14140
1471969;14355
1471977;14192
1471985;14334
1471994;14070
1472002;14206
1472010;13920
1472018;14030
1472026;13801
1472035;13944
1472043;13752
1472051;13909
1472059;13741
1472067;13901
1472076;13733
1472084;13890
1472092;13761
1472100;13933
1472108;13796
1472116;13953
1472128;13889
1472136;14043
1472144;13691
1472152;13669
1472161;13423
1472169;13600
1472177;13415
1472185;13603
1472193;13411
1472201;13656
1472210;13563
1472218;13810
1472226;13655
1472234;13824
1472242;13578
1472252;13701
1472260;13499
1472268;13610
1472276;13432
1472284;14183
1472293;12497
1472301;8737
1472309;4753
1472317;6448
1472325;14091
1472334;15588
1472342;14935
1472350;14575
1472358;14291
1472366;14203
1472375;13908
1472383;13975
1472391;13805
1472399;13859
1472410;13711
1472419;13836
1472427;13549
1472435;13624
1472443;13355
1472451;13408
1472460;13069
1472468;13111
1472476;12733
1472484;12690
1472492;12234
1472500;12213
1472509;11854
1472517;11943
1472525;11814
1472533;12074
1472541;12096
1472550;12478
1472558;12661
1472566;13203
1472574;13478
1472582;13963
1472592;14096
1472600;14382
1472608;14330
1472616;14472
1472624;14334
1472633;14423
1472641;14291
1472649;14381
1472657;14288
1472665;14326
1472674;14216
1472682;14254
1472693;14131
1472701;14332
1472709;14091
1472718;14212
1472726;13991
1472734;14141
1472742;13955
1472750;14081
1472759;13890
1472767;14072
1472775;13890
1472783;13985
1472791;13628
1472799;13728
1472808;13544
1472816;13673
1472824;13504
1472832;13672
1472840;13585
1472849;13789
1472857;13749
1472865;13857
1472873;13754
1472881;13818
1472890;13698
1472898;13738
1472907;13588
1472915;13543
1472923;13827
1472932;13938
1472940;11512
1472948;7228
1472956;4474
1472964;9434
1472973;15332
1472984;15465
1472992;14745
1473000;14738
1473008;14364
1473017;14288
1473025;14006
1473033;14091
1473041;13854
1473049;13910
1473058;13672
1473066;13671
1473074;13449
1473082;13516
1473090;13312
1473098;13314
1473107;13048
1473115;12978
1473123;12695
1473131;12524
1473139;12208
1473148;12123
1473156;11953
1473164;12003
1473172;11997
1473180;12154
1473189;12295
1473197;12604
1473205;12956
1473213;13396
1473221;13778
1473230;14041
1473239;14272
1473247;14370
1473255;14464
1473265;14593
1473274;14489
1473282;14589
1473291;14389
1473299;14476
1473307;14316
1473316;14384
1473324;14220
1473332;14252
1473340;14065
1473348;14159
1473357;14085
1473365;14145
1473373;14042
1473381;14068
1473389;13977
1473398;14027
1473406;13991
1473414;14007
1473422;13939
1473430;13818
1473438;13612
1473447;13549
1473455;13525
1473463;13533
1473471;13568
1473479;13619
1473488;13699
1473496;13762
1473504;13849
1473512;13832
1473520;13819
1473529;13751
1473537;13803
1473548;13873
1473556;13769
1473564;13877
1473573;14358
1473581;13021
1473589;9044
1473597;5118
1473605;6317
1473615;14171
1473623;15492
1473631;14954
1473639;14387
1473647;14282
1473656;14008
1473664;13897
1473672;13842
1473680;13800
1473688;13719
1473697;13683
1473705;13639
1473713;13585
1473721;13519
1473729;13418
1473737;13329
1473746;13157
1473754;13072
1473762;12822
1473770;12720
1473778;12378
1473787;12226
1473795;11938
1473803;11989
1473811;11901
1473819;12066
1473831;12270
1473839;12467
1473847;12872
1473855;13204
1473863;13659
1473872;13910
1473880;14237
1473888;14344
1473896;14474
1473904;14479
1473913;14494
1473922;14465
1473930;14403
1473938;14316
1473946;14244
1473955;14219
1473963;14092
1473971;14044
1473979;13885
1473987;13878
1473996;13762
1474004;13798
1474012;13705
1474020;13791
1474028;13732
1474036;13779
1474045;13705
1474053;13867
1474061;13837
1474069;13967
1474077;13784
1474086;13732
1474094;13503
1474102;13620
1474113;13656
1474121;13673
1474130;13715
1474138;13721
1474146;13792
1474154;13838
1474162;13799
1474171;13775
1474179;13782
1474187;13770
1474195;13699
1474203;13676
1474213;13577
1474221;14222
1474229;13505
1474237;10384
1474245;6152
1474254;5380
1474262;12676
1474270;15774
1474278;15221
1474286;14706
1474295;14378
1474303;14256
1474311;13896
1474319;13896
1474327;13667
1474335;13699
1474344;13492
1474352;13578
1474360;13407
1474368;13497
1474376;13330
1474385;13414
1474393;13167
1474404;13134
1474412;13051
1474420;12833
1474429;12556
1474437;12374
1474445;12162
1474453;12118
1474461;12060
1474470;12202
1474478;12220
1474486;12476
1474494;12667
1474502;13154
1474511;13434
1474519;13904
1474527;14030
1474535;14304
1474544;14329
1474553;14538
1474561;14437
1474569;14550
1474577;14396
1474585;14473
1474594;14300
1474602;14387
1474610;14182
1474618;14270
1474626;14054
1474634;14206
1474643;13985
1474651;14155
1474659;14023
1474667;14168
1474675;13960
1474687;14207
1474695;14170
1474703;14165
1474711;13971
1474719;13918
1474728;13736
1474736;13827
1474744;13718
1474752;13848
1474760;13800
1474769;13984
1474777;13981
1474785;14128
1474793;13998
1474801;14112
1474810;13995
1474818;14115
1474826;13921
1474834;14013
1474842;13747
1474851;14399
1474860;13283
1474868;10303
1474876;6854
1474884;6836
1474893;14163
1474901;16579
1474909;15603
1474917;15028
1474925;14449
1474934;14450
1474942;13982
1474950;14006
1474958;13726
1474969;13802
1474978;13652
1474986;13658
1474994;13474
1475002;13416
1475010;13174
1475018;13201
1475027;12935
1475035;12922
1475043;12600
1475051;12538
1475059;12147
1475068;12073
1475076;11753
1475084;11845
1475092;11698
1475100;11944
1475109;11892
1475117;12294
1475125;12429
1475133;13013
1475141;13207
1475150;13742
1475158;13831
1475166;14221
1475174;14139
1475183;14413
1475192;14269
1475200;14435
1475208;14254
1475216;14374
1475224;14115
1475233;14219
1475241;14000
1475252;14172
1475260;14071
1475268;14134
1475277;13988
1475285;14067
1475293;13938
1475301;14086
1475309;13955
1475318;14055
1475326;13906
1475334;13968
1475342;13608
1475350;13640
1475358;13403
1475367;13547
1475375;13421
1475383;13660
1475391;13556
1475399;13847
1475408;13738
1475416;13903
1475424;13708
1475432;13896
1475440;13716
1475449;13844
1475457;13588
1475465;13675
1475473;13928
1475481;13523
1475490;10567
1475498;7219
1475507;5847
1475515;12747
1475523;16161
1475534;15472
1475542;14733
1475550;14514
1475559;14131
1475567;14028
1475576;13736
1475584;13856
1475592;13648
1475600;13728
1475608;13504
1475617;13572
1475625;13337
1475633;13412
1475641;13082
1475649;13079
1475657;12804
1475666;12798
1475674;12396
1475682;12297
1475690;11854
1475698;11800
1475707;11545
1475715;11717
1475723;11585
1475731;11906
1475739;11935
1475748;12451
1475756;12736
1475764;13355
1475772;13527
1475780;13977
1475789;14065
1475797;14347
1475805;14241
1475816;14484
1475824;14374
1475833;14442
1475841;14243
1475849;14355
1475857;14104
1475865;14209
1475875;13987
1475883;14099
1475891;13807
1475899;13953
1475907;13768
1475916;13952
1475924;13780
1475932;13966
1475940;13749
1475948;13922
1475956;13733
1475965;13915
1475973;13701
1475981;13792
1475989;13494
1475997;13548
1476006;13364
1476014;13589
1476022;13449
1476030;13662
1476038;13596
1476047;13823
1476055;13733
1476063;13918
1476071;13760
1476079;13894
1476088;13758
1476096;13823
1476107;13634
1476115;13898
1476123;14337
1476132;13054
1476140;9046
1476148;5422
1476156;6623
1476164;14569
1476173;15755
1476181;15375
1476189;14664
1476198;14675
1476206;14267
1476215;14239
1476223;13952
1476231;14068
1476239;13823
1476247;13919
1476255;13700
1476264;13779
1476272;13525
1476280;13596
1476288;13319
1476296;13325
1476305;13011
1476313;12967
1476321;12647
1476329;12523
1476337;12156
1476346;12121
1476354;11934
1476362;12009
1476370;11952
1476378;12141
1476390;12395
1476398;13003
1476406;13194
1476414;13750
1476422;13885
1476431;14296
1476439;14266
1476447;14483
1476455;14367
1476463;14547
1476472;14386
1476480;14516
1476488;14269
1476496;14382
1476504;14154
1476514;14255
1476522;14073
1476530;14216
1476538;14074
1476546;14203
1476554;14056
1476563;14181
1476571;14048
1476579;14118
1476587;14009
1476595;14096
1476604;14002
1476612;14002
1476620;13763
1476628;13660
1476636;13537
1476645;13587
1476653;13551
1476661;13598
1476672;13581
1476680;13846
1476689;13760
1476697;13947
1476705;13723
1476713;13843
1476721;13667
1476730;13802
1476738;13576
1476746;13663
1476754;13664
1476762;14222
1476771;12227
1476779;8133
1476787;4464
1476795;7526
1476803;14671
1476812;15538
1476820;14879
1476828;14608
1476837;14331
1476845;14113
1476854;13881
1476862;13850
1476870;13704
1476878;13679
1476886;13561
1476894;13514
1476903;13401
1476911;13369
1476919;13257
1476927;13169
1476935;13048
1476944;12934
1476955;12687
1476963;12698
1476971;12271
1476979;12205
1476988;11860
1476996;11922
1477004;11807
1477012;12030
1477020;12035
1477029;12438
1477037;12694
1477045;13212
1477053;13491
1477061;13929
1477070;14055
1477078;14242
1477086;14193
1477094;14248
1477102;14180
1477111;14203
1477119;14081
1477127;14075
1477135;14007
1477143;14036
1477151;13975
1477160;13925
1477169;13919
1477177;13911
1477185;13922
1477193;13905
1477202;13911
1477210;13894
1477218;13941
1477226;13911
1477234;13992
1477254;14352
1477262;14327
1477270;13933
1477278;13922
1477287;13786
1477295;13860
1477303;13714
1477311;13796
1477319;13728
1477328;13895
1477336;13894
1477344;13935
1477352;13873
1477360;13896
1477369;13804
1477377;13827
1477385;13774
1477393;13679
1477401;14288
1477410;13835
1477418;10884
1477426;6523
1477434;5005
1477442;11673
1477450;15720
1477459;15363
1477467;14762
1477475;14446
1477483;14286
1477491;13952
1477501;13913
1477509;13725
1477517;13752
1477525;13566
1477535;13505
1477544;13539
1477553;13382
1477561;13352
1477569;13162
1477577;13083
1477586;12845
1477594;12679
1477602;12445
1477610;12271
1477618;12040
1477627;11849
1477635;11734
1477643;11695
1477651;11776
1477659;11863
1477668;12074
1477676;12361
1477684;12825
1477692;13227
1477700;13674
1477709;13936
1477717;14216
1477725;14260
1477733;14416
1477741;14347
1477750;14457
1477758;14317
1477766;14406
1477774;14248
1477782;14333
1477790;14108
1477799;14202
1477807;14037
1477818;14087
1477826;14137
1477834;14055
1477843;14036
1477851;13999
1477859;13982
1477868;13952
1477876;13970
1477885;13978
1477893;13913
1477901;13924
1477909;13878
1477917;13842
1477926;13621
1477934;13592
1477942;13532
1477950;13630
1477958;13539
1477967;13650
1477975;13592
1477983;13774
1477991;13742
1477999;13873
1478008;13762
1478016;13894
1478024;13771
1478032;13893
1478040;13667
1478049;13740
1478057;13727
1478065;14295
1478073;12391
1478081;8549
1478089;5153
1478101;11446
1478109;15992
1478117;15693
1478125;14984
1478134;14686
1478142;14450
1478150;14228
1478158;14042
1478166;14031
1478174;13918
1478184;13956
1478192;13797
1478200;13828
1478208;13641
1478216;13663
1478225;13469
1478233;13460
1478241;13245
1478249;13188
1478257;12834
1478266;12743
1478274;12360
1478282;12273
1478290;11978
1478298;12069
1478307;11927
1478315;12151
1478323;12118
1478331;12547
1478339;12697
1478348;13262
1478356;13467
1478364;13921
1478372;13959
1478383;14369
1478392;14494
1478400;14545
1478408;14445
1478416;14465
1478424;14328
1478433;14342
1478441;14240
1478449;14291
1478457;14121
1478465;14202
1478473;14026
1478482;14118
1478490;13976
1478499;14111
1478507;13949
1478515;14079
1478524;13924
1478532;14115
1478540;13978
1478548;14126
1478556;13981
1478565;14120
1478573;13834
1478581;13861
1478589;13516
1478597;13672
1478606;13521
1478614;13677
1478622;13483
1478630;13712
1478638;13594
1478647;13885
1478655;13736
1478695;15797
1478703;15289
1478711;14976
1478719;15150
1478727;13968
1478736;10206
1478744;6553
1478752;6663
1478760;14470
1478768;15984
1478777;15341
1478785;14522
1478793;14301
1478801;13993
1478809;13798
1478818;13563
1478826;13504
1478835;13345
1478843;13288
1478851;13124
1478860;13041
1478868;12905
1478876;12829
1478884;12697
1478892;12573
1478900;12456
1478909;12312
1478917;12146
1478925;11904
1478933;11735
1478941;11497
1478950;11437
1478958;11398
1478966;11561
1478974;11607
1478985;11951
1478994;12455
1479002;12727
1479010;13208
1479018;13471
1479026;13814
1479035;13877
1479043;14027
1479051;14040
1479059;14154
1479067;14071
1479076;14108
1479084;14039
1479092;14068
1479100;14010
1479108;14008
1479117;13963
1479125;13966
1479133;13911
1479141;13893
1479150;13893
1479159;13861
1479167;13822
1479175;13770
1479183;13779
1479191;13748
1479199;13783
1479208;13709
1479216;13744
1479224;13666
1479232;13697
1479240;13516
1479249;13433
1479257;13277
1479268;13360
1479276;13535
1479284;13438
1479293;13564
1479301;13568
1479309;13717
1479317;13719
1479325;13780
1479334;13734
1479342;13708
1479350;13669
1479358;13634
1479366;13576
1479375;13664
1479383;14231
1479391;12571
1479399;8663
1479407;5140
1479416;7382
1479424;14839
1479432;15742
1479440;15077
1479448;14614
1479457;14395
1479465;14204
1479473;13944
1479482;13967
1479490;13788
1479498;13818
1479507;13638
1479515;13712
1479523;13543
1479531;13627
1479539;13392
1479551;13355
1479559;13316
1479567;13103
1479575;12889
1479583;12659
1479592;12427
1479600;12215
1479608;12045
1479616;12003
1479624;12007
1479633;12132
1479641;12200
1479649;12482
1479657;12776
1479665;13277
1479674;13622
1479682;13988
1479690;14112
1479698;14343
1479706;14305
1479715;14431
1479723;14334
1479731;14477
1479739;14330
1479747;14394
1479756;14218
1479764;14282
1479772;14114
1479780;14229
1479788;14026
1479798;14156
1479806;13989
1479814;14120
1479822;13921
1479832;14060
1479841;14146
1479850;14149
1479858;14135
1479866;14211
1479874;14155
1479882;14095
1479891;13880
1479899;13796
1479907;13672
1479915;13751
1479923;13696
1479932;13740
1479940;13669
1479948;13788
1479956;13811
1479964;13909
1479973;13809
1479981;13867
1479989;13788
1479997;13802
1480005;13645
1480014;13660
1480022;13710
1480030;14224
1480038;12275
1480046;8315
1480055;4822
1480063;8178
1480071;15134
1480079;15703
1480087;14911
1480095;14637
1480104;14324
1480112;14225
1480123;14035
1480131;13990
1480140;13841
1480148;13733
1480156;13589
1480164;13549
1480173;13420
1480182;13402
1480190;13254
1480198;13199
1480206;12998
1480214;12917
1480222;12636
1480231;12513
1480239;12192
1480247;12110
1480255;11853
1480263;11945
1480272;11852
1480280;12087
1480288;12129
1480296;12556
1480304;12728
1480313;13304
1480321;13536
1480329;14019
1480337;14074
1480345;14364
1480354;14269
1480362;14478
1480370;14277
1480378;14401
1480386;14189
1480394;14299
1480406;14197
1480414;14282
1480422;14143
1480430;14185
1480439;14063
1480447;14099
1480455;13978
1480463;14055
1480471;13944
1480481;14059
1480489;13919
1480497;14074
1480505;13926
1480513;14076
1480521;13848
1480530;13856
1480538;13457
1480546;13578
1480554;13464
1480562;13705
1480571;13550
1480579;13780
1480587;13674
1480595;13928
1480603;13824
1480612;14012
1480620;13821
1480628;13965
1480636;13726
1480644;13891
1480653;13677
1480661;13797
1480669;14214
1480677;13472
1480688;8533
1480697;5264
1480705;7832
1480713;15279
1480721;15685
1480729;15140
1480738;14497
1480746;14522
1480754;14115
1480762;14138
1480770;13865
1480778;13964
1480787;13707
1480796;13779
1480804;13525
1480812;13640
1480820;13373
1480829;13441
1480837;13139
1480845;13191
1480853;12837
1480861;12910
1480870;12518
1480878;12481
1480886;12051
1480894;12056
1480902;11787
1480911;11988
1480919;11892
1480927;12187
1480935;12235
1480943;12727
1480952;12947
1480960;13554
1480971;13971
1480979;14447
1480987;14442
1480996;14686
1481004;14564
1481012;14758
1481020;14561
1481028;14692
1481037;14453
1481045;14558
1481053;14340
1481061;14460
1481069;14218
1481078;14352
1481086;14126
1481094;14252
1481102;14010
1481110;14182
1481118;13936
1481128;14107
1481136;13890
1481144;14051
1481152;13855
1481160;13950
1481169;13654
1481177;13623
1481185;13406
1481193;13582
1481201;13421
1481210;13566
1481218;13442
1481226;13662
1481234;13654
1481242;13898
1481254;13838
1481262;14023
1481270;13781
1481278;13906
1481286;13648
1481295;13763
1481303;13487
1481311;14241
1481319;12929
1481327;9701
1481336;5992
1481344;6649
1481352;14290
1481360;16057
1481368;15193
1481377;14696
1481385;14266
1481393;14257
1481401;13870
1481409;13902
1481417;13623
1481426;13737
1481434;13543
1481442;13632
1481450;13422
1481459;13469
1481468;13219
1481476;13289
1481484;13065
1481492;13068
1481500;12795
1481509;12731
1481517;12414
1481525;12313
1481533;12011
1481544;12125
1481553;12042
1481561;12313
1481569;12282
1481577;12675
1481585;12803
1481594;13346
1481602;13559
1481610;14111
1481618;14205
1481626;14550
1481635;14490
1481643;14668
1481651;14528
1481659;14648
1481667;14425
1481676;14491
1481684;14263
1481692;14346
1481700;14128
1481708;14172
1481716;13962
1481725;14078
1481733;13975
1481741;14067
1481749;13957
1481757;14067
1481766;13954
1481775;14018
1481783;13923
1481791;13860
1481799;13614
1481808;13563
1481816;13482
1481826;13650
1481835;13566
1481843;13787
1481852;13674
1481860;13986
1481868;13864
1481876;14019
1481884;13848
1481893;13984
1481901;13819
1481909;13922
1481917;13703
1481925;13734
1481934;14061
1481942;13449
1481950;10265
1481958;6758
1481966;5686
1481975;13037
1481983;16021
1481991;15434
1481999;14640
1482007;14326
1482015;14078
1482024;13871
1482032;13659
1482040;13605
1482048;13471
1482056;13405
1482065;13322
1482073;13244
1482081;13133
1482089;13033
1482097;12930
1482109;12968
1482117;12715
1482125;12696
1482133;12346
1482141;12229
1482150;11827
1482159;11807
1482167;11598
1482175;11763
1482183;11735
1482192;11999
1482200;12146
1482208;12623
1482216;12931
1482224;13427
1482233;13660
1482241;13978
1482249;14069
1482257;14240
1482265;14258
1482274;14298
1482282;14211
1482290;14251
1482298;14196
1482306;14155
1482314;14097
1482323;14095
1482331;14078
1482339;14087
1482347;14133
1482355;14086
1482364;14133
1482372;14087
1482380;14117
1482391;14237
1482399;14184
1482408;14318
1482416;14194
1482424;14319
1482432;14185
1482440;14240
1482449;13957
1482457;13871
1482466;13721
1482474;13788
1482482;13721
1482491;13781
1482499;13784
1482507;13904
1482515;13964
1482523;14047
1482532;14014
1482540;14008
1482548;13997
1482556;13971
1482564;13891
1482573;13800
1482581;13848
1482589;14400
1482597;12876
1482605;8878
1482614;5157
1482622;6634
1482630;14419
1482638;15594
1482646;15142
1482654;14554
1482663;14463
1482671;14050
1482682;13854
1482690;13872
1482698;13661
1482707;13638
1482715;13508
1482723;13481
1482731;13329
1482739;13249
1482748;13115
1482756;13019
1482764;12851
1482773;12749
1482781;12565
1482790;12378
1482798;12138
1482806;11921
1482814;11806
1482822;11758
1482831;11837
1482839;11859
1482847;12018
1482855;12147
1482863;12561
1482872;12928
1482880;13407
1482888;13675
1482896;14015
1482904;14094
1482913;14283
1482921;14207
1482929;14341
1482937;14206
1482945;14293
1482953;14108
1482965;14206
1482973;14299
1482981;14199
1482989;14146
1482998;14070
1483006;14047
1483014;13981
1483022;13951
1483030;13914
1483038;13899
1483047;13921
1483055;13937
1483063;13968
1483071;13913
1483079;13941
1483089;13837
1483097;13755
1483105;13513
1483113;13534
1483121;13505
1483130;13630
1483138;13544
1483146;13687
1483154;13629
1483162;13858
1483171;13803
1483179;13920
1483187;13776
1483195;13896
1483203;13768
1483212;13878
1483220;13685
1483228;13747
1483236;14204
1483247;13086
1483256;9288
1483264;5321
1483272;6250
1483280;14149
1483288;15702
1483297;15208
1483305;14598
1483313;14485
1483321;14139
1483329;14021
1483337;13816
1483346;13768
1483354;13563
1483362;13615
1483370;13462
1483378;13548
1483387;13345
1483395;13387
1483403;13179
1483411;13223
1483419;12949
1483429;12944
1483437;12609
1483445;12555
1483453;12181
1483461;12162
1483470;11922
1483478;12084
1483486;11941
1483494;12217
1483502;12226
1483511;12689
1483519;12897
1483530;13643
1483538;14020
1483546;14311
1483555;14369
1483563;14483
1483571;14404
1483579;14432
1483587;14322
1483596;14403
1483604;14212
1483612;14261
1483620;14085
1483628;14144
1483636;13980
1483645;14060
1483653;13897
1483661;13984
1483669;13758
1483677;13877
1483686;13683
1483694;13860
1483702;13644
1483710;13783
1483718;13602
1483727;13703
1483735;13398
1483743;13383
1483752;13149
1483760;13389
1483769;13292
1483777;13553
1483785;13473
1483793;13753
1483801;13705
1483813;14049
1483821;13971
1483829;14022
1483837;13905
1483845;13949
1483854;13773
1483862;13831
1483870;13603
1483878;14401
1483886;13255
1483895;9856
1483903;5506
1483911;5509
1483919;13196
1483927;15722
1483935;15062
1483944;14661
1483952;14298
1483960;14275
1483968;13929
1483976;14058
1483985;13812
1483993;13945
1484001;13656
1484009;13749
1484017;13458
1484026;13558
1484034;13294
1484042;13357
1484050;13041
1484058;13059
1484068;12692
1484076;12682
1484084;12256
1484092;12223
1484102;11930
1484112;12052
1484120;11913
1484128;12111
1484136;12068
1484144;12445
1484153;12644
1484161;13263
1484169;13514
1484177;13999
1484185;14111
1484194;14467
1484202;14375
1484210;14603
1484218;14409
1484226;14622
1484234;14407
1484243;14563
1484251;14342
1484259;14465
1484267;14230
1484275;14376
1484284;14118
1484292;14264
1484300;14063
1484308;14214
1484316;14034
1484325;14215
1484333;14052
1484341;14178
1484349;13950
1484357;14030
1484366;13689
1484375;13721
1484385;13592
1484393;13836
1484401;13675
1484410;13861
1484418;13740
1484427;14013
1484435;13838
1484443;14036
1484452;13843
1484460;14007
1484468;13794
1484476;13979
1484484;13755
1484493;13897
1484501;14322
1484509;13805
1484517;10446
1484525;6628
1484534;5435
1484542;13122
1484550;16023
1484558;15633
1484566;14803
1484574;14702
1484583;14368
1484591;14280
1484599;14010
1484607;14121
1484615;13911
1484624;14015
1484632;13792
1484640;13904
1484648;13707
1484656;13785
1484668;13532
1484676;13620
1484684;13259
1484692;13271
1484700;12832
1484709;12762
1484717;12309
1484725;12342
1484733;12017
1484742;12144
1484751;11956
1484759;12197
1484767;12198
1484775;12742
1484783;12972
1484792;13584
1484800;13759
1484808;14197
1484816;14209
1484824;14499
1484833;14400
1484841;14615
1484849;14499
1484857;14587
1484865;14399
1484873;14544
1484882;14377
1484890;14492
1484898;14258
1484906;14314
1484914;14184
1484923;14317
1484931;14227
1484939;14313
1484950;14218
1484958;14492
1484967;14191
1484975;14209
1484983;13962
1484991;14171
1484999;13946
1485008;14132
1485016;14034
1485024;14266
1485032;14232
1485040;14468
1485049;14288
1485058;14455
1485066;14256
1485074;14386
1485082;14165
1485091;14274
1485099;14043
1485107;14091
1485115;14409
1485123;13139
1485132;9506
1485140;7188
1485148;8318
1485156;15750
1485164;16753
1485172;16052
1485181;15255
1485189;14750
1485197;14470
1485205;14179
1485213;13868
1485222;13753
1485230;13601
1485241;13618
1485249;13402
1485257;13483
1485266;13137
1485274;13164
1485282;12889
1485290;12938
1485298;12640
1485307;12629
1485315;12319
1485323;12245
1485331;11901
1485339;11903
1485348;11704
1485356;11889
1485364;11885
1485372;12207
1485380;12379
1485389;12828
1485398;13169
1485406;13663
1485414;13975
1485422;14292
1485431;14409
1485439;14511
1485447;14508
1485455;14571
1485463;14542
1485471;14573
1485480;14517
1485488;14440
1485496;14399
1485504;14323
1485512;14355
1485524;14535
1485532;14465
1485540;14628
1485548;14516
1485556;14638
1485565;14568
1485573;14635
1485581;14453
1485589;14579
1485597;14532
1485606;14637
1485614;14611
1485622;14752
1485630;14727
1485638;14838
1485647;14831
1485655;14830
1485663;14761
1485671;14735
1485679;14668
1485688;14617
1485696;14530
1485704;14431
1485712;14818
1485720;14131
1485730;11397
1485738;8231
1485746;7381
1485754;13465
1485762;17217
1485770;16580
1485779;16014
1485787;15275
1485795;15009
1485806;14681
1485815;14435
1485823;14378
1485831;14165
1485839;14066
1485847;13854
1485855;13775
1485864;13582
1485872;13524
1485880;13303
1485888;13193
1485896;13004
1485905;12761
1485913;12465
1485921;12170
1485929;11863
1485937;11603
1485946;11497
1485954;11450
1485962;11534
1485970;11558
1485978;11742
1485987;12036
1485995;12533
1486003;12892
1486011;13298
1486019;13552
1486028;13836
1486036;13814
1486044;13882
1486053;13760
1486061;13854
1486070;13626
1486078;13643
1486088;13530
1486096;13356
1486105;13219
1486114;12976
1486122;12865
1486130;12718
1486138;12644
1486146;12565
1486154;12539
1486163;12457
1486171;12289
1486179;12174
1486187;12029
1486195;11898
1486204;11798
1486212;11778
1486220;11750
1486228;11793
1486236;11868
1486245;11978
1486253;12033
1486261;12181
1486269;12217
1486277;12313
1486286;12257
1486294;12370
1486302;12322
1486310;12423
1486318;12322
1486327;12731
1486335;12831
1486343;11070
1486351;6909
1486359;3941
1486371;10174
1486379;14674
1486387;14570
1486395;13995
1486403;13648
1486412;13503
1486420;13260
1486429;13202
1486437;13081
1486445;13081
1486454;12938
1486462;12967
1486470;12879
1486478;12968
1486486;12861
1486494;12916
1486503;12707
1486511;12714
1486519;12473
1486527;12474
1486535;12155
1486544;12084
1486552;11734
1486560;11743
1486568;11563
1486576;11802
1486585;11746
1486593;12121
1486601;12277
1486609;12918
1486617;13237
1486626;13868
1486634;14035
1486642;14493
1486653;14634
1486661;14813
1486670;14777
1486678;14821
1486686;14690
1486694;14710
1486702;14573
1486711;14576
1486719;14403
1486728;14436
1486736;14279
1486744;14329
1486753;14160
1486761;14283
1486769;14115
1486777;14227
1486785;14087
1486793;14266
1486802;14096
1486810;14234
1486818;13927
1486826;13986
1486834;13777
1486843;13938
1486851;13764
1486859;13973
1486867;13855
1486875;14103
1486884;14015
1486892;14283
1486900;14086
1486908;14276
1486916;14072
1486925;14191
1486933;13928
1486944;14035
1486952;14217
1486960;14513
1486969;12177
1486977;7809
1486985;4312
1486993;7691
1487001;14763
1487010;15709
1487018;15065
1487026;14852
1487034;14551
1487042;14398
1487052;14029
1487060;14084
1487068;13838
1487076;13956
1487084;13704
1487092;13819
1487101;13576
1487109;13692
1487117;13420
1487125;13571
1487133;13237
1487142;13280
1487150;12926
1487158;12941
1487166;12473
1487174;12461
1487183;12059
1487191;12175
1487199;11958
1487207;12221
1487215;12113
1487227;12732
1487235;13049
1487243;13656
1487251;13893
1487259;14366
1487268;14396
1487276;14680
1487284;14560
1487292;14790
1487300;14560
1487309;14728
1487317;14521
1487325;14666
1487333;14430
1487341;14611
1487350;14382
1487358;14505
1487366;14239
1487375;14354
1487383;14070
1487391;14225
1487400;13993
1487408;14179
1487416;14007
1487424;14216
1487432;14012
1487441;14223
1487449;14027
1487457;14247
1487465;14057
1487473;14282
1487482;14053
1487490;14144
1487498;13804
1487509;13969
1487517;13822
1487526;13944
1487534;13719
1487542;13913
1487550;13762
1487558;14037
1487567;13898
1487575;14069
1487583;13820
1487591;14002
1487599;13823
1487608;13981
1487616;13710
1487624;13808
1487632;14150
1487640;13946
1487649;10800
1487657;6529
1487665;4496
1487673;10511
1487681;15330
1487689;15535
1487698;14727
1487707;14641
1487715;14217
1487723;14115
1487731;13782
1487740;13816
1487748;13528
1487756;13600
1487764;13402
1487772;13496
1487781;13274
1487792;13376
1487800;13121
1487808;13195
1487816;12847
1487825;12889
1487833;12495
1487841;12460
1487849;12025
1487857;12017
1487866;11686
1487874;11794
1487882;11581
1487890;11882
1487898;11874
1487907;12409
1487915;12652
1487923;13324
1487931;13547
1487939;14074
1487948;14093
1487956;14375
1487964;14306
1487972;14504
1487980;14352
1487988;14517
1487997;14337
1488005;14442
1488013;14300
1488022;14397
1488030;14226
1488039;14295
1488047;14165
1488055;14256
1488063;14120
1488074;14279
1488083;14044
1488091;14195
1488099;13934
1488107;14109
1488115;13878
1488124;14029
1488132;13797
1488140;13950
1488148;13713
1488156;13850
1488165;13635
1488173;13796
1488181;13641
1488189;13810
1488197;13645
1488206;13725
1488214;13440
1488222;13453
1488230;13263
1488238;13402
1488247;13273
1488255;13394
1488263;13285
1488271;13491
1488279;13477
1488287;13662
1488296;13589
1488304;13679
1488312;13629
1488320;13685
1488328;13550
1488337;13561
1488346;13459
1488354;13847
1488364;13366
1488372;10485
1488381;6200
1488389;5469
1488397;12153
1488406;15831
1488414;15332
1488423;14867
1488431;14485
1488439;14506
1488447;14139
1488455;14199
1488464;14000
1488472;14068
1488480;13822
1488488;13926
1488496;13743
1488505;13778
1488513;13577
1488521;13572
1488529;13397
1488537;13383
1488546;13165
1488554;13026
1488562;12744
1488570;12528
1488578;12235
1488586;12071
1488595;11925
1488603;11926
1488611;11949
1488619;12080
1488627;12314
1488636;12653
1488647;13200
1488655;13799
1488663;13977
1488671;14375
1488680;14356
1488688;14583
1488696;14479
1488704;14595
1488713;14415
1488722;14534
1488730;14425
1488738;14530
1488746;14360
1488754;14400
1488763;14262
1488771;14289
1488779;14137
1488787;14168
1488795;14062
1488804;14101
1488812;14065
1488820;14086
1488828;13999
1488836;14004
1488845;13988
1488853;13959
1488861;13946
1488869;13913
1488877;13910
1488886;13874
1488894;13902
1488902;13820
1488910;13852
1488918;13792
1488930;13819
1488938;13961
1488946;13754
1488954;13730
1488962;13392
1488970;13449
1488979;13302
1488987;13404
1488995;13259
1489003;13368
1489012;13335
1489021;13451
1489029;13480
1489037;13574
1489045;13533
1489053;13553
1489062;13481
1489070;13482
1489078;13408
1489086;13340
1489094;13799
1489103;13531
1489111;11084
1489119;7256
1489127;5536
1489135;10880
1489144;15782
1489152;15486
1489160;14846
1489168;14283
1489176;14227
1489185;13904
1489193;13852
1489201;13651
1489212;13657
1489220;13783
1489229;13606
1489237;13563
1489245;13400
1489253;13405
1489261;13253
1489270;13170
1489278;12983
1489286;12862
1489294;12670
1489302;12449
1489310;12209
1489319;11932
1489327;11781
1489335;11679
1489343;11716
1489352;11762
1489361;11922
1489369;12137
1489377;12628
1489385;13015
1489393;13558
1489402;13816
1489410;14205
1489418;14312
1489426;14565
1489434;14541
1489443;14701
1489451;14596
1489459;14692
1489467;14522
1489475;14567
1489484;14298
1489495;14309
1489503;14306
1489511;14180
1489519;14144
1489528;14077
1489536;14029
1489544;13985
1489552;13950
1489560;13976
1489569;13913
1489577;13915
1489585;13851
1489593;13864
1489601;13792
1489609;13823
1489618;13715
1489626;13824
1489634;13780
1489642;13870
1489650;13793
1489659;13926
1489667;13720
1489676;13687
1489684;13423
1489692;13542
1489701;13428
1489709;13619
1489717;13480
1489725;13689
1489733;13580
1489742;13826
1489750;13702
1489758;13888
1489766;13676
1489774;13839
1489786;13799
1489794;13839
1489802;13717
1489810;14086
1489818;14015
1489827;11786
1489835;7683
1489843;5362
1489851;9627
1489859;15628
1489868;15560
1489876;14991
1489884;14361
1489892;14338
1489900;13979
1489908;13915
1489917;13646
1489925;13700
1489933;13509
1489941;13595
1489949;13383
1489958;13465
1489966;13225
1489974;13334
1489982;13011
1489990;13032
1489999;12715
1490008;12752
1490016;12353
1490024;12313
1490032;11899
1490041;11909
1490049;11583
1490057;11757
1490068;11801
1490076;12101
1490085;12234
1490093;12705
1490101;13020
1490109;13587
1490117;13889
1490126;14280
1490134;14309
1490142;14529
1490150;14432
1490158;14591
1490167;14409
1490175;14507
1490183;14289
1490191;14422
1490199;14195
1490207;14329
1490216;14093
1490224;14206
1490232;13991
1490240;14129
1490248;13915
1490257;14046
1490265;13808
1490273;13964
1490281;13757
1490289;13955
1490298;13727
1490306;13940
1490314;13752
1490323;13920
1490331;13675
1490340;13886
1490350;13775
1490358;13940
1490366;13723
1490375;13755
1490384;13454
1490392;13512
1490400;13375
1490408;13563
1490416;13393
1490425;13559
1490433;13466
1490441;13723
1490449;13621
1490457;13822
1490466;13620
1490474;13807
1490482;13601
1490490;13788
1490498;13579
1490506;13749
1490515;13764
1490523;14194
1490531;12026
1490539;8173
1490547;5086
1490556;8525
1490564;15154
1490572;15854
1490580;15026
1490588;14715
1490597;14312
1490605;14247
1490613;13896
1490621;13999
1490632;13818
1490641;13951
1490649;13706
1490657;13776
1490665;13503
1490673;13560
1490682;13269
1490691;13306
1490699;12992
1490707;13028
1490715;12625
1490724;12599
1490732;12140
1490740;12088
1490748;11659
1490756;11771
1490765;11563
1490773;11836
1490781;11753
1490789;12160
1490797;12329
1490806;13033
1490814;13305
1490822;13899
1490830;13977
1490838;14371
1490846;14281
1490855;14495
1490863;14310
1490871;14473
1490879;14240
1490887;14400
1490896;14142
1490904;14274
1490915;14126
1490923;14292
1490931;14021
1490940;14158
1490948;13923
1490956;14093
1490964;13875
1490972;14046
1490981;13835
1490989;14016
1490998;13854
1491006;14075
1491014;13850
1491023;14055
1491031;13844
1491039;14035
1491047;13809
1491055;13991
1491064;13782
1491072;14001
1491080;13829
1491088;14044
1491096;13732
1491105;13827
1491113;13514
1491121;13635
1491129;13485
1491137;13687
1491145;13503
1491154;13674
1491162;13576
1491170;13800
1491178;13691
1491186;13834
1491195;13687
1491206;13953
1491214;13758
1491222;13875
1491230;13571
1491239;13713
1491247;14129
1491255;13250
1491263;9567
1491271;6049
1491280;5958
1491288;13602
1491296;15716
1491304;15442
1491313;14620
1491322;14574
1491330;14160
1491338;14107
1491346;13801
1491354;13913
1491363;13632
1491371;13782
1491379;13580
1491387;13662
1491395;13408
1491404;13478
1491412;13260
1491420;13306
1491428;13038
1491436;13019
1491444;12738
1491453;12664
1491461;12292
1491469;12119
1491477;11840
1491489;11925
1491497;11795
1491505;12043
1491513;11954
1491521;12419
1491529;12629
1491538;13255
1491546;13479
1491554;13998
1491562;14016
1491570;14335
1491579;14209
1491587;14418
1491595;14273
1491603;14436
1491611;14233
1491620;14332
1491629;14092
1491637;14179
1491645;13973
1491653;14064
1491662;13880
1491670;13988
1491678;13820
1491686;13889
1491694;13750
1491703;13832
1491711;13737
1491719;13829
1491727;13730
1491735;13796
1491743;13729
1491752;13796
1491760;13736
1491771;13922
1491779;13751
1491788;13948
1491796;13742
1491804;13918
1491812;13667
1491820;13726
1491828;13370
1491837;13500
1491845;13319
1491853;13501
1491861;13308
1491869;13469
1491878;13432
1491886;13662
1491894;13641
1491902;13811
1491910;13705
1491919;13860
1491927;13723
1491935;13791
1491943;13647
1491952;13642
1491961;14037
1491969;13794
1491977;11028
1491985;7037
1491993;5161
1492002;10919
1492010;15619
1492018;15453
1492026;14726
1492034;14361
1492042;14235
1492054;14118
1492062;13831
1492070;13894
1492078;13639
1492087;13713
1492095;13509
1492103;13575
1492111;13328
1492119;13346
1492127;13040
1492136;13031
1492144;12791
1492152;12750
1492160;12484
1492168;12413
1492177;12096
1492185;11921
1492193;11628
1492201;11646
1492209;11629
1492218;11774
1492226;11898
1492234;12196
1492242;12552
1492250;13018
1492259;13448
1492267;13832
1492275;14130
1492284;14316
1492292;14462
1492301;14499
1492309;14538
1492317;14479
1492325;14524
1492336;14606
1492345;14443
1492353;14502
1492361;14291
1492369;14334
1492377;14178
1492386;14214
1492394;14042
1492402;14142
1492410;14009
1492418;14039
1492426;13944
1492435;13969
1492443;13877
1492451;13925
1492459;13870
1492467;13856
1492476;13774
1492484;13733
1492492;13687
1492500;13687
1492508;13692
1492517;13697
1492525;13746
1492533;13669
1492541;13603
1492549;13417
1492558;13395
1492566;13333
1492574;13436
1492582;13353
1492590;13421
1492600;13394
1492608;13577
1492616;13553
1492626;13649
1492634;13815
1492643;13687
1492652;13731
1492660;13614
1492668;13691
1492676;13537
1492685;14145
1492693;13612
1492701;10772
1492709;6772
1492717;5444
1492726;11800
1492734;15825
1492742;15441
1492750;14743
1492758;14446
1492766;14260
1492775;14043
1492783;13821
1492791;13765
1492799;13613
1492807;13620
1492816;13494
1492824;13490
1492832;13310
1492840;13324
1492848;13171
1492857;13182
1492865;12954
1492873;12930
1492881;12618
1492889;12540
1492898;12154
1492909;11979
1492917;11910
1492925;11779
1492933;11827
1492942;11909
1492950;12090
1492958;12311
1492967;12644
1492975;13076
1492984;13526
1492992;13907
1493000;14145
1493008;14389
1493016;14425
1493025;14548
1493033;14521
1493041;14576
1493049;14484
1493057;14545
1493065;14393
1493074;14463
1493082;14382
1493090;14474
1493098;14331
1493106;14457
1493115;14267
1493123;14398
1493131;14233
1493139;14370
1493147;14192
1493156;14327
1493164;14150
1493172;14275
1493180;14087
1493191;14225
1493200;14259
1493208;14209
1493216;14140
1493224;14067
1493232;13916
1493241;13835
1493249;13763
1493257;13765
1493265;13709
1493273;13816
1493283;13853
1493291;13985
1493299;13898
1493307;13971
1493315;13812
1493324;13935
1493332;13807
1493340;13904
1493348;13713
1493356;13744
1493364;13881
1493373;14097
1493381;11681
1493389;8055
1493397;5808
1493405;10653
1493414;16137
1493422;15965
1493430;15017
1493438;14623
1493446;14204
1493455;14146
1493463;13713
1493474;13751
1493482;13636
1493490;13574
1493499;13392
1493507;13383
1493515;13201
1493523;13178
1493531;12996
1493540;12966
1493548;12722
1493556;12700
1493564;12430
1493572;12349
1493581;11985
1493589;11885
1493597;11555
1493606;11615
1493614;11472
1493623;11725
1493631;11729
1493639;12144
1493647;12311
1493655;12946
1493663;13201
1493672;13739
1493680;13868
1493688;14295
1493696;14217
1493704;14510
1493713;14371
1493721;14598
1493729;14412
1493737;14545
1493745;14310
1493757;14480
1493765;14347
1493773;14319
1493781;14128
1493789;14238
1493798;14062
1493806;14204
1493814;14071
1493822;14196
1493830;14048
1493839;14184
1493847;14011
1493855;14210
1493863;14067
1493871;14216
1493880;13990
1493888;14071
1493896;13761
1493904;13776
1493912;13527
1493921;13655
1493930;13466
1493938;13707
1493946;13599
1493954;13868
1493962;13729
1493971;13902
1493979;13686
1493987;13872
1493995;13656
1494003;13820
1494012;13569
1494020;13758
1494028;13625
1494036;14415
1494047;11583
1494056;7934
1494064;5757
1494072;11040
1494080;16206
1494088;15980
1494097;15046
1494105;14623
1494113;14204
1494121;14125
1494129;13684
1494138;13750
1494146;13536
1494154;13625
1494162;13366
1494170;13517
1494179;13278
1494187;13366
1494195;13063
1494203;13179
1494211;12855
1494220;12927
1494228;12555
1494237;12550
1494245;12074
1494253;12031
1494262;11625
1494270;11737
1494278;11550
1494286;11829
1494294;11763
1494302;12182
1494311;12362
1494319;12989
1494330;13460
1494338;14026
1494346;14037
1494355;14336
1494363;14200
1494371;14396
1494379;14234
1494387;14396
1494396;14129
1494404;14280
1494412;14062
1494420;14221
1494428;13940
1494437;14090
1494445;13827
1494453;13961
1494461;13706
1494469;13864
1494478;13636
1494486;13838
1494494;13637
1494502;13824
1494510;13641
1494519;13860
1494527;13646
1494535;13815
1494543;13656
1494552;13859
1494561;13704
1494569;13914
1494577;13696
1494585;13774
1494593;13431
1494601;13524
1494613;13433
1494621;13697
1494629;13474
1494637;13673
1494646;13520
1494654;13814
1494662;13659
1494670;13856
1494678;13648
1494686;13825
1494695;13581
1494703;13723
1494711;13489
1494719;13691
1494727;14093
1494736;12944
1494744;8952
1494752;5357
1494760;6038
1494768;13945
1494777;15560
1494785;15254
1494793;14535
1494801;14543
1494809;14130
1494818;14097
1494826;13830
1494834;13931
1494842;13721
1494850;13822
1494858;13655
1494868;13738
1494876;13535
1494884;13564
1494894;13328
1494903;13439
1494912;13084
1494920;13066
1494928;12654
1494936;12623
1494945;12190
1494953;12186
1494961;11866
1494969;12042
1494977;11865
1494985;12168
1494994;12161
1495002;12639
1495010;12848
1495018;13416
1495026;13629
1495035;14141
1495043;14162
1495051;14455
1495059;14347
1495067;14525
1495076;14356
1495084;14491
1495092;14326
1495100;14425
1495108;14254
1495117;14356
1495125;14218
1495133;14300
1495141;14168
1495149;14251
1495158;14170
1495166;14263
1495177;14181
1495185;14422
1495193;14183
1495202;14379
1495210;14160
1495218;14323
1495227;14089
1495235;14249
1495244;14054
1495252;14225
1495260;13989
1495268;14112
1495276;13786
1495284;13793
1495293;13607
1495301;13778
1495309;13607
1495317;13706
1495325;13592
1495334;13812
1495342;13772
1495350;13933
1495358;13798
1495366;13840
1495375;13734
1495383;13760
1495391;13631
1495399;13661
1495407;13477
1495416;14066
1495424;13637
1495432;10869
1495440;6562
1495448;4816
1495457;10708
1495476;15535
1495484;15109
1495492;14608
1495501;14477
1495509;14026
1495517;14025
1495525;13699
1495533;13726
1495543;13463
1495551;13505
1495559;13290
1495567;13340
1495575;13123
1495583;13161
1495592;12930
1495600;12892
1495608;12616
1495616;12534
1495624;12174
1495633;12000
1495641;11697
1495649;11568
1495657;11453
1495665;11573
1495674;11643
1495682;11849
1495690;12127
1495698;12561
1495706;12998
1495715;13420
1495723;13787
1495731;14013
1495739;14195
1495747;14244
1495759;14312
1495767;14585
1495775;14421
1495783;14508
1495791;14297
1495800;14394
1495808;14229
1495816;14287
1495824;14154
1495832;14231
1495841;14082
1495850;14127
1495858;14024
1495866;14080
1495874;13987
1495882;14052
1495891;14015
1495899;14040
1495907;13963
1495915;13964
1495923;13964
1495932;13940
1495940;13915
1495948;13883
1495956;13900
1495964;13871
1495973;13873
1495981;13761
1495989;13658
1495997;13426
1496005;13424
1496014;13349
1496022;13433
1496030;13369
1496041;13453
1496049;13699
1496058;13655
1496066;13779
1496074;13655
1496082;13736
1496090;13614
1496099;13666
1496107;13559
1496115;13591
1496123;13467
1496131;13835
1496140;13816
1496148;11578
1496156;7408
1496165;4953
1496173;9292
1496182;15355
1496190;15553
1496198;14871
1496206;14400
1496214;14181
1496222;13955
1496231;13764
1496239;13715
1496247;13539
1496255;13510
1496263;13378
1496272;13441
1496280;13281
1496288;13351
1496296;13190
1496304;13190
1496313;12940
1496324;12877
1496332;12835
1496340;12561
1496348;12413
1496357;12174
1496365;12036
1496373;11921
1496381;11936
1496389;11954
1496398;12085
1496406;12289
1496414;12593
1496422;13028
1496430;13448
1496439;13859
1496447;14128
1496455;14402
1496463;14457
1496471;14574
1496479;14532
1496488;14603
1496497;14496
1496505;14536
1496513;14367
1496521;14442
1496530;14287
1496538;14335
1496546;14144
1496554;14220
1496562;14040
1496571;14142
1496579;13944
1496587;14054
1496595;13867
1496606;13955
1496615;13983
1496623;13916
1496631;13911
1496639;13896
1496647;13836
1496656;13855
1496664;13812
1496672;13813
1496680;13706
1496688;13590
1496697;13378
1496705;13455
1496713;13424
1496721;13512
1496729;13443
1496738;13633
1496746;13605
1496754;13822
1496762;13717
1496770;13836
1496778;13667
1496787;13784
1496795;13618
1496803;13740
1496811;13537
1496819;13618
1496829;14080
1496837;13533
1496845;10119
1496853;6239
1496861;5218
1496870;12574
1496878;15661
1496886;15414
1496897;14560
1496905;14483
1496914;14153
1496922;14006
1496930;13808
1496938;13783
1496946;13646
1496955;13657
1496963;13474
1496971;13528
1496979;13328
1496987;13341
1496996;13114
1497004;13129
1497012;12868
1497020;12826
1497028;12503
1497037;12457
1497045;12064
1497053;12016
1497061;11676
1497069;11814
1497078;11681
1497086;11944
1497094;11927
1497102;12385
1497110;12605
1497118;13271
1497127;13485
1497135;14001
1497144;14078
1497152;14428
1497160;14323
1497169;14563
1497179;14524
1497188;14694
1497196;14531
1497204;14553
1497213;14373
1497221;14459
1497229;14282
1497237;14335
1497245;14149
1497254;14277
1497262;14131
1497270;14296
1497278;14113
1497286;14250
1497295;14121
1497303;14318
1497311;14139
1497319;14335
1497327;14122
1497336;14260
1497344;14041
1497352;14117
1497360;13795
1497368;13927
1497377;13706
1497385;13907
1497393;13721
1497401;13950
1497409;13771
1497417;14009
1497426;13843
1497434;14005
1497442;13776
1497451;13971
1497462;13845
1497470;13983
1497478;13726
1497486;13773
1497494;14219
1497502;13226
1497512;9586
1497520;6571
1497528;6796
1497536;14674
1497544;16185
1497553;15611
1497561;14747
1497569;14476
1497577;14116
1497585;14079
1497594;13724
1497602;13799
1497610;13534
1497618;13672
1497626;13420
1497635;13574
1497643;13310
1497651;13436
1497659;13147
1497667;13275
1497676;12953
1497684;13010
1497692;12660
1497700;12647
1497708;12227
1497716;12131
1497725;11749
1497733;11878
1497744;11883
1497752;12212
1497761;12189
1497769;12636
1497777;12849
1497785;13407
1497793;13587
1497801;14105
1497810;14147
1497818;14492
1497826;14356
1497835;14578
1497843;14362
1497852;14541
1497860;14352
1497868;14523
1497876;14256
1497884;14408
1497893;14169
1497901;14323
1497909;14083
1497917;14228
1497925;14024
1497934;14209
1497942;13969
1497950;14125
1497958;13896
1497966;14106
1497975;13938
1497983;14120
1497991;13901
1497999;14008
1498007;13664
1498015;13693
1498027;13512
1498035;13741
1498043;13567
1498051;13786
1498060;13614
1498068;13888
1498076;13732
1498084;13920
1498092;13697
1498100;13887
1498109;13644
1498117;13836
1498125;13601
1498133;13753
1498141;13471
1498150;14315
1498159;12997
1498167;9770
1498175;6342
1498183;6792
1498192;14316
1498200;16417
1498208;15544
1498216;15035
1498224;14406
1498233;14368
1498241;13899
1498249;13876
1498257;13609
1498265;13652
1498274;13413
1498282;13470
1498290;13250
1498298;13284
1498306;13065
1498318;13150
1498326;12842
1498334;12896
1498342;12526
1498350;12523
1498359;12081
1498367;12039
1498375;11578
1498383;11689
1498391;11445
1498399;11689
1498408;11617
1498416;12027
1498424;12176
1498432;12800
1498440;13079
1498449;13683
1498457;13831
1498465;14181
1498473;14151
1498482;14384
1498491;14309
1498499;14470
1498507;14292
1498515;14398
1498523;14233
1498532;14340
1498540;14154
1498548;14213
1498556;14029
1498564;14059
1498573;13914
1498581;13958
1498589;13855
1498629;15905
1498637;15691
1498645;15236
1498653;15010
1498662;14715
1498670;14596
1498678;14308
1498686;14215
1498694;13919
1498703;13721
1498712;13426
1498720;13440
1498728;13276
1498736;13315
1498745;13106
1498753;13226
1498761;13101
1498769;13245
1498777;13110
1498786;13281
1498794;13092
1498802;13245
1498810;13016
1498818;13137
1498826;12895
1498835;13050
1498843;13513
1498851;12516
1498859;8706
1498867;4906
1498876;4821
1498884;12613
1498892;15015
1498900;14851
1498911;14123
1498920;14126
1498928;13763
1498936;13710
1498944;13505
1498952;13549
1498961;13383
1498969;13469
1498977;13275
1498985;13344
1498993;13156
1499002;13231
1499010;12971
1499019;13054
1499027;12754
1499035;12750
1499044;12372
1499052;12317
1499060;11876
1499068;11862
1499076;11543
1499085;11709
1499093;11553
1499101;11858
1499109;11857
1499117;12386
1499126;12604
1499134;13288
1499142;13531
1499150;14086
1499158;14159
1499166;14523
1499175;14379
1499183;14644
1499194;14542
1499202;14689
1499210;14480
1499219;14545
1499227;14373
1499235;14501
1499243;14304
1499251;14419
1499260;14188
1499268;14305
1499276;14110
1499284;14267
1499292;14010
1499301;14186
1499309;13944
1499317;14130
1499325;13960
1499334;14115
1499343;13921
1499351;14138
1499359;13927
1499367;14098
1499375;13883
1499384;14079
1499392;13879
1499400;14079
1499408;13779
1499416;13861
1499425;13526
1499433;13698
1499441;13500
1499449;13694
1499457;13482
1499465;13689
1499477;13636
1499485;13923
1499493;13783
1499501;13939
1499510;13737
1499518;13889
1499526;13712
1499534;13898
1499542;13665
1499550;13753
1499559;13891
1499567;14052
1499575;11462
1499583;7342
1499591;4698
1499600;9177
1499608;15108
1499616;15644
1499624;14816
1499632;14654
1499641;14282
1499649;14237
1499657;13893
1499666;14000
1499674;13727
1499683;13850
1499691;13600
1499699;13754
1499707;13495
1499715;13582
1499724;13265
1499732;13322
1499740;13006
1499748;13026
1499756;12713
1499768;12696
1499776;12308
1499784;12243
1499792;11844
1499800;11942
1499809;11742
1499817;11975
1499825;11886
1499833;12318
1499841;12489
1499849;13161
1499858;13398
1499866;13955
1499874;13977
1499882;14338
1499890;14290
1499899;14524
1499907;14318
1499915;14515
1499923;14318
1499931;14496
1499940;14241
1499948;14393
1499956;14191
1499964;14322
1499972;14080
1499982;14166
1499990;13941
1499998;14022
1500006;13817
1500014;13919
1500023;13732
1500031;13877
1500039;13734
1500050;13937
1500058;13759
1500067;13941
1500075;13705
1500083;13884
1500091;13679
1500099;13878
1500108;13644
1500116;13853
1500124;13632
1500132;13821
1500140;13619
1500148;13805
1500157;13614
1500165;13791
1500173;13604
1500181;13663
1500189;13332
1500198;13411
1500206;13199
1500214;13357
1500222;13210
1500230;13354
1500239;13252
1500247;13445
1500255;13362
1500263;13577
1500271;13478
1500280;13609
1500288;13470
1500297;13547
1500305;13395
1500313;13516
1500322;13425
1500332;14047
1500341;11911
1500349;7997
1500357;4982
1500366;8420
1500374;14828
1500382;15529
1500390;14713
1500398;14497
1500407;14201
1500415;14132
1500423;13813
1500431;13896
1500439;13692
1500447;13787
1500456;13548
1500464;13627
1500472;13447
1500480;13514
1500488;13295
1500497;13326
1500505;13115
1500513;13126
1500521;12879
1500529;12817
1500538;12493
1500546;12353
1500554;12055
1500562;11921
1500570;11758
1500579;11809
1500587;11844
1500595;12033
1500603;12257
1500614;13013
1500623;13329
1500631;13861
1500639;13972
1500647;14352
1500655;14311
1500664;14524
1500673;14360
1500681;14503
1500689;14336
1500697;14453
1500706;14262
1500714;14407
1500722;14266
1500730;14344
1500738;14188
1500746;14254
1500755;14145
1500763;14252
1500771;14160
1500779;14263
1500787;14174
1500796;14163
1500804;14046
1500812;14087
1500820;14025
1500828;14054
