Tempo (ms);Valor
1680966;15045
1680975;15022
1680983;14731
1680991;14651
1680999;14389
1681007;14393
1681016;14176
1681024;14246
1681032;14043
1681040;14089
1681048;13919
1681057;13996
1681065;13818
1681073;13891
1681082;13715
1681090;13788
1681098;13666
1681107;13743
1681115;13605
1681123;13679
1681131;13574
1681139;13670
1681148;13590
1681156;13571
1681164;13341
1681172;13317
1681180;13226
1681189;13302
1681197;13252
1681205;13324
1681213;13296
1681221;13420
1681230;13432
1681241;13656
1681249;13578
1681257;13668
1681265;13537
1681274;13649
1681282;13493
1681290;13567
1681298;13395
1681306;14069
1681315;13010
1681323;10004
1681331;6674
1681339;6833
1681347;13792
1681356;16000
1681364;15262
1681372;14627
1681380;14262
1681388;14162
1681396;13814
1681405;13736
1681413;13578
1681422;13591
1681430;13473
1681438;13486
1681447;13378
1681455;13375
1681463;13268
1681471;13259
1681479;13171
1681488;13111
1681496;12954
1681504;12869
1681512;12688
1681520;12477
1681532;12200
1681540;12147
1681548;11821
1681556;11863
1681564;11756
1681573;11912
1681581;11965
1681589;12293
1681597;12580
1681605;13159
1681614;13505
1681622;13990
1681630;14207
1681638;14472
1681646;14529
1681655;14640
1681663;14593
1681671;14642
1681679;14562
1681687;14560
1681695;14526
1681704;14529
1681712;14422
1681720;14355
1681728;14240
1681736;14237
1681745;14176
1681754;14154
1681762;14159
1681770;14131
1681778;14127
1681787;14118
1681795;14090
1681803;14054
1681814;14112
1681822;14241
1681831;14120
1681839;14174
1681847;14084
1681855;14189
1681863;14174
1681872;14218
1681880;14167
1681888;14147
1681896;13939
1681904;13840
1681913;13765
1681921;13732
1681929;13692
1681937;13725
1681945;13725
1681954;13786
1681962;13829
1681970;13819
1681978;13760
1681986;13725
1681994;13714
1682003;13677
1682011;13643
1682019;13562
1682027;13489
1682035;14044
1682044;13176
1682052;9986
1682060;6628
1682068;6213
1682077;13444
1682086;15979
1682096;15099
1682104;14519
1682112;14227
1682120;14051
1682130;13766
1682138;13611
1682146;13504
1682154;13475
1682162;13414
1682171;13361
1682179;13268
1682187;13221
1682195;13139
1682203;13034
1682212;12981
1682220;12836
1682228;12744
1682236;12525
1682244;12373
1682253;12111
1682261;11913
1682269;11627
1682277;11532
1682285;11419
1682294;11493
1682302;11525
1682310;11779
1682318;12006
1682326;12479
1682334;12878
1682343;13410
1682351;13677
1682359;14017
1682367;14089
1682378;14306
1682387;14411
1682395;14381
1682403;14330
1682411;14268
1682419;14218
1682428;14183
1682437;14136
1682445;14116
1682453;14066
1682461;14072
1682470;13994
1682478;13985
1682486;13927
1682494;13946
1682502;13876
1682511;13897
1682519;13825
1682527;13864
1682535;13802
1682543;13891
1682552;13815
1682560;13830
1682568;13767
1682576;13846
1682584;13707
1682593;13739
1682601;13485
1682609;13450
1682617;13298
1682625;13381
1682633;13282
1682642;13456
1682650;13420
1682661;13674
1682669;13740
1682678;13796
1682686;13759
1682694;13784
1682702;13697
1682710;13733
1682718;13642
1682727;13642
1682735;13521
1682744;14216
1682752;13397
1682760;10328
1682769;6365
1682777;5706
1682785;12731
1682793;16022
1682801;15398
1682810;14754
1682818;14351
1682826;14242
1682834;13867
1682842;13853
1682851;13677
1682859;13751
1682867;13576
1682875;13629
1682883;13449
1682892;13546
1682900;13360
1682908;13375
1682916;13175
1682924;13216
1682932;12958
1682941;12903
1682952;12580
1682960;12445
1682968;12128
1682977;11946
1682985;11710
1682993;11733
1683001;11633
1683009;11818
1683017;11923
1683026;12347
1683034;12687
1683042;13283
1683050;13634
1683059;14127
1683068;14282
1683076;14527
1683084;14498
1683092;14672
1683100;14547
1683109;14632
1683117;14436
1683125;14463
1683133;14272
1683141;14328
1683150;14124
1683158;14182
1683166;14019
1683174;14080
1683182;13909
1683191;14001
1683199;13906
1683207;13987
1683215;13831
1683223;13937
1683235;13893
1683243;14006
1683251;13873
1683259;13927
1683267;13788
1683276;13843
1683284;13703
1683292;13808
1683300;13708
1683308;13785
1683316;13574
1683325;13486
1683333;13213
1683341;13301
1683349;13231
1683357;13347
1683366;13266
1683374;13438
1683382;13395
1683391;13628
1683399;13514
1683408;13630
1683416;13504
1683424;13590
1683432;13491
1683440;13570
1683449;13426
1683457;13489
1683465;13446
1683473;14046
1683481;12321
1683490;8555
1683498;5392
1683506;7725
1683546;16360
1683554;15928
1683562;15251
1683570;14865
1683579;14554
1683587;14318
1683595;14114
1683603;13940
1683611;13738
1683620;13602
1683628;13458
1683636;13273
1683644;13119
1683653;12922
1683662;12774
1683670;12565
1683678;12363
1683686;12067
1683694;11884
1683703;11637
1683711;11570
1683719;11458
1683727;11544
1683735;11535
1683743;11740
1683752;11960
1683760;12442
1683768;12811
1683776;13340
1683784;13567
1683793;13931
1683801;14067
1683809;14280
1683817;14238
1683828;14445
1683837;14468
1683845;14394
1683853;14310
1683861;14215
1683869;14083
1683878;14053
1683886;14001
1683894;13999
1683902;13890
1683910;13908
1683919;13848
1683927;13888
1683935;13824
1683943;13876
1683951;13818
1683960;13905
1683968;13839
1683977;13880
1683985;13811
1683993;13893
1684002;13791
1684010;13882
1684018;13800
1684026;13918
1684034;13817
1684042;13880
1684051;13706
1684059;13618
1684067;13393
1684075;13529
1684083;13461
1684092;13553
1684100;13468
1684111;13691
1684119;13775
1684127;13852
1684136;13773
1684144;13812
1684152;13789
1684160;13871
1684168;13786
1684177;13840
1684185;13702
1684193;13728
1684201;14220
1684209;13214
1684218;9743
1684226;6594
1684234;6898
1684242;14446
1684250;16103
1684259;15496
1684267;14585
1684275;14320
1684283;14056
1684291;13920
1684300;13680
1684309;13671
1684317;13489
1684325;13555
1684333;13360
1684342;13438
1684350;13258
1684358;13327
1684366;13113
1684374;13108
1684382;12870
1684391;12840
1684402;12615
1684410;12534
1684418;12184
1684426;12012
1684435;11758
1684443;11758
1684451;11677
1684459;11847
1684467;11831
1684476;12131
1684484;12371
1684492;12886
1684500;13201
1684508;13728
1684517;13975
1684525;14364
1684533;14401
1684541;14656
1684549;14618
1684558;14754
1684566;14657
1684574;14723
1684582;14569
1684590;14642
1684599;14474
1684607;14492
1684615;14298
1684624;14358
1684632;14172
1684641;14263
1684649;14114
1684657;14160
1684665;14047
1684673;14150
1684685;14092
1684693;14232
1684701;14065
1684709;14118
1684717;13854
1684726;13776
1684734;13564
1684742;13675
1684750;13538
1684758;13669
1684766;13619
1684775;13798
1684783;13761
1684791;13911
1684799;13783
1684807;13880
1684816;13751
1684824;13874
1684832;13770
1684840;13856
1684848;13672
1684857;13706
1684865;13655
1684873;14099
1684881;12260
1684889;8629
1684898;5863
1684906;8533
1684914;15575
1684922;16032
1684930;15143
1684940;14551
1684948;14188
1684956;14052
1684966;13745
1684974;13803
1684983;13602
1684992;13642
1685000;13385
1685008;13409
1685016;13213
1685025;13266
1685033;13008
1685041;13036
1685049;12808
1685057;12776
1685065;12499
1685074;12433
1685082;12132
1685090;12011
1685098;11658
1685106;11578
1685115;11385
1685123;11505
1685131;11489
1685139;11729
1685147;11909
1685156;12444
1685164;12877
1685172;13408
1685180;13703
1685188;14079
1685197;14183
1685205;14331
1685213;14301
1685221;14342
1685229;14283
1685238;14320
1685249;14221
1685257;14332
1685265;14133
1685273;14152
1685282;13957
1685290;14005
1685298;13802
1685306;13864
1685315;13748
1685324;13870
1685332;13792
1685340;13878
1685348;13759
1685356;13889
1685364;13799
1685373;13880
1685381;13796
1685389;13828
1685397;13738
1685405;13717
1685414;13500
1685422;13488
1685430;13426
1685438;13465
1685446;13463
1685455;13552
1685463;13592
1685471;13724
1685479;13739
1685487;13773
1685496;13772
1685504;13818
1685512;13805
1685520;13764
1685528;13734
1685540;13826
1685548;13704
1685556;14428
1685564;13093
1685572;9534
1685581;5542
1685589;5912
1685597;13631
1685605;15858
1685613;15240
1685622;14681
1685630;14414
1685639;14269
1685647;13958
1685655;13911
1685663;13817
1685672;13849
1685680;13749
1685688;13706
1685696;13592
1685704;13534
1685713;13409
1685721;13331
1685729;13207
1685737;13102
1685745;12944
1685754;12781
1685762;12576
1685770;12310
1685778;12045
1685786;11755
1685795;11642
1685803;11542
1685811;11605
1685822;11853
1685830;12072
1685839;12483
1685847;12872
1685855;13404
1685863;13763
1685871;14136
1685880;14276
1685888;14449
1685896;14471
1685904;14559
1685912;14497
1685921;14507
1685929;14447
1685937;14439
1685946;14369
1685954;14377
1685962;14337
1685971;14311
1685979;14219
1685987;14143
1685995;14108
1686003;14024
1686012;13990
1686020;13934
1686028;13945
1686036;13889
1686044;13940
1686053;13844
1686061;13863
1686069;13770
1686077;13840
1686085;13740
1686094;13789
1686105;13883
1686113;13876
1686121;13857
1686129;13645
1686138;13595
1686146;13573
1686154;13640
1686162;13628
1686170;13685
1686179;13765
1686187;13831
1686195;13921
1686203;13947
1686211;13939
1686220;13876
1686228;13904
1686236;13881
1686244;13873
1686253;13751
1686262;13732
1686270;13729
1686278;14202
1686286;12427
1686294;8423
1686302;5024
1686311;7162
1686319;14631
1686327;15745
1686335;15018
1686343;14552
1686352;14330
1686360;14170
1686368;13861
1686376;13823
1686387;13716
1686396;13703
1686404;13616
1686412;13500
1686420;13396
1686428;13333
1686437;13186
1686445;13065
1686453;12937
1686461;12864
1686469;12700
1686478;12558
1686486;12314
1686494;12143
1686502;11858
1686510;11712
1686519;11528
1686527;11604
1686535;11556
1686543;11737
1686551;11899
1686559;12374
1686568;12817
1686576;13410
1686585;13704
1686593;14109
1686601;14255
1686610;14456
1686618;14433
1686626;14551
1686634;14447
1686642;14524
1686651;14411
1686659;14484
1686670;14417
1686678;14443
1686686;14344
1686695;14316
1686703;14216
1686711;14182
1686719;14106
1686727;14135
1686736;14031
1686744;14061
1686752;13991
1686760;14034
1686768;13916
1686777;13995
1686785;13905
1686793;13988
1686801;13860
1686809;13950
1686818;13855
1686826;13970
1686834;13848
1686842;13962
1686850;13856
1686858;13978
1686867;13859
1686875;13905
1686883;13672
1686892;13610
1686900;13409
1686909;13497
1686917;13390
1686925;13475
1686933;13361
1686941;13532
1686950;13451
1686961;13775
1686969;13801
1686977;13861
1686985;13750
1686994;13788
1687002;13682
1687010;13719
1687018;13550
1687026;13540
1687035;13691
1687043;13897
1687051;11696
1687059;7666
1687067;4988
1687076;8835
1687084;15153
1687092;15558
1687100;14750
1687108;14417
1687117;14155
1687125;14021
1687133;13750
1687141;13774
1687149;13573
1687158;13630
1687166;13478
1687174;13509
1687182;13308
1687190;13371
1687198;13219
1687207;13290
1687215;13099
1687224;13081
1687232;12843
1687242;12793
1687251;12512
1687259;12370
1687267;11966
1687276;11866
1687284;11673
1687293;11766
1687301;11673
1687309;11935
1687317;12051
1687325;12555
1687334;12935
1687342;13555
1687350;13801
1687358;14205
1687366;14274
1687375;14515
1687383;14458
1687391;14571
1687399;14452
1687407;14561
1687416;14431
1687424;14549
1687432;14430
1687440;14510
1687448;14357
1687457;14419
1687465;14246
1687473;14281
1687481;14093
1687489;14178
1687497;14037
1687506;14057
1687514;13924
1687525;14085
1687533;14019
1687542;14116
1687550;13986
1687558;14118
1687566;13985
1687574;14073
1687582;13940
1687592;14034
1687600;13875
1687608;13952
1687616;13825
1687624;13939
1687633;13803
1687641;13941
1687649;13781
1687657;13854
1687665;13705
1687674;13841
1687682;13736
1687690;13845
1687698;13668
1687706;13666
1687715;13413
1687723;13414
1687731;13295
1687739;13380
1687747;13316
1687756;13374
1687764;13294
1687772;13437
1687780;13506
1687788;13671
1687796;13627
1687808;13770
1687816;13666
1687824;13733
1687832;13570
1687841;13573
1687849;13335
1687857;13938
1687865;13372
1687873;10774
1687881;6718
1687890;5414
1687898;11231
1687907;15581
1687915;15147
1687923;14564
1687932;14208
1687940;14255
1687948;13947
1687956;13907
1687964;13765
1687973;13823
1687981;13686
1687989;13671
1687997;13522
1688005;13515
1688014;13386
1688022;13351
1688030;13202
1688038;13119
1688046;12929
1688055;12787
1688063;12575
1688071;12386
1688079;12134
1688090;11950
1688099;11726
1688107;11700
1688115;11536
1688123;11683
1688131;11700
1688140;12048
1688148;12351
1688156;12909
1688164;13272
1688172;13741
1688180;13909
1688189;14199
1688197;14272
1688205;14387
1688213;14356
1688221;14423
1688231;14348
1688239;14358
1688247;14249
1688255;14257
1688263;14208
1688272;14221
1688280;14158
1688288;14134
1688296;14090
1688304;14079
1688313;14046
1688321;14032
1688329;14030
1688337;13995
1688345;14001
1688354;14009
1688362;14050
1688370;13988
1688381;14004
1688389;14153
1688398;14009
1688406;14041
1688414;13924
1688422;13941
1688430;13848
1688439;13921
1688447;13810
1688455;13840
1688463;13728
1688471;13667
1688479;13453
1688488;13466
1688496;13444
1688504;13518
1688512;13493
1688520;13546
1688529;13612
1688537;13756
1688545;13820
1688554;13811
1688562;13788
1688571;13719
1688579;13708
1688587;13670
1688595;13682
1688603;13612
1688612;13698
1688620;14060
1688628;12539
1688636;8907
1688644;6452
1688653;8379
1688664;16276
1688672;15967
1688680;15111
1688688;14563
1688697;14310
1688705;14108
1688713;13903
1688721;13821
1688729;13729
1688738;13649
1688746;13544
1688754;13479
1688762;13419
1688770;13315
1688778;13215
1688787;13088
1688795;12992
1688803;12836
1688811;12746
1688819;12571
1688828;12454
1688836;12189
1688844;12000
1688852;11705
1688860;11617
1688870;11512
1688878;11616
1688886;11680
1688894;11985
1688902;12302
1688911;12868
1688919;13247
1688927;13761
1688935;13989
1688946;14368
1688955;14562
1688963;14584
1688971;14580
1688979;14563
1688987;14490
1688996;14441
1689004;14424
1689012;14386
1689020;14289
1689028;14200
1689037;14080
1689045;14013
1689053;13943
1689061;13948
1689069;13879
1689078;13911
1689086;13829
1689094;13901
1689102;13856
1689110;13958
1689118;13851
1689127;13908
1689135;13825
1689143;13899
1689151;13772
1689159;13849
1689168;13731
1689176;13799
1689185;13707
1689193;13807
1689201;13702
1689210;13788
1689218;13568
1689228;13564
1689237;13477
1689245;13430
1689254;13365
1689262;13412
1689270;13334
1689278;13395
1689286;13394
1689295;13525
1689303;13539
1689311;13565
1689319;13425
1689327;13449
1689336;13328
1689344;13416
1689352;13266
1689360;13268
1689368;13238
1689377;13725
1689385;11948
1689393;8181
1689401;4952
1689409;7234
1689417;14484
1689426;15481
1689434;14787
1689442;14411
1689450;14175
1689458;14116
1689467;13832
1689475;13898
1689483;13733
1689491;13762
1689499;13563
1689509;13633
1689519;13515
1689527;13598
1689535;13432
1689543;13371
1689552;13155
1689560;13088
1689569;12852
1689577;12790
1689585;12510
1689594;12376
1689602;12016
1689610;11883
1689618;11662
1689626;11732
1689635;11599
1689643;11776
1689651;11899
1689659;12344
1689667;12722
1689676;13391
1689684;13706
1689692;14123
1689700;14246
1689708;14546
1689716;14539
1689725;14712
1689733;14582
1689741;14645
1689749;14481
1689757;14612
1689766;14450
1689774;14565
1689782;14406
1689790;14474
1689801;14418
1689810;14508
1689818;14341
1689826;14372
1689834;14201
1689842;14245
1689851;14151
1689859;14266
1689867;14144
1689876;14205
1689884;14045
1689893;14105
1689901;13960
1689909;14043
1689917;13931
1689925;14062
1689934;13914
1689942;14019
1689950;13889
1689958;14011
1689966;13872
1689975;13978
1689983;13736
1689991;13746
1689999;13488
1690007;13546
1690015;13401
1690024;13538
1690032;13383
1690040;13449
1690048;13366
1690056;13537
1690065;13522
1690073;13630
1690084;13544
1690092;13717
1690100;13543
1690109;13637
1690117;13447
1690125;13476
1690133;13573
1690141;13883
1690150;11764
1690158;7897
1690166;5167
1690174;8860
1690182;15236
1690191;15584
1690199;14774
1690207;14438
1690216;14192
1690224;14069
1690233;13779
1690241;13798
1690249;13596
1690257;13628
1690265;13445
1690274;13473
1690282;13294
1690290;13307
1690298;13128
1690306;13154
1690314;12953
1690323;12963
1690331;12757
1690339;12669
1690347;12395
1690355;12206
1690367;11819
1690375;11778
1690383;11541
1690391;11632
1690399;11570
1690408;11789
1690416;11884
1690424;12400
1690432;12771
1690440;13347
1690449;13650
1690457;14118
1690465;14232
1690473;14456
1690481;14394
1690490;14502
1690498;14369
1690506;14454
1690514;14304
1690522;14381
1690531;14257
1690540;14306
1690548;14202
1690556;14271
1690564;14174
1690573;14209
1690581;14093
1690589;14104
1690597;14024
1690605;14056
1690614;14013
1690622;14050
1690630;13999
1690638;14045
1690649;14044
1690658;14183
1690666;14002
1690674;14046
1690682;13903
1690690;14035
1690698;13917
1690707;14016
1690715;13933
1690723;13978
1690731;13782
1690739;13686
1690748;13485
1690756;13576
1690764;13525
1690772;13582
1690780;13530
1690789;13620
1690797;13600
1690805;13708
1690813;13681
1690821;13724
1690830;13644
1690838;13700
1690846;13630
1690855;13635
1690863;13577
1690872;13526
1690880;13978
1690888;13566
1690896;10842
1690904;6908
1690913;5425
1690921;11586
1690929;15807
1690940;15251
1690948;14543
1690957;14395
1690965;14099
1690973;13967
1690981;13744
1690989;13740
1690998;13566
1691006;13576
1691014;13456
1691022;13456
1691030;13311
1691038;13317
1691047;13212
1691055;13171
1691063;13025
1691071;12922
1691079;12749
1691088;12576
1691096;12351
1691104;12165
1691112;11906
1691120;11747
1691129;11688
1691137;11702
1691145;11777
1691153;11903
1691161;12211
1691170;12609
1691178;13119
1691186;13590
1691195;14034
1691203;14285
1691212;14504
1691222;14721
1691230;14750
1691239;14803
1691247;14715
1691256;14701
1691264;14587
1691272;14604
1691280;14460
1691288;14447
1691297;14340
1691305;14283
1691313;14197
1691321;14156
1691329;14089
1691337;14092
1691346;14061
1691354;14038
1691362;14052
1691370;14036
1691378;14068
1691387;14032
1691395;14074
1691403;14041
1691411;14029
1691419;13971
1691428;13996
1691436;13923
1691444;13991
1691452;13919
1691460;14009
1691469;13873
1691477;13836
1691485;13644
1691493;13682
1691504;13755
1691513;13786
1691521;13769
1691529;13786
1691537;13859
1691545;13899
1691554;13948
1691563;13899
1691571;13869
1691579;13837
1691587;13797
1691596;13770
1691604;13722
1691612;13693
1691620;13692
1691628;14191
1691636;12678
1691645;9121
1691653;6410
1691661;8139
1691669;15253
1691677;16050
1691686;15242
1691694;14614
1691702;14241
1691710;14107
1691718;13749
1691727;13673
1691735;13477
1691743;13506
1691751;13317
1691759;13359
1691768;13166
1691776;13189
1691787;13161
1691795;13132
1691803;13008
1691812;12889
1691820;12696
1691828;12492
1691836;12240
1691844;12007
1691853;11714
1691861;11557
1691869;11407
1691878;11478
1691886;11473
1691895;11611
1691903;11761
1691911;12213
1691919;12633
1691927;13186
1691935;13508
1691944;13939
1691952;14090
1691960;14314
1691968;14298
1691976;14438
1691985;14340
1691993;14393
1692001;14263
1692009;14327
1692017;14196
1692026;14236
1692034;14079
1692042;14148
1692050;14004
1692058;14092
1692070;14078
1692078;14189
1692086;14146
1692094;14155
1692102;14054
1692111;14085
1692119;13969
1692127;14000
1692135;13913
1692143;13934
1692152;13831
1692160;13917
1692168;13826
1692176;13926
1692184;13860
1692193;13975
1692202;13859
1692210;13891
1692218;13722
1692226;13683
1692234;13495
1692243;13569
1692251;13502
1692259;13581
1692267;13477
1692275;13688
1692284;13688
1692292;13896
1692300;13815
1692308;13933
1692316;13766
1692325;13880
1692333;13746
1692341;13841
1692352;13742
1692360;13799
1692369;14291
1692377;13270
1692385;9724
1692393;6245
1692401;6296
1692410;13810
1692418;15853
1692426;15342
1692434;14552
1692442;14412
1692451;14090
1692459;13918
1692467;13678
1692475;13677
1692483;13512
1692492;13586
1692500;13428
1692508;13520
1692516;13366
1692524;13394
1692532;13184
1692541;13185
1692549;12937
1692558;12902
1692566;12623
1692574;12542
1692583;12171
1692591;12058
1692599;11689
1692607;11639
1692615;11468
1692624;11563
1692632;11535
1692643;11946
1692651;12214
1692659;12760
1692668;13132
1692676;13714
1692684;14002
1692692;14360
1692700;14398
1692709;14581
1692717;14498
1692725;14596
1692733;14465
1692741;14536
1692750;14351
1692758;14387
1692766;14244
1692774;14331
1692782;14143
1692791;14176
1692799;14025
1692807;14098
1692815;13951
1692823;14017
1692831;13879
1692840;13984
1692848;13876
1692856;14001
1692864;13874
1692872;13986
1692882;13880
1692890;13956
1692898;13843
1692906;13911
1692914;13815
1692925;14017
1692934;13917
1692942;14013
1692950;13868
1692958;13945
1692967;13837
1692975;13868
1692983;13637
1692991;13588
1692999;13418
1693008;13524
1693016;13433
1693024;13553
1693032;13475
1693040;13669
1693049;13648
1693057;13834
1693065;13746
1693073;13812
1693081;13665
1693090;13740
1693098;13586
1693106;13619
1693114;13432
1693122;13754
1693130;13736
1693139;11731
1693147;7634
1693155;5251
1693163;9212
1693171;15433
1693180;15472
1693188;14835
1693196;14300
1693207;14247
1693215;13925
1693224;13882
1693232;13658
1693240;13665
1693248;13516
1693256;13548
1693266;13375
1693274;13400
1693282;13204
1693290;13214
1693298;13015
1693307;13027
1693315;12807
1693323;12769
1693331;12507
1693339;12371
1693348;12067
1693356;11911
1693364;11617
1693372;11585
1693380;11527
1693389;11638
1693397;11645
1693405;11923
1693413;12256
1693421;12786
1693430;13213
1693438;13685
1693446;13975
1693454;14258
1693462;14364
1693470;14467
1693479;14459
1693490;14583
1693498;14474
1693506;14499
1693514;14304
1693523;14379
1693531;14215
1693539;14237
1693547;14078
1693555;14149
1693564;14045
1693573;14089
1693581;13970
1693589;14019
1693597;13921
1693606;13963
1693614;13870
1693622;13934
1693630;13874
1693638;13886
1693647;13784
1693655;13818
1693663;13752
1693671;13806
1693679;13781
1693688;13803
1693696;13812
1693704;13795
1693712;13705
1693720;13529
1693729;13434
1693737;13414
1693745;13464
1693753;13486
1693761;13577
1693801;15804
1693809;15656
1693818;15140
1693826;14826
1693834;14436
1693842;14330
1693850;14018
1693859;14483
1693867;13947
1693875;11318
1693884;7046
1693892;5389
1693901;11146
1693909;15837
1693917;15376
1693925;14722
1693933;14181
1693942;14115
1693950;13730
1693958;13666
1693966;13398
1693974;13420
1693982;13233
1693991;13249
1693999;13086
1694007;13116
1694015;12923
1694023;12968
1694032;12768
1694040;12770
1694048;12523
1694056;12514
1694064;12271
1694073;12198
1694081;11877
1694092;11756
1694100;11557
1694108;11577
1694117;11460
1694125;11622
1694133;11615
1694141;11990
1694149;12293
1694158;12901
1694166;13263
1694174;13746
1694182;13915
1694190;14225
1694199;14223
1694207;14428
1694216;14345
1694224;14482
1694232;14342
1694241;14379
1694249;14201
1694257;14278
1694265;14122
1694273;14210
1694281;14084
1694290;14129
1694298;13970
1694306;14015
1694314;13872
1694322;13945
1694331;13848
1694339;13950
1694347;13856
1694355;13911
1694363;13801
1694375;13907
1694383;13820
1694391;13906
1694399;13745
1694407;13843
1694416;13754
1694424;13862
1694432;13764
1694440;13881
1694448;13674
1694457;13645
1694465;13447
1694473;13583
1694481;13537
1694489;13675
1694498;13579
1694506;13723
1694514;13650
1694522;13860
1694531;13800
1694540;13881
1694548;13765
1694556;13809
1694564;13674
1694572;13683
1694580;13520
1694589;13509
1694597;13743
1694605;13693
1694613;11320
1694621;7479
1694630;5383
1694638;10350
1694646;15707
1694657;15367
1694665;14641
1694674;14447
1694682;14178
1694690;14070
1694698;13810
1694706;13843
1694715;13670
1694723;13686
1694731;13522
1694739;13547
1694747;13379
1694756;13400
1694764;13223
1694772;13238
1694780;13032
1694788;13003
1694797;12800
1694805;12707
1694813;12412
1694821;12217
1694829;11929
1694838;11803
1694846;11684
1694854;11702
1694863;11768
1694871;11943
1694879;12131
1694888;12543
1694896;12961
1694904;13426
1694912;13809
1694920;14099
1694929;14288
1694940;14539
1694948;14492
1694956;14576
1694964;14462
1694973;14532
1694981;14387
1694989;14437
1694997;14336
1695005;14397
1695014;14284
1695022;14331
1695030;14207
1695038;14235
1695046;14164
1695055;14221
1695063;14159
1695071;14195
1695079;14161
1695087;14212
1695096;14185
1695104;14191
1695112;14086
1695120;14076
1695128;14053
1695137;14085
1695145;14115
1695153;14120
1695161;14131
1695169;14079
1695177;14039
1695187;13856
1695195;13767
1695203;13637
1695211;13631
1695222;13690
1695230;13653
1695238;13770
1695247;13729
1695255;13805
1695263;13742
1695272;13824
1695280;13756
1695288;13837
1695296;13795
1695304;13827
1695313;13766
1695321;13753
1695329;14251
1695337;13707
1695345;10828
1695354;7247
1695362;6156
1695370;12661
1695378;16264
1695386;15628
1695395;14866
1695403;14337
1695411;14185
1695419;13922
1695427;13778
1695436;13630
1695444;13556
1695452;13439
1695460;13443
1695468;13324
1695476;13328
1695485;13178
1695493;13161
1695501;13007
1695512;12964
1695521;12926
1695529;12676
1695537;12453
1695545;12131
1695553;11886
1695561;11632
1695571;11470
1695579;11404
1695587;11454
1695595;11540
1695603;11666
1695612;11988
1695620;12410
1695628;12871
1695636;13306
1695644;13715
1695653;13940
1695661;14139
1695669;14191
1695677;14283
1695685;14240
1695694;14303
1695702;14231
1695710;14260
1695718;14150
1695726;14139
1695735;14005
1695743;14054
1695751;13899
1695759;13949
1695767;13812
1695775;13868
1695784;13715
1695795;13842
1695803;13874
1695811;13813
1695820;13789
1695828;13774
1695836;13749
1695844;13756
1695852;13760
1695860;13801
1695869;13786
1695877;13823
1695886;13704
1695894;13610
1695902;13439
1695911;13463
1695919;13366
1695927;13454
1695935;13450
1695943;13595
1695952;13579
1695960;13713
1695968;13630
1695976;13724
1695984;13628
1695993;13698
1696001;13590
1696009;13699
1696017;13541
1696025;13573
1696034;14063
1696042;13582
1696050;10388
1696058;6373
1696066;4986
1696078;14339
1696086;15726
1696094;15164
1696102;14492
1696110;14354
1696119;14081
1696127;13941
1696135;13743
1696143;13717
1696151;13599
1696159;13624
1696168;13518
1696176;13561
1696184;13412
1696192;13418
1696200;13209
1696210;13187
1696218;12975
1696226;12965
1696234;12686
1696242;12619
1696251;12291
1696259;12181
1696267;11863
1696275;11801
1696283;11609
1696292;11782
1696300;11743
1696308;12021
1696316;12247
1696324;12809
1696333;13167
1696341;13735
1696349;14007
1696360;14512
1696368;14632
1696377;14708
1696385;14613
1696393;14649
1696401;14516
1696409;14543
1696418;14341
1696426;14385
1696434;14219
1696442;14257
1696450;14071
1696458;14136
1696467;13993
1696475;14076
1696483;13953
1696491;14029
1696499;13899
1696508;13988
1696516;13874
1696524;14021
1696533;13920
1696541;13988
1696550;13819
1696558;13824
1696566;13585
1696574;13649
1696582;13491
1696591;13622
1696599;13558
1696607;13753
1696615;13731
1696623;13918
1696632;13855
1696643;14051
1696651;13976
1696659;14009
1696667;13866
1696676;13922
1696684;13712
1696692;13696
1696700;13949
1696708;14009
1696717;11453
1696725;7316
1696733;4715
1696741;10187
1696749;15663
1696758;15613
1696766;14768
1696774;14536
1696782;14275
1696790;14156
1696798;13878
1696807;13933
1696815;13733
1696823;13769
1696831;13610
1696839;13685
1696848;13490
1696856;13520
1696865;13305
1696873;13301
1696881;13094
1696890;13112
1696898;12866
1696906;12802
1696914;12508
1696922;12369
1696934;12045
1696942;12059
1696950;11872
1696958;11988
1696966;11947
1696975;12217
1696983;12425
1696991;12992
1696999;13330
1697007;13885
1697016;14128
1697024;14551
1697032;14578
1697040;14801
1697048;14700
1697057;14830
1697065;14672
1697073;14735
1697081;14553
1697089;14586
1697097;14438
1697106;14512
1697114;14343
1697122;14395
1697130;14252
1697138;14306
1697147;14140
1697155;14201
1697163;14071
1697171;14145
1697180;14028
1697189;14123
1697197;14071
1697205;14151
1697215;14079
1697224;14200
1697233;13933
1697241;13877
1697249;13652
1697257;13705
1697265;13570
1697274;13754
1697282;13679
1697290;13884
1697298;13828
1697306;13967
1697315;13825
1697323;13915
1697331;13795
1697339;13883
1697347;13757
1697356;13816
1697364;13635
1697372;13814
1697380;14252
1697388;12769
1697396;8780
1697405;5492
1697413;7569
1697421;15174
1697429;15851
1697437;15202
1697446;14548
1697454;14394
1697462;14112
1697470;13948
1697478;13781
1697487;13762
1697498;13667
1697506;13800
1697514;13579
1697522;13636
1697531;13419
1697539;13427
1697548;13244
1697556;13231
1697564;12979
1697573;12859
1697581;12576
1697589;12500
1697597;12136
1697605;11966
1697614;11704
1697622;11713
1697630;11637
1697638;11767
1697646;11814
1697655;12120
1697663;12447
1697671;12992
1697679;13390
1697687;13824
1697695;14075
1697704;14320
1697712;14409
1697720;14484
1697728;14475
1697736;14508
1697745;14476
1697753;14479
1697761;14443
1697769;14367
1697780;14278
1697789;14392
1697797;14224
1697805;14243
1697813;14093
1697821;14189
1697830;14080
1697838;14151
1697846;14054
1697855;14135
1697863;14034
1697872;14046
1697880;13978
1697888;14047
1697896;14000
1697904;14043
1697913;13949
1697921;13802
1697929;13639
1697937;13606
1697945;13560
1697954;13575
1697962;13597
1697970;13678
1697978;13765
1697986;13855
1697994;13866
1698003;13861
1698011;13855
1698019;13814
1698027;13825
1698035;13771
1698044;13723
1698052;13631
1698063;13896
1698071;14179
1698079;11952
1698088;7970
1698096;5267
1698104;9346
1698112;15699
1698120;15785
1698129;15025
1698137;14497
1698145;14285
1698153;14079
1698161;13841
1698170;13746
1698178;13650
1698187;13565
1698195;13470
1698203;13386
1698212;13362
1698220;13256
1698228;13156
1698236;13035
1698244;12951
1698253;12815
1698261;12719
1698269;12531
1698277;12393
1698285;12109
1698294;11918
1698302;11670
1698310;11615
1698318;11537
1698326;11687
1698334;11728
1698343;11997
1698354;12613
1698362;13118
1698370;13553
1698378;13832
1698387;14098
1698395;14265
1698403;14359
1698411;14414
1698419;14451
1698428;14469
1698436;14422
1698444;14399
1698452;14334
1698460;14311
1698469;14214
1698477;14188
1698485;14094
1698493;14093
1698501;14043
1698511;14083
1698519;14007
1698527;14040
1698535;13974
1698543;14022
1698552;13919
1698560;13978
1698568;13855
1698576;13874
1698584;13768
1698593;13841
1698601;13710
1698609;13770
1698617;13670
1698625;13736
1698637;13641
1698645;13536
1698653;13440
1698661;13396
1698669;13377
1698678;13380
1698686;13375
1698694;13472
1698702;13506
1698710;13657
1698718;13680
1698727;13738
1698735;13655
1698743;13741
1698751;13655
1698759;13684
1698768;13551
1698776;13549
1698784;13701
1698792;14024
1698800;11987
1698809;7976
1698817;4845
1698825;8026
1698833;14922
1698842;15539
1698851;14759
1698859;14366
1698867;14113
1698875;13964
1698883;13700
1698892;13722
1698900;13538
1698908;13574
1698919;13518
1698927;13536
1698936;13395
1698944;13373
1698952;13240
1698960;13178
1698968;13007
1698977;12954
1698985;12750
1698993;12644
1699001;12334
1699009;12174
1699017;11889
1699026;11816
1699034;11612
1699042;11715
1699050;11709
1699058;11941
1699067;12065
1699075;12563
1699083;12918
1699091;13473
1699099;13745
1699108;14125
1699116;14183
1699124;14391
1699132;14326
1699141;14427
1699150;14273
1699158;14398
1699166;14241
1699174;14359
1699182;14259
1699191;14368
1699210;14649
1699218;14533
1699226;14483
1699235;14330
1699243;14374
1699251;14219
1699259;14236
1699267;14078
1699276;14122
1699284;14018
1699292;14108
1699300;13949
1699308;14013
1699316;13855
1699325;13944
1699333;13800
1699341;13883
1699349;13776
1699357;13911
1699366;13804
1699374;13924
1699382;13777
1699390;13762
1699398;13488
1699407;13505
1699415;13346
1699423;13471
1699431;13326
1699439;13460
1699448;13347
1699457;13535
1699465;13478
1699473;13626
1699481;13500
1699492;13696
1699500;13628
1699509;13706
1699517;13552
1699525;13599
1699534;13386
1699542;13868
1699550;13667
1699558;11408
1699566;7110
1699575;5009
1699583;9687
1699591;15437
1699599;15317
1699607;14740
1699615;14255
1699624;14253
1699632;13890
1699640;13902
1699648;13716
1699656;13793
1699665;13633
1699673;13750
1699681;13608
1699689;13674
1699697;13526
1699706;13536
1699714;13316
1699722;13341
1699730;13113
1699738;13078
1699747;12806
1699755;12698
1699763;12369
1699771;12225
1699782;11912
1699791;12006
1699799;11814
1699807;11947
1699815;11941
1699823;12329
1699832;12608
1699841;13214
1699849;13540
1699857;14061
1699865;14182
1699874;14457
1699882;14414
1699890;14573
1699898;14465
1699906;14592
1699914;14425
1699923;14473
1699931;14303
1699939;14347
1699947;14189
1699955;14249
1699964;14094
1699972;14147
1699980;14006
1699988;14089
1699996;13982
1700005;14064
1700013;13975
1700021;14038
1700029;13964
1700037;14034
1700046;13943
1700054;13987
1700065;13952
1700073;14139
1700081;13972
1700090;14062
1700098;13901
1700106;14001
1700114;13863
1700122;13954
1700131;13832
1700140;13949
1700148;13773
1700156;13740
1700164;13485
1700173;13514
1700181;13395
1700189;13518
1700197;13387
1700205;13528
1700214;13478
1700222;13662
1700230;13660
1700238;13786
1700246;13697
1700254;13776
1700263;13707
1700271;13759
1700279;13650
1700287;13629
1700295;13495
1700304;14096
1700312;13505
1700320;10614
1700328;6586
1700336;5417
1700348;14284
1700356;15924
1700364;15165
1700372;14630
1700380;14309
1700389;14209
1700397;13887
1700405;13898
1700413;13693
1700421;13757
1700430;13634
1700438;13700
1700446;13544
1700455;13550
1700463;13401
1700472;13362
1700480;13188
1700488;13145
1700496;12934
1700504;12814
1700513;12583
1700521;12421
1700529;12148
1700537;11954
1700545;11747
1700553;11748
1700562;11764
1700570;11886
1700578;12007
1700586;12319
1700594;12711
1700603;13163
1700611;13626
1700619;13993
1700630;14337
1700638;14643
1700647;14602
1700655;14689
1700663;14583
1700671;14635
1700679;14513
1700688;14553
1700696;14410
1700704;14416
1700712;14285
1700720;14249
1700729;14126
1700737;14136
1700745;14019
1700753;13998
1700761;13920
1700770;13959
1700779;13884
1700787;13896
1700795;13859
1700803;13872
1700812;13846
1700820;13842
1700828;13822
1700836;13806
1700844;13824
1700852;13797
1700861;13785
1700869;13716
1700877;13614
1700885;13444
1700893;13470
1700902;13468
1700913;13533
1700921;13685
1700929;13632
1700937;13760
1700946;13824
1700954;13916
1700962;13818
1700970;13874
1700978;13845
1700987;13890
1700995;13860
1701003;13869
1701011;13750
1701019;14072
1701028;13931
1701036;11585
1701044;7806
1701052;5980
1701060;11050
1701069;16181
1701077;15785
1701085;14966
1701093;14403
1701101;14151
1701111;13936
1701119;13670
1701127;13613
1701135;13495
1701143;13514
1701151;13411
1701160;13413
1701168;13250
1701176;13234
1701184;13090
1701192;13074
1701204;12923
1701212;12826
1701220;12690
1701228;12490
1701236;12287
1701245;12052
1701253;11861
1701261;11686
1701269;11627
1701277;11671
1701286;11736
1701294;11880
1701302;12132
1701310;12529
1701318;12967
1701327;13435
1701335;13805
1701343;14128
1701351;14259
1701359;14429
1701368;14449
1701376;14540
1701384;14462
1701392;14517
1701400;14445
1701409;14485
1701417;14355
1701425;14361
1701434;14210
1701442;14273
1701450;14173
1701459;14251
1701467;14114
1701475;14160
1701486;14160
1701495;14203
1701503;14119
1701511;14077
1701519;14008
1701527;14024
1701535;13995
1701544;14014
1701552;13918
1701560;13937
1701568;13765
1701576;13705
1701585;13525
1701593;13534
1701601;13439
1701609;13569
1701617;13557
1701626;13689
1701634;13684
1701642;13836
1701650;13765
1701658;13849
1701667;13774
1701675;13865
1701683;13724
1701691;13790
1701699;13618
1701708;13625
1701716;13857
1701724;13882
1701732;11419
1701740;7701
1701750;5621
1701758;10705
1701768;16194
1701776;15630
1701784;14794
1701793;14356
1701801;14120
1701810;13914
1701818;13710
1701826;13675
1701834;13480
1701843;13466
1701851;13311
1701859;13372
1701867;13252
1701875;13271
1701884;13117
1701892;13101
1701900;12886
1701908;12841
1701916;12587
1701925;12513
1701933;12167
1701941;12027
1701949;11703
1701957;11642
1701966;11458
1701974;11595
1701982;11540
1701990;11826
1701998;12024
1702007;12583
1702015;12934
1702023;13494
1702031;13766
1702039;14169
1702051;14321
1702059;14473
1702067;14394
1702075;14463
1702083;14377
1702092;14381
1702100;14258
1702108;14345
1702117;14197
1702125;14215
1702134;14047
1702142;14102
1702150;13973
1702158;14016
1702166;13894
1702174;14006
1702183;13841
1702191;13966
1702199;13862
1702207;13972
1702215;13833
1702224;13949
1702232;13783
1702240;13881
1702248;13757
1702256;13847
1702265;13671
1702273;13766
1702281;13622
1702289;13751
1702297;13626
1702306;13740
1702314;13524
1702322;13497
1702333;13383
1702341;13577
1702350;13505
1702358;13606
1702366;13517
1702374;13645
1702382;13572
1702391;13770
1702399;13701
1702407;13797
1702416;13629
1702424;13760
1702433;13618
1702441;13712
1702449;13559
1702457;13618
1702465;14107
1702473;13329
1702482;9936
1702490;6209
1702498;5597
1702506;12862
1702514;15607
1702523;15246
1702531;14447
1702539;14354
1702547;14066
1702555;13950
1702564;13739
1702572;13779
1702580;13580
1702588;13585
1702596;13428
1702605;13488
1702613;13352
1702624;13484
1702632;13341
1702640;13311
1702649;13083
1702657;13126
1702665;12863
1702673;12760
1702681;12397
1702690;12271
1702698;11923
1702706;11868
1702714;11693
1702722;11816
1702730;11761
1702739;12074
1702748;12288
1702756;12852
1702764;13227
1702772;13789
1702781;14006
1702789;14373
1702797;14419
1702805;14590
1702813;14518
1702822;14627
1702830;14497
1702838;14555
1702846;14388
1702854;14387
1702863;14244
1702871;14286
1702879;14151
1702887;14147
1702895;14038
1702907;14153
1702915;14071
1702923;14115
1702931;13966
1702939;14073
1702948;13909
1702956;14007
1702964;13874
1702972;14009
1702980;13850
1702989;13931
1702997;13803
1703005;13924
1703013;13812
1703021;13952
1703030;13854
1703038;13956
1703046;13854
1703054;13936
1703063;13750
1703071;13646
1703080;13355
1703088;13395
1703096;13343
1703104;13456
1703112;13412
1703121;13529
1703129;13533
1703137;13658
1703145;13688
1703153;13721
1703162;13693
1703170;13750
1703178;13703
1703189;13842
1703197;13714
1703206;13666
1703214;14008
1703222;13668
1703230;10777
1703238;6751
1703247;5088
1703255;11120
1703263;15444
1703271;15246
1703279;14453
1703288;14244
1703296;13980
1703304;13798
1703312;13607
1703320;13602
1703329;13477
1703337;13473
1703345;13343
1703353;13335
1703361;13244
1703369;13239
1703378;13177
1703386;13105
1703394;12981
1703402;12903
1703411;12736
1703420;12555
1703428;12341
1703436;12145
1703444;11891
1703452;11697
1703461;11610
1703501;14259
1703509;14525
1703517;14523
1703525;14758
1703533;14799
1703542;14970
1703550;14873
1703558;14914
1703566;14743
1703574;14762
1703582;14538
1703591;14568
1703599;14387
1703607;14374
1703615;14162
1703623;14167
1703632;13953
1703640;13993
1703648;13796
1703656;13847
1703664;13683
1703673;13783
1703681;13667
1703689;13804
1703698;13707
1703706;13837
1703715;13712
1703723;13808
1703731;13638
1703739;13740
1703747;13603
1703756;13663
1703764;13502
1703772;13633
1703783;13596
1703791;13741
1703800;13581
1703808;13682
1703816;13545
1703824;13616
1703832;13379
1703841;13417
1703849;13209
1703857;13311
1703865;13190
1703873;13309
1703881;13178
1703890;13343
1703898;13276
1703906;13489
1703914;13442
1703922;13571
1703931;13420
1703939;13515
1703947;13405
1703955;13529
1703963;13388
1703972;13465
1703980;13585
1703988;13841
1703996;11741
1704004;7884
1704013;5269
1704022;9080
1704030;15262
1704038;15533
1704046;14702
1704055;14304
1704063;14087
1704074;13995
1704082;13833
1704090;13853
1704099;13647
1704107;13666
1704115;13434
1704123;13446
1704131;13282
1704140;13320
1704148;13104
1704156;13164
1704164;12963
1704172;12951
1704180;12697
1704189;12615
1704197;12318
1704205;12214
1704213;11881
1704221;11829
1704230;11619
1704238;11703
1704246;11711
1704254;11970
1704262;12144
1704271;12662
1704279;13027
1704287;13543
1704295;13899
1704303;14270
1704312;14414
1704320;14603
1704328;14618
1704337;14694
1704345;14645
1704356;14713
1704364;14573
1704372;14591
1704380;14445
1704389;14511
1704398;14324
1704406;14413
1704414;14254
1704422;14310
1704430;14195
1704439;14310
1704447;14173
1704455;14238
1704463;14099
1704471;14196
1704479;14074
1704488;14114
1704496;14019
1704504;14102
1704512;13972
1704520;14006
1704529;13921
1704537;13949
1704545;13860
1704553;13887
1704561;13802
1704570;13838
1704578;13806
1704586;13865
1704594;13772
1704602;13652
1704611;13478
1704619;13455
1704627;13449
1704638;13586
1704646;13539
1704655;13634
1704663;13588
1704671;13739
1704679;13716
1704687;13808
1704696;13704
1704705;13749
1704713;13665
1704721;13717
1704729;13584
1704738;13580
1704746;13397
1704754;14012
1704762;13147
1704770;10153
1704778;6832
1704787;6500
1704795;13452
1704803;16027
1704811;15330
1704819;14608
1704828;14231
1704836;14109
1704844;13873
1704852;13738
1704860;13703
1704869;13670
1704877;13597
1704885;13525
1704893;13494
1704901;13421
1704910;13387
1704921;13411
1704929;13272
1704937;13236
1704945;12991
1704954;12901
1704962;12622
1704970;12441
1704978;12071
1704986;11847
1704995;11642
1705003;11661
1705011;11685
1705019;11838
1705028;12016
1705037;12315
1705045;12688
1705053;13154
1705061;13580
1705069;13955
1705078;14191
1705086;14351
1705094;14443
1705102;14487
1705110;14537
1705118;14519
1705127;14462
1705135;14341
1705143;14332
1705151;14204
1705159;14189
1705168;14078
1705176;14098
1705184;14006
1705192;14030
1705203;14015
1705212;14012
1705220;14060
1705228;13999
1705236;14010
1705244;13991
1705253;13989
1705261;13942
1705269;13945
1705277;13873
1705285;13795
1705294;13794
1705302;13800
1705310;13782
1705318;13778
1705326;13738
1705335;13695
1705343;13646
1705351;13497
1705360;13413
1705368;13355
1705377;13453
1705385;13430
1705393;13466
1705401;13439
1705409;13544
1705417;13561
1705426;13700
1705434;13631
1705442;13691
1705450;13610
1705458;13672
1705467;13577
1705475;13684
1705486;13583
1705494;13778
1705502;13971
1705511;12016
1705519;8115
1705527;5495
1705535;8759
1705543;15431
1705552;15647
1705560;14906
1705568;14304
1705576;14171
1705584;13916
1705593;13790
1705601;13642
1705609;13645
1705617;13454
1705625;13435
1705634;13303
1705642;13355
1705650;13229
1705658;13250
1705666;13089
1705674;13109
1705683;12905
1705691;12838
1705699;12615
1705708;12539
1705716;12212
1705725;12053
1705733;11741
1705741;11736
1705749;11602
1705757;11732
1705766;11718
1705777;12164
1705785;12563
1705793;13020
1705801;13379
1705810;13802
1705818;14060
1705826;14282
1705834;14304
1705842;14378
1705851;14301
1705859;14336
1705867;14233
1705875;14258
1705883;14102
1705892;14145
1705900;14039
1705908;14087
1705916;13938
1705924;13970
1705933;13831
1705941;13898
1705949;13769
1705957;13857
1705965;13780
1705974;13875
1705982;13768
1705990;13913
1705998;13800
1706006;13888
1706015;13749
1706024;13889
1706032;13768
1706040;13853
1706048;13695
1706060;13844
1706068;13846
1706076;13868
1706084;13822
1706092;13882
1706100;13815
1706109;13847
1706117;13712
1706125;13656
1706133;13524
1706141;13622
1706150;13579
1706158;13698
1706166;13623
1706174;13779
1706182;13754
1706191;13959
1706199;13867
1706207;13982
1706215;13873
1706223;13982
1706232;13878
1706240;13917
1706248;13730
1706256;13820
1706264;14283
1706273;13324
1706281;9763
1706289;6184
1706297;6021
1706305;13513
1706313;15726
1706322;15309
1706330;14556
1706341;14489
1706349;14248
1706358;14127
1706366;13914
1706374;13909
1706382;13719
1706391;13755
1706399;13550
1706408;13563
1706416;13406
1706424;13449
1706432;13200
1706440;13189
1706449;13010
1706457;13006
1706465;12735
1706473;12683
1706481;12323
1706490;12196
1706498;11831
1706506;11829
1706514;11631
1706522;11773
1706531;11740
1706539;12016
1706547;12237
1706555;12792
1706563;13144
1706572;13709
1706580;13950
1706588;14286
1706596;14299
1706604;14470
1706612;14358
1706624;14502
1706632;14422
1706640;14471
1706648;14297
1706657;14369
1706665;14186
1706673;14279
1706681;14111
1706689;14183
1706698;14025
1706707;14128
1706715;14004
1706723;14114
1706731;13973
1706739;14046
1706748;13909
1706756;13984
1706764;13822
1706772;13891
1706780;13791
1706789;13898
1706797;13800
1706805;13897
1706813;13806
1706821;13917
1706830;13795
1706838;13907
1706846;13782
1706854;13879
1706862;13802
1706871;13785
1706879;13514
1706887;13476
1706895;13402
1706903;13513
1706915;13450
1706923;13600
1706931;13474
1706939;13614
1706947;13544
1706956;13662
1706964;13488
1706972;13606
1706980;13476
1706988;13576
1706996;13422
1707005;13452
1707013;13298
1707022;13993
1707030;13128
1707038;10069
1707047;6245
1707055;5827
1707063;12878
1707071;15803
1707079;15145
1707088;14542
1707096;14151
1707104;14044
1707112;13744
1707120;13731
1707129;13589
1707137;13595
1707145;13506
1707153;13503
1707161;13452
1707170;13433
1707178;13286
1707186;13251
1707197;13145
1707205;13202
1707214;12939
1707222;12849
1707230;12550
1707238;12424
1707246;12094
1707255;11995
1707263;11765
1707271;11792
1707279;11706
1707287;11862
1707295;11915
1707304;12314
1707312;12658
1707320;13197
1707328;13513
1707336;13919
1707346;14083
1707354;14326
1707362;14352
1707370;14476
1707378;14438
1707387;14432
1707395;14390
1707403;14442
1707411;14397
1707419;14374
1707428;14322
1707436;14311
1707444;14243
1707452;14223
1707460;14174
1707469;14129
1707480;14152
1707488;14267
1707496;14115
1707504;14162
1707513;14009
1707521;14054
1707529;13919
1707537;13956
1707545;13859
1707554;13917
1707562;13826
1707570;13883
1707578;13778
1707586;13807
1707594;13700
1707603;13639
1707611;13386
1707619;13317
1707627;13258
1707635;13317
1707644;13293
1707652;13302
1707660;13340
1707668;13439
1707676;13504
1707686;13557
1707694;13551
1707702;13537
1707710;13552
1707718;13522
1707727;13535
1707735;13477
1707743;13458
1707751;13788
1707762;13158
1707771;10092
1707779;6616
1707787;6464
1707795;13760
1707803;16166
1707812;15414
1707820;14727
1707828;14322
1707836;14204
1707844;13908
1707853;13770
1707861;13652
1707869;13568
1707877;13472
1707885;13428
1707894;13350
1707902;13325
1707910;13303
1707918;13200
1707926;13105
1707934;12972
1707943;12870
1707951;12719
1707959;12546
1707967;12323
1707975;12151
1707984;11853
1707992;11705
1708000;11586
1708008;11661
1708017;11685
1708026;11879
1708034;12080
1708044;12726
1708052;13282
1708060;13666
1708070;14074
1708078;14351
1708086;14519
1708094;14506
1708102;14542
1708111;14544
1708119;14537
1708127;14492
1708135;14418
1708143;14381
1708152;14325
1708160;14261
1708168;14201
1708176;14163
1708184;14074
1708193;14069
1708201;13968
1708209;13998
1708217;13925
1708225;13948
1708233;13874
1708242;13918
1708250;13833
1708258;13911
1708266;13843
1708274;13929
1708283;13812
1708291;13857
1708299;13726
1708307;13787
1708315;13670
1708327;13793
1708335;13803
1708343;13759
1708351;13600
1708359;13534
1708368;13540
1708376;13609
1708384;13552
1708393;13550
1708401;13564
1708410;13664
1708418;13709
1708426;13794
1708434;13722
1708442;13779
1708451;13702
1708459;13730
1708467;13615
1708475;13632
1708483;13485
1708492;14049
1708500;13537
1708508;10878
1708516;6870
1708524;5447
1708532;11467
1708541;15896
1708549;15411
1708557;14775
1708565;14245
1708573;14190
1708582;13823
1708590;13780
1708598;13614
1708606;13677
1708617;13542
1708626;13556
1708634;13435
1708642;13393
1708650;13263
1708658;13225
1708667;13063
1708675;13007
1708683;12828
1708691;12763
1708699;12508
1708708;12367
1708717;12054
1708725;11945
1708733;11690
1708741;11677
1708750;11612
1708758;11792
1708766;11870
1708774;12235
1708782;12543
1708791;13106
1708799;13447
1708807;13943
1708815;14132
1708823;14368
1708831;14336
1708840;14526
1708848;14424
1708856;14503
1708864;14368
1708872;14440
1708881;14260
1708889;14335
1708900;14242
1708908;14354
1708916;14235
1708925;14246
1708933;14133
1708941;14196
1708949;14092
1708957;14160
1708966;14056
1708974;14155
1708982;13997
1708990;14102
1708998;14008
1709007;14065
1709015;13917
1709023;14016
1709031;13894
1709040;13966
1709049;13814
1709057;13879
1709065;13655
1709073;13597
1709081;13455
1709090;13608
1709098;13500
1709106;13628
1709114;13517
1709122;13705
1709130;13678
1709139;13877
1709147;13742
1709155;13825
1709163;13723
1709171;13860
1709183;13819
1709191;13969
1709199;13826
1709207;13853
1709215;14374
1709224;13627
1709232;10162
1709240;6255
1709248;5573
1709256;13030
1709265;15828
1709273;15408
1709281;14614
1709289;14425
1709297;14132
1709306;13993
1709314;13773
1709322;13833
1709330;13655
1709338;13667
1709347;13475
1709355;13525
1709364;13386
1709372;13464
1709380;13307
1709389;13314
1709397;13121
1709405;13101
1709413;12828
1709421;12734
1709430;12424
1709438;12301
1709446;11944
1709454;11865
1709465;11761
1709474;11942
1709482;11888
1709490;12166
1709498;12350
1709506;12889
1709514;13235
1709523;13768
1709531;13976
1709539;14334
1709547;14340
1709555;14506
1709564;14380
1709572;14498
1709580;14334
1709588;14407
1709596;14185
1709605;14272
1709613;14104
1709621;14148
1709629;13980
1709637;14014
1709646;13826
1709654;13880
1709662;13746
1709670;13844
1709679;13722
1709688;13819
1709696;13731
1709704;13815
1709712;13758
1709720;13829
1709729;13751
1709737;13850
1709748;13857
1709756;13992
1709764;13779
1709773;13769
1709781;13488
1709789;13557
1709797;13449
1709805;13576
1709814;13547
1709822;13714
1709830;13692
1709838;13876
1709846;13833
1709854;13976
1709863;13869
1709871;13968
1709879;13872
1709887;13946
1709895;13777
1709904;13785
1709912;14154
1709920;14081
1709928;11352
1709936;7070
1709945;4702
1709953;10452
1709961;15677
1709969;15578
1709977;14845
1709986;14529
1709994;14331
1710003;14123
1710011;13946
1710019;13893
1710028;13788
1710038;13835
1710046;13715
1710055;13766
1710063;13563
1710072;13574
1710080;13416
1710088;13396
1710096;13136
1710104;13030
1710113;12766
1710121;12677
1710129;12328
1710137;12180
1710145;11847
1710153;11783
1710162;11648
1710170;11762
1710178;11810
1710186;12038
1710194;12257
1710203;12758
1710211;13178
1710219;13726
1710227;14070
1710235;14376
1710244;14526
1710252;14646
1710260;14623
1710268;14654
1710276;14621
1710285;14619
1710293;14549
1710301;14470
1710309;14418
1710320;14519
1710329;14437
1710337;14437
1710345;14271
1710353;14302
1710361;14180
1710371;14213
1710379;14112
1710387;14160
1710395;14035
1710403;14118
1710412;14058
1710420;14078
1710428;13938
1710436;13953
1710444;13751
1710452;13643
1710461;13542
1710469;13568
1710477;13594
1710485;13725
1710493;13766
1710502;13865
1710510;13933
1710518;13990
1710526;13987
1710534;13948
1710543;13898
1710551;13873
1710559;13851
1710567;13753
1710575;13705
1710584;13633
1710592;14352
1710603;12368
1710611;8351
1710619;5516
1710628;9158
1710636;15906
1710644;15883
1710652;15215
1710660;14607
1710669;14462
1710677;14189
1710686;14033
1710694;13904
1710702;13858
1710711;13716
1710719;13624
1710727;13538
1710735;13523
1710743;13464
1710751;13392
1710760;13307
1710768;13203
1710776;13055
1710784;12861
1710792;12678
1710801;12425
1710809;12218
1710817;11950
1710825;11768
1710833;11622
1710842;11679
1710850;11696
1710858;11866
1710866;12034
1710874;12499
1710886;13150
1710894;13573
1710902;13923
1710910;14099
1710918;14305
1710927;14353
1710935;14422
1710943;14410
1710951;14397
1710959;14382
1710968;14355
1710976;14360
1710984;14369
1710992;14333
1711000;14266
1711010;14223
1711018;14132
1711026;14089
1711034;13998
1711042;13972
1711050;13913
1711059;13934
1711067;13895
1711075;13960
1711083;13945
1711091;14021
1711100;13930
1711108;13937
1711116;13694
1711124;13621
1711132;13473
1711141;13540
1711149;13472
1711157;13628
1711168;13774
1711176;13933
1711185;13976
1711193;13974
1711201;13956
1711209;13943
1711217;13895
1711226;13911
1711234;13888
1711242;13846
1711250;13733
1711258;13739
1711267;14273
1711275;12963
1711283;9222
1711291;6093
1711299;7222
1711308;14974
1711316;16036
1711324;15405
1711332;14656
1711340;14391
1711350;14108
1711358;13934
1711366;13706
1711374;13686
1711382;13539
1711390;13576
1711399;13354
1711407;13400
1711415;13257
1711423;13291
1711431;13109
1711440;13104
1711448;12870
1711459;12766
1711467;12628
1711475;12421
1711484;12116
1711492;11889
1711500;11632
1711508;11549
1711516;11473
1711525;11586
1711533;11668
1711541;11992
1711549;12354
1711557;12912
1711566;13310
1711574;13758
1711582;13977
1711590;14268
1711598;14289
1711607;14444
1711615;14370
1711623;14460
1711631;14321
1711639;14358
1711647;14190
1711657;14274
1711665;14140
1711673;14183
1711681;13980
1711689;14030
1711698;13871
1711706;13938
1711714;13781
1711722;13868
1711730;13773
1711742;13890
1711750;13880
1711758;13940
1711766;13879
1711774;13943
1711783;13867
1711791;13958
1711799;13861
1711807;13935
1711815;13850
1711824;13854
1711832;13691
1711840;13572
1711848;13402
1711856;13518
1711865;13442
1711873;13536
1711881;13439
1711889;13621
1711897;13629
1711906;13858
1711914;13746
1711922;13849
1711930;13731
1711938;13844
1711946;13731
1711955;13802
1711963;13594
1711972;13583
1711980;14061
1711988;13451
1711997;10142
1712005;6151
1712013;5128
1712023;14580
1712033;15774
1712041;15231
1712049;14567
1712057;14475
1712065;14110
1712073;13988
1712082;13725
1712090;13723
1712098;13507
1712106;13531
1712114;13374
1712123;13411
1712131;13199
1712139;13229
1712147;13044
1712155;13051
1712164;12855
1712172;12866
1712180;12620
1712188;12617
1712196;12290
1712205;12122
1712213;11820
1712221;11819
1712229;11654
1712237;11774
1712246;11754
1712254;12031
1712262;12264
1712270;12824
1712278;13190
1712286;13727
1712295;13961
1712306;14454
1712314;14543
1712322;14691
1712330;14617
1712339;14732
1712347;14594
1712356;14655
1712364;14473
1712372;14503
1712381;14348
1712389;14333
1712397;14150
1712405;14256
1712413;14072
1712422;14152
1712430;13982
1712438;14033
1712446;13890
1712454;13983
1712463;13891
1712471;13996
1712479;13845
1712487;13943
1712495;13811
1712504;13871
1712512;13738
1712520;13831
1712528;13726
1712536;13805
1712545;13724
1712553;13833
1712561;13763
1712569;13880
1712577;13720
1712589;13708
1712597;13486
1712605;13533
1712613;13394
1712621;13498
1712630;13330
1712638;13473
1712646;13419
1712654;13661
1712662;13649
1712671;13765
1712680;13605
1712688;13712
1712696;13586
1712704;13660
1712712;13504
1712721;13568
1712729;13415
1712737;14196
1712745;13039
1712753;9664
1712762;5729
1712770;5828
1712778;13189
1712786;15689
1712794;15124
1712803;14592
1712811;14307
1712819;14173
1712827;13899
1712835;13863
1712844;13692
1712852;13665
1712860;13551
1712868;13538
1712879;13449
1712888;13542
1712896;13298
1712904;13300
1712912;13114
1712920;13082
1712929;12827
1712937;12757
1712945;12435
1712953;12307
1712961;11933
1712969;11798
1712978;11556
1712986;11589
1712994;11539
1713003;11722
1713011;11831
1713020;12246
1713028;12596
1713036;13170
1713044;13523
1713052;13916
1713061;14138
1713069;14383
1713077;14438
1713085;14531
1713093;14491
1713102;14525
1713110;14471
1713118;14426
1713126;14381
1713134;14350
1713143;14315
1713151;14280
1713162;14230
1713170;14356
1713178;14202
1713187;14240
1713195;14122
1713203;14213
1713211;14107
1713219;14169
1713228;14078
1713236;14147
1713244;14068
1713252;14134
1713260;14056
1713268;14126
1713277;14044
1713285;14084
1713293;13971
1713301;14013
1713309;13959
1713318;13949
1713327;13865
1713335;13837
1713343;13765
1713351;13772
1713360;13750
1713368;13786
1713376;13746
1713384;13683
1713392;13517
1713401;13448
1713409;13419
1713417;13435
1713425;13483
1713433;13469
1713445;13583
1713453;13819
1713461;13795
1713469;13890
1713477;13778
1713486;13792
1713494;13724
1713502;13771
1713510;13633
1713518;13585
1713527;13702
1713535;14014
1713543;12221
1713551;8366
1713559;5491
1713567;8293
1713576;15100
1713584;15546
1713592;14866
1713600;14359
1713608;14234
1713617;14010
1713625;13836
1713633;13745
1713641;13681
1713649;13578
1713659;13508
1713667;13445
1713675;13421
1713683;13305
1713691;13322
1713700;13208
1713708;13171
1713716;13008
1713756;14107
1713764;13480
1713772;13027
1713780;12556
1713789;12503
1713797;12309
1713805;12416
1713813;12467
1713821;12946
1713830;13228
1713838;13734
1713846;13917
1713854;14249
1713862;14302
1713871;14509
1713879;14405
1713887;14503
1713895;14394
1713903;14485
1713912;14304
1713920;14346
1713929;14173
1713937;14210
1713945;14052
1713954;14059
1713962;13908
1713970;13975
1713978;13868
1713986;13877
1713994;13745
1714003;13795
1714011;13708
1714019;13713
1714027;13616
1714039;13782
1714047;13702
1714055;13748
1714063;13561
1714071;13611
1714079;13494
1714088;13582
1714096;13446
1714104;13512
1714112;13418
1714120;13545
1714129;13436
1714137;13541
1714145;13430
1714153;13559
1714161;13457
1714170;13468
1714178;13260
1714186;13276
1714194;13187
1714202;13296
1714211;13217
1714219;13322
1714227;13276
1714235;13385
1714243;13403
1714253;13582
1714261;13501
1714269;13540
1714277;13506
1714285;13590
1714294;13527
1714302;13553
1714310;13463
1714318;14004
1714329;12904
1714338;9681
1714346;6545
1714354;7404
1714362;14587
1714370;15909
1714378;15116
1714387;14536
1714395;14149
1714403;14046
1714411;13739
1714419;13716
1714428;13537
1714436;13559
1714444;13374
1714452;13363
1714460;13236
1714469;13266
1714477;13140
1714485;13135
1714493;12989
1714501;12978
1714510;12786
1714518;12674
1714526;12459
1714534;12278
1714542;11976
1714551;11740
1714559;11524
1714567;11456
1714576;11456
1714584;11572
1714593;11688
1714601;11987
1714611;12575
1714619;13223
1714628;13575
1714637;13972
1714645;14121
1714653;14337
1714661;14356
1714669;14482
1714678;14436
1714686;14496
1714694;14409
1714702;14415
1714710;14310
1714718;14293
1714727;14160
1714735;14150
1714743;14051
1714751;14042
1714759;13948
1714768;13937
1714776;13881
1714784;13923
1714792;13885
1714800;13893
1714809;13886
1714817;13911
1714825;13913
1714833;13902
1714841;13899
1714850;13901
1714858;13897
1714866;13857
1714874;13872
1714882;13835
1714894;13824
1714902;13960
1714910;13849
1714918;13918
1714926;13826
1714935;13896
1714944;13824
1714952;13915
1714960;13841
1714968;13833
1714977;13667
1714985;13567
1714993;13489
1715001;13519
1715009;13472
1715017;13464
1715026;13450
1715034;13511
1715042;13556
1715050;13645
1715058;13653
1715067;13650
1715075;13625
1715083;13603
1715091;13553
1715099;13478
1715108;13410
1715116;13922
1715124;13172
1715132;10103
1715140;6403
1715149;5602
1715157;12562
1715165;15555
1715176;14922
1715184;14479
1715193;14257
1715201;14069
1715209;13819
1715217;13740
1715225;13603
1715234;13567
1715242;13498
1715250;13480
1715259;13414
1715267;13355
1715276;13269
1715284;13170
1715292;13072
1715300;12960
1715308;12855
1715316;12680
1715325;12503
1715333;12284
1715341;12075
1715349;11823
1715357;11695
1715366;11572
1715374;11604
1715382;11600
1715390;11817
1715398;12022
1715407;12516
1715415;12984
1715423;13564
1715431;13889
1715439;14226
1715448;14294
1715459;14479
1715467;14591
1715475;14543
1715483;14544
1715492;14542
1715500;14534
1715508;14497
1715516;14467
1715524;14413
1715533;14378
1715541;14335
1715549;14290
1715557;14285
1715565;14225
1715575;14196
1715583;14153
1715591;14176
1715599;14119
1715607;14147
1715615;14066
1715624;14097
1715632;14030
1715640;14056
1715648;13931
1715656;13977
1715665;13911
1715673;13984
1715681;13829
1715689;13854
1715697;13610
1715706;13557
1715714;13395
1715722;13461
1715730;13338
1715738;13496
1715750;13614
1715758;13712
1715766;13706
1715774;13704
1715782;13660
1715791;13671
1715799;13604
1715807;13590
1715815;13453
1715823;13397
1715832;13285
1715840;13880
1715848;12384
1715856;8651
1715864;5017
1715873;6344
1715881;14010
1715889;15379
1715897;14655
1715905;14210
1715914;13979
1715923;13863
1715931;13580
1715939;13592
1715947;13449
1715955;13503
1715964;13304
1715972;13377
1715980;13257
1715988;13338
1715996;13206
1716005;13267
1716013;13082
1716021;13079
1716032;12925
1716040;12861
1716049;12566
1716057;12369
1716065;12044
1716073;11872
1716081;11652
1716090;11642
1716098;11631
1716106;11840
1716114;11974
1716122;12392
1716131;12846
1716139;13417
1716147;13780
1716155;14236
1716163;14362
1716172;14573
1716180;14529
1716188;14648
1716196;14602
1716204;14702
1716212;14562
1716221;14632
1716229;14478
1716238;14538
1716246;14335
1716254;14366
1716263;14209
1716271;14276
1716279;14131
1716287;14227
1716295;14133
1716304;14235
1716315;14220
1716323;14372
1716331;14289
1716339;14315
1716348;14186
1716356;14249
1716364;14169
1716372;14226
1716380;14078
1716389;14095
1716397;13847
1716405;13807
1716413;13671
1716421;13757
1716430;13680
1716438;13842
1716446;13802
1716454;13964
1716462;13881
1716471;13986
1716479;13900
1716487;13969
1716495;13806
1716503;13908
1716511;13774
1716520;13827
1716528;13644
1716536;14124
1716544;13882
1716553;11560
1716562;7541
1716570;5628
1716578;10910
1716586;16169
1716596;15497
1716605;14918
1716614;14476
1716622;14384
1716630;14016
1716638;13961
1716647;13812
1716655;13861
1716663;13717
1716671;13731
1716679;13543
1716688;13569
1716696;13393
1716704;13401
1716712;13220
1716720;13224
1716729;12962
1716737;12929
1716745;12636
1716753;12497
1716761;12141
1716770;12014
1716778;11728
1716786;11756
1716794;11665
1716802;11853
1716810;11896
1716819;12266
1716827;12592
1716835;13195
1716843;13512
1716851;13973
1716860;14195
1716868;14471
1716879;14618
1716887;14826
1716895;14700
1716904;14734
1716912;14568
1716920;14610
1716929;14408
1716937;14437
1716946;14252
1716954;14295
1716962;14131
1716970;14189
1716978;14025
1716987;14095
1716995;13933
1717003;14015
1717011;13885
1717019;13997
1717028;13953
1717036;14072
1717044;14003
1717052;14111
1717060;13999
1717069;14015
1717077;13781
1717085;13742
1717093;13580
1717101;13614
1717110;13497
1717118;13631
1717126;13650
1717134;13838
1717142;13851
1717150;13945
1717159;13868
1717170;14053
1717178;14021
1717186;14082
1717194;13914
1717203;13919
1717211;13722
1717219;14237
1717227;13951
1717236;11552
1717245;7520
1717253;5585
1717261;10917
1717269;16147
1717277;15664
1717286;15025
1717294;14416
1717302;14300
1717310;13935
1717318;13795
1717327;13618
1717335;13609
1717343;13458
1717351;13461
1717359;13289
1717368;13265
1717376;13112
1717384;13080
1717392;12935
1717400;12923
1717409;12750
1717417;12682
1717425;12466
1717433;12308
1717441;11997
1717461;11855
1717469;11909
1717477;11735
1717485;11834
1717494;11836
1717502;12181
1717510;12507
1717518;13090
1717526;13458
1717534;13920
1717544;14088
1717552;14329
1717560;14352
1717568;14497
1717576;14428
1717585;14525
1717593;14410
1717601;14448
1717609;14331
1717617;14341
1717626;14249
1717634;14261
1717642;14171
1717650;14178
1717658;14104
1717667;14089
1717675;14019
1717683;14031
1717691;13967
1717699;13953
1717708;13885
1717716;13874
1717724;13880
1717732;13874
1717743;13934
1717752;14006
1717760;13874
1717768;13817
1717776;13543
1717784;13475
1717793;13349
1717801;13415
1717809;13355
1717817;13490
1717825;13493
1717833;13642
1717842;13579
1717850;13681
1717859;13656
1717867;13739
1717875;13698
1717884;13732
1717892;13651
1717900;13621
1717908;13593
1717916;14300
1717925;13195
1717933;9641
1717941;5665
1717949;5827
1717957;13583
1717966;15849
1717974;15307
1717982;14701
1717990;14552
1717998;14340
1718007;14142
1718015;14006
1718026;13931
1718034;13978
1718042;13791
1718051;13710
1718059;13578
1718067;13551
1718075;13382
1718083;13332
1718092;13174
1718100;13104
1718108;12895
1718116;12718
1718124;12467
1718132;12234
1718141;11946
1718149;11750
1718157;11628
1718165;11602
1718173;11659
1718182;11753
1718190;11925
1718199;12255
1718207;12739
1718215;13224
1718224;13673
1718232;13980
1718240;14240
1718248;14340
1718256;14442
1718265;14412
1718273;14456
1718281;14420
1718289;14442
1718297;14313
1718309;14317
1718317;14410
1718325;14283
1718333;14231
1718341;14114
1718350;14122
1718358;14045
1718366;13995
1718374;13956
1718382;13929
1718391;13894
1718399;13907
1718407;13884
1718415;13867
1718423;13843
1718431;13831
1718440;13853
1718448;13816
1718456;13792
1718464;13752
1718472;13779
1718481;13662
1718489;13609
1718497;13384
1718505;13395
1718513;13335
1718523;13415
1718531;13344
1718539;13483
1718547;13502
1718555;13663
1718564;13679
1718572;13746
1718580;13679
1718588;13758
1718599;13807
1718608;13828
1718616;13752
1718624;13662
1718632;13677
1718640;14173
1718649;12683
1718657;8837
1718665;5295
1718673;6740
1718681;14333
1718690;15658
1718698;15011
1718706;14463
1718714;14238
1718722;14068
1718730;13821
1718739;13761
1718747;13621
1718755;13606
1718763;13473
1718771;13505
1718780;13389
1718788;13421
1718796;13299
1718804;13303
1718812;13125
1718821;13083
1718829;12877
1718838;12816
1718846;12510
1718854;12358
1718863;11978
1718871;11843
1718881;11679
1718890;11739
1718898;11779
1718907;11904
1718915;12062
1718923;12440
1718931;12875
1718939;13391
1718948;13800
1718956;14171
1718964;14305
1718972;14501
1718980;14521
1718989;14603
1718997;14538
1719005;14591
1719013;14495
1719021;14507
1719030;14412
1719038;14441
1719046;14295
1719054;14322
1719062;14183
1719070;14239
1719079;14083
1719087;14135
1719095;14029
1719103;14133
1719111;14037
1719120;14116
1719128;13998
1719136;14112
1719144;13975
1719153;14047
1719164;14023
1719172;14111
1719180;13977
1719188;13984
1719196;13904
1719206;13946
1719214;13796
1719222;13847
1719230;13740
1719238;13727
1719247;13498
1719255;13492
1719263;13386
1719271;13456
1719279;13347
1719288;13447
1719296;13433
1719304;13611
1719312;13592
1719320;13700
1719329;13594
1719337;13674
1719345;13568
1719353;13682
1719361;13556
1719369;13586
1719378;13440
1719386;13868
1719394;13727
1719402;11554
1719410;7279
1719419;5079
1719427;9577
1719435;15521
1719446;15298
1719454;14767
1719463;14412
1719471;14318
1719479;13997
1719487;13975
1719495;13845
1719504;13872
1719512;13714
1719520;13732
1719529;13600
1719537;13600
1719546;13430
1719554;13482
1719562;13307
1719570;13277
1719578;13019
1719587;12949
1719595;12617
1719603;12450
1719611;12094
1719619;11985
1719628;11725
1719636;11781
1719644;11703
1719652;11869
1719660;11901
1719668;12273
1719677;12539
1719685;13120
1719693;13505
1719701;13977
1719709;14165
1719718;14462
1719726;14486
1719737;14698
1719745;14698
1719753;14765
1719762;14619
1719770;14658
1719778;14500
1719786;14531
1719794;14404
1719803;14457
1719811;14275
1719819;14346
1719827;14225
1719835;14299
1719844;14173
1719853;14215
1719861;14093
1719869;14172
1719877;14009
1719886;14096
1719894;13991
1719902;14102
1719910;14020
1719918;14087
1719927;13971
1719935;14046
1719943;13968
1719951;14022
1719959;13801
1719967;13713
1719976;13450
1719984;13496
1719992;13423
1720000;13475
1720008;13407
1720020;13667
1720028;13723
1720036;13888
1720044;13812
1720052;13892
1720061;13779
1720069;13842
1720077;13717
1720085;13786
1720093;13581
1720102;13591
1720110;13865
1720118;13838
1720126;11346
1720134;7416
1720143;5230
1720151;10587
1720159;15711
1720167;15516
1720175;14738
1720184;14359
1720193;14134
1720201;14017
1720209;13804
1720217;13821
1720226;13697
1720234;13719
1720242;13602
1720250;13591
1720258;13468
1720266;13463
1720275;13305
1720283;13233
1720291;13051
1720302;13010
1720311;12798
1720319;12692
1720327;12364
1720335;12210
1720343;11854
1720351;11790
1720360;11630
1720368;11719
1720376;11669
1720384;11907
1720392;12041
1720401;12555
1720409;12956
1720417;13491
1720425;13795
1720433;14164
1720442;14311
1720450;14485
1720458;14454
1720466;14546
1720474;14491
1720483;14540
1720491;14401
1720499;14471
1720508;14386
1720516;14384
1720525;14267
1720533;14230
1720541;14103
1720549;14073
1720557;13987
1720566;13978
1720574;13932
1720585;14030
1720593;13949
1720601;14035
1720610;13911
1720618;14022
1720626;13951
1720634;14050
1720642;13914
1720650;13966
1720659;13786
1720667;13758
1720675;13583
1720683;13652
1720691;13581
1720700;13721
1720708;13759
1720716;13876
1720724;13867
1720732;13917
1720741;13912
1720749;13939
1720757;13867
1720765;13867
1720773;13797
1720782;13793
1720790;13714
1720798;13664
1720806;13910
1720814;13874
1720824;11624
1720832;7848
1720840;5820
1720848;10553
1720856;16083
1720867;15614
1720875;14795
1720884;14357
1720892;14094
1720900;13926
1720909;13684
1720917;13709
1720925;13600
1720933;13620
1720941;13504
1720950;13464
1720958;13294
1720966;13256
1720974;13114
1720982;13068
1720990;12881
1720999;12790
1721007;12586
1721015;12408
1721023;12166
1721031;11960
1721040;11718
1721048;11595
1721056;11528
1721064;11553
1721072;11629
1721081;11774
1721089;12078
1721097;12527
1721105;13047
1721113;13507
1721122;13940
1721130;14201
1721138;14414
1721149;14651
1721157;14667
1721166;14684
1721174;14569
1721182;14575
1721190;14420
1721199;14391
1721208;14297
1721216;14274
1721224;14175
1721232;14156
1721240;14095
1721249;14089
1721257;13997
1721265;13953
1721273;13919
1721281;13910
1721289;13897
1721298;13882
1721306;13879
1721314;13870
1721322;13889
1721330;13869
1721339;13890
1721347;13855
1721355;13869
1721363;13828
1721371;13832
1721380;13738
1721388;13676
1721396;13482
1721404;13371
1721412;13291
1721421;13360
1721429;13280
1721440;13346
1721448;13469
1721456;13468
1721465;13525
1721473;13513
1721481;13529
1721489;13509
1721497;13487
1721507;13476
1721515;13450
1721523;13401
1721531;13321
1721539;13913
1721548;13404
1721556;10564
1721564;6540
1721572;5189
1721580;11580
1721588;15737
1721597;15415
1721605;14818
1721613;14493
1721621;14366
1721629;14052
1721638;13960
1721646;13804
1721654;13785
1721662;13655
1721670;13663
1721679;13478
1721687;13461
1721695;13257
1721703;13253
1721711;13112
1721723;13068
1721731;13008
1721739;12817
1721747;12613
1721755;12431
1721764;12210
1721772;11999
1721780;11828
1721788;11802
1721796;11792
1721805;11891
1721813;12028
1721822;12374
1721830;12785
1721838;13289
1721847;13667
1721855;14083
1721863;14275
1721871;14499
1721879;14517
1721887;14594
1721896;14517
1721904;14581
1721912;14489
1721920;14519
1721928;14403
1721937;14445
1721945;14341
1721953;14394
1721961;14277
1721969;14278
1721978;14148
1721986;14216
1721994;14062
1722005;14169
1722013;14160
1722022;14140
1722030;14050
1722038;14062
1722046;13990
1722054;13989
1722063;13910
1722071;13914
1722079;13844
1722087;13885
1722095;13809
1722104;13866
1722112;13721
1722120;13722
1722128;13479
1722136;13481
1722145;13410
1722154;13525
1722162;13455
1722170;13535
1722178;13487
1722186;13649
1722195;13656
1722203;13764
1722211;13632
1722219;13713
1722227;13614
1722236;13681
1722244;13563
1722252;13599
1722260;13404
1722268;13900
1722277;13632
1722288;9823
1722296;5827
1722304;5626
1722312;12972
1722321;15645
1722329;15088
1722337;14498
1722345;14165
1722353;14028
1722362;13725
1722370;13712
1722378;13563
1722386;13560
1722394;13439
1722403;13467
1722411;13338
1722419;13395
1722427;13242
1722435;13247
1722444;13034
1722452;13030
1722460;12786
1722468;12736
1722476;12475
1722486;12384
1722494;12022
1722502;11855
1722510;11606
1722518;11658
1722526;11592
1722535;11811
1722543;11846
1722551;12234
1722559;12591
1722570;13439
1722579;13861
1722587;14249
1722595;14356
1722603;14512
1722611;14461
1722620;14571
1722628;14504
1722636;14525
1722644;14396
1722652;14494
1722661;14377
1722669;14372
1722677;14198
1722685;14250
1722693;14081
1722702;14104
1722710;13944
1722718;13991
1722726;13883
1722734;13943
1722743;13838
1722751;13948
1722759;13838
1722767;13909
1722775;13812
1722783;13911
1722792;13799
1722800;13891
1722809;13794
1722817;13900
1722825;13780
1722834;13828
1722842;13712
1722850;13767
1722861;13612
1722870;13588
1722878;13374
1722886;13439
1722894;13366
1722902;13485
1722910;13454
1722919;13631
1722927;13596
1722935;13774
1722943;13678
1722951;13756
1722960;13592
1722968;13680
1722976;13567
1722984;13624
1722992;13476
1723001;13501
1723009;13901
1723017;13640
1723025;10824
1723033;6811
1723042;5050
1723050;11166
1723058;15583
1723066;15399
1723074;14612
1723082;14369
1723091;14139
1723099;13999
1723107;13808
1723115;13799
1723123;13663
1723132;13682
1723143;13575
1723151;13660
1723159;13454
1723167;13449
1723176;13233
1723184;13230
1723193;12980
1723201;12925
1723209;12657
1723218;12571
1723226;12241
1723234;12106
1723242;11799
1723250;11733
1723259;11554
1723267;11664
1723275;11660
1723283;11882
1723291;12073
1723300;12584
1723308;13010
1723316;13561
1723324;13860
1723332;14227
1723341;14315
1723349;14503
1723357;14496
1723365;14607
1723373;14583
1723382;14620
1723390;14505
1723398;14508
1723406;14433
1723414;14429
1723454;16229
1723462;15884
1723472;15483
1723480;15147
1723488;14908
1723496;14676
1723504;14547
1723513;14375
1723521;14279
1723529;14083
1723537;14048
1723545;13943
1723554;13983
1723562;13853
1723570;13846
1723578;13693
1723586;13662
1723594;13409
1723603;13364
1723611;13265
1723619;13364
1723627;13243
1723635;13357
1723644;13388
1723652;13591
1723660;13581
1723668;13675
1723676;13604
1723685;13684
1723693;13585
1723701;13636
1723709;13498
1723717;13535
1723726;13358
1723737;13936
1723745;13550
1723753;10947
1723761;7096
1723770;5578
1723778;11586
1723786;15906
1723795;15389
1723803;14726
1723812;14136
1723820;14028
1723828;13734
1723836;13634
1723844;13458
1723853;13448
1723861;13320
1723869;13392
1723877;13240
1723885;13261
1723894;13125
1723902;13138
1723910;12988
1723918;13017
1723926;12783
1723934;12722
1723943;12437
1723951;12382
1723959;12083
1723967;11918
1723975;11634
1723984;11647
1723992;11526
1724000;11705
1724008;11736
1724019;12280
1724028;12656
1724036;13165
1724044;13522
1724052;13956
1724060;14126
1724069;14390
1724077;14429
1724085;14572
1724094;14546
1724102;14623
1724111;14526
1724119;14581
1724127;14451
1724135;14468
1724143;14292
1724152;14341
1724160;14170
1724168;14173
1724176;14023
1724184;14093
1724193;13972
1724201;14041
1724209;13924
1724217;13968
1724225;13855
1724233;13961
1724242;13846
1724250;13946
1724258;13844
1724266;13917
1724274;13833
1724283;13896
1724291;13765
1724299;13886
1724310;13794
1724318;13808
1724327;13554
1724335;13594
1724343;13523
1724351;13606
1724359;13465
1724368;13571
1724376;13545
1724384;13734
1724392;13701
1724400;13761
1724410;13638
1724418;13738
1724426;13641
1724434;13771
1724442;13662
1724451;13728
1724459;13580
1724467;14302
1724475;13210
1724483;9963
1724492;6485
1724500;6425
1724508;13724
1724516;16109
1724524;15403
1724532;14796
1724541;14347
1724549;14275
1724557;13965
1724565;13887
1724573;13705
1724582;13681
1724593;13532
1724601;13634
1724609;13428
1724617;13425
1724626;13218
1724634;13255
1724642;13027
1724650;13030
1724658;12793
1724667;12691
1724675;12395
1724683;12251
1724691;11886
1724699;11766
1724708;11505
1724716;11577
1724724;11526
1724732;11714
1724740;11801
1724750;12234
1724758;12604
1724766;13181
1724774;13534
1724782;13980
1724791;14146
1724799;14353
1724807;14323
1724815;14398
1724823;14327
1724831;14376
1724840;14265
1724848;14332
1724856;14271
1724864;14292
1724876;14206
1724884;14322
1724892;14137
1724900;14152
1724908;14022
1724916;14089
1724925;13946
1724933;14009
1724941;13876
1724949;13937
1724957;13837
1724966;13944
1724974;13836
1724982;13868
1724990;13723
1724998;13750
1725007;13677
1725015;13742
1725023;13652
1725031;13685
1725039;13518
1725048;13405
1725056;13241
1725064;13293
1725072;13291
1725081;13344
1725090;13325
1725098;13464
1725106;13508
1725114;13634
1725122;13583
1725130;13574
1725139;13563
1725147;13573
1725158;13525
1725166;13645
1725175;13468
1725183;13515
1725191;14047
1725199;12931
1725207;9150
1725215;5364
1725224;5702
1725232;13579
1725240;15536
1725248;15040
1725256;14347
1725265;14229
1725273;13987
1725281;13869
1725289;13691
1725297;13636
1725306;13522
1725314;13501
1725322;13433
1725330;13440
1725338;13351
1725347;13300
1725355;13236
1725363;13189
1725371;13076
1725379;12962
1725388;12792
1725396;12601
1725404;12347
1725413;12078
1725421;11846
1725430;11707
1725440;11723
1725448;11880
1725457;11851
1725465;12098
1725474;12394
1725482;12911
1725490;13294
1725498;13800
1725506;14066
1725514;14335
1725523;14405
1725531;14509
1725539;14535
1725547;14618
1725555;14550
1725564;14538
1725572;14469
1725580;14445
1725588;14385
1725596;14374
1725605;14356
1725613;14296
1725621;14204
1725629;14126
1725637;14085
1725646;14042
1725654;14009
1725662;13952
1725670;13950
1725678;13894
1725687;13926
1725695;13896
1725703;13929
1725711;13915
1725720;13972
1725731;14038
1725739;13994
1725747;14006
1725755;13934
1725763;13980
1725773;13818
1725781;13751
1725789;13584
1725797;13552
1725805;13527
1725814;13562
1725822;13571
1725830;13622
1725838;13660
1725846;13754
1725854;13792
1725863;13832
1725871;13844
1725879;13831
1725887;13855
1725895;13835
1725904;13817
1725912;13745
1725920;13707
1725928;14320
1725936;13295
1725945;9681
1725953;5806
1725961;5773
1725969;13443
1725977;15745
1725986;15244
1725994;14514
1726002;14377
1726013;14096
1726021;13913
1726030;13862
1726038;13753
1726046;13689
1726054;13623
1726062;13589
1726071;13493
1726080;13430
1726088;13337
1726096;13242
1726104;13138
1726113;13002
1726121;12877
1726129;12673
1726137;12512
1726145;12271
1726153;12050
1726162;11787
1726170;11700
1726178;11569
1726186;11618
1726194;11660
1726203;11872
1726211;12121
1726219;12653
1726227;13105
1726235;13598
1726244;13883
1726252;14219
1726260;14278
1726268;14466
1726276;14454
1726285;14550
1726296;14559
1726304;14615
1726312;14579
1726320;14516
1726329;14457
1726337;14424
1726345;14351
1726353;14307
1726361;14257
1726370;14256
1726379;14258
1726387;14262
1726395;14225
1726403;14234
1726412;14151
1726420;14184
1726428;14106
1726436;14141
1726444;14060
1726452;14097
1726461;14007
1726469;14092
1726477;14035
1726485;14088
1726493;14032
1726502;14080
1726510;13887
1726518;13806
1726526;13605
1726534;13662
1726543;13593
1726551;13682
1726559;13610
1726567;13737
1726578;13807
1726587;13955
1726595;13912
1726603;13879
1726611;13814
1726619;13834
1726628;13794
1726636;13822
1726644;13675
1726652;13632
1726660;13978
1726669;13825
1726677;11382
1726685;7522
1726693;5500
1726701;10913
1726711;15943
1726719;15721
1726727;14929
1726735;14490
1726743;14274
1726751;14106
1726760;13825
1726768;13798
1726776;13616
1726784;13622
1726792;13469
1726801;13472
1726809;13309
1726817;13339
1726825;13136
1726833;13157
1726842;12947
1726850;12929
1726861;12733
1726869;12610
1726877;12281
1726886;12073
1726894;11797
1726902;11699
1726910;11578
1726918;11687
1726927;11696
1726935;11895
1726943;12093
1726951;12598
1726959;13002
1726968;13489
1726976;13771
1726984;14117
1726992;14255
1727000;14439
1727009;14417
1727018;14517
1727026;14458
1727034;14491
1727042;14385
1727050;14449
1727059;14299
1727067;14365
1727075;14231
1727083;14254
1727091;14101
1727100;14191
1727108;14106
1727116;14179
1727124;14074
1727132;14182
1727141;14063
1727152;14208
1727160;14161
1727168;14174
1727176;14065
1727185;14101
1727193;13988
1727201;14018
1727209;13914
1727217;13999
1727226;13872
1727234;13945
1727242;13851
1727250;13839
1727258;13585
1727267;13523
1727275;13397
1727283;13515
1727291;13448
1727299;13515
1727308;13425
1727316;13548
1727324;13544
1727332;13659
1727340;13533
1727350;13604
1727358;13500
1727366;13593
1727374;13481
1727382;13494
1727390;13361
1727399;13407
1727407;13914
1727415;13020
1727423;9736
1727434;6292
1727443;8881
1727451;15707
1727459;15872
1727467;15180
1727475;14395
1727484;14179
1727492;13854
1727500;13708
1727508;13484
1727516;13513
1727525;13354
1727533;13349
1727541;13175
1727549;13228
1727557;13098
1727566;13148
1727574;12977
1727582;12951
1727590;12770
1727598;12744
1727607;12469
1727615;12340
1727623;12040
1727631;11902
1727639;11637
1727647;11604
1727656;11476
1727664;11656
1727672;11683
1727681;11948
1727689;12170
1727698;12720
1727706;13150
1727716;13860
1727725;14072
1727734;14301
1727742;14343
1727750;14538
1727758;14443
1727766;14545
1727774;14415
1727783;14474
1727791;14360
1727799;14397
1727807;14248
1727815;14279
1727824;14166
1727832;14241
1727840;14125
1727848;14173
1727856;14059
1727865;14131
1727873;14034
1727881;14100
1727889;13974
1727897;14053
1727906;13956
1727914;14033
1727922;14020
1727930;14084
1727938;13962
1727946;14003
1727955;13887
1727963;13909
1727971;13828
1727979;13852
1727988;13759
1727999;13856
1728007;13700
1728015;13620
1728023;13364
1728031;13373
1728041;13273
1728049;13382
1728057;13256
1728065;13343
1728073;13299
1728082;13448
1728090;13462
1728098;13578
1728106;13515
1728114;13592
1728123;13498
1728131;13589
1728139;13507
1728147;13537
1728155;13584
1728164;14084
1728172;12429
1728180;8648
1728188;5250
1728196;7022
1728205;14464
1728213;15616
1728221;14944
1728229;14457
1728237;14272
1728246;14035
1728254;13812
1728262;13704
1728270;13652
1728278;13623
1728290;13570
1728298;13639
1728306;13450
1728314;13445
1728322;13253
1728330;13221
1728339;13005
1728347;12929
1728355;12674
1728364;12584
1728372;12285
1728381;12092
1728389;11819
1728397;11670
1728405;11500
1728413;11559
1728422;11576
1728430;11741
1728438;11906
1728446;12314
1728454;12768
1728463;13330
1728471;13737
1728479;14124
1728487;14350
1728495;14512
1728504;14557
1728512;14576
1728520;14581
1728528;14548
1728536;14502
1728545;14490
1728553;14444
1728561;14355
1728572;14325
1728580;14399
1728589;14282
1728597;14319
1728605;14189
1728613;14212
1728621;14135
1728630;14137
1728638;14064
1728646;14112
1728654;14018
1728662;14068
1728671;14031
1728680;14035
1728688;13976
1728696;13974
1728704;13879
1728712;13831
1728721;13773
1728729;13786
1728737;13763
1728745;13745
1728753;13739
1728762;13719
1728770;13717
1728778;13702
1728786;13754
1728794;13716
1728803;13676
1728811;13555
1728819;13558
1728827;13528
1728835;13564
1728844;13526
1728855;13625
1728863;13796
1728871;13779
1728879;13846
1728888;13774
1728896;13770
1728904;13701
1728912;13692
1728920;13608
1728929;13584
1728937;13489
1728945;14140
1728953;13370
1728961;10197
1728969;6209
1728978;5483
1728986;12474
1728994;15578
1729003;15167
1729011;14539
1729020;14323
1729028;14082
1729036;13861
1729044;13736
1729052;13703
1729061;13611
1729069;13590
1729077;13464
1729085;13433
1729093;13320
1729102;13320
1729110;13163
1729118;13129
1729126;12939
1729137;12839
1729146;12769
1729154;12527
1729162;12321
1729170;12102
1729178;11908
1729187;11733
1729195;11666
1729203;11691
1729211;11782
1729219;11918
1729228;12177
1729236;12625
1729244;13056
1729252;13534
1729260;13903
1729268;14177
1729277;14299
1729285;14430
1729293;14403
1729301;14452
1729309;14385
1729319;14405
1729327;14289
1729335;14329
1729343;14220
1729351;14228
1729360;14125
1729368;14184
1729376;14079
1729384;14175
1729392;14087
1729401;14164
1729409;14057
1729420;14148
1729428;14195
1729436;14168
1729445;14140
1729453;14122
1729461;14067
1729469;14039
1729477;13977
1729486;13951
1729494;13883
1729502;13922
1729510;13825
1729518;13906
1729527;13757
1729535;13713
1729543;13475
1729551;13460
1729559;13402
1729567;13528
1729576;13471
1729584;13573
1729592;13559
1729600;13703
1729608;13686
1729617;13782
1729625;13704
1729634;13808
1729642;13708
1729650;13795
1729659;13674
1729667;13684
1729675;13598
1729683;14188
1729691;12554
1729703;7367
1729711;5256
1729719;10640
1729727;15865
1729735;15702
1729744;14958
1729752;14625
1729760;14418
1729768;14249
1729776;14069
1729785;14076
1729793;13934
1729801;13941
1729809;13800
1729817;13804
1729826;13649
1729834;13653
1729842;13494
1729850;13500
1729858;13321
1729866;13317
1729875;13087
1729883;12996
1729891;12692
1729899;12531
1729907;12158
1729916;12052
1729924;11819
1729932;11908
1729940;11848
1729948;12063
1729957;12132
1729966;12592
1729974;12949
1729982;13525
1729992;14030
1730001;14408
1730010;14537
1730018;14685
1730026;14670
1730034;14758
1730043;14688
1730051;14743
1730059;14597
1730067;14629
1730075;14520
1730084;14552
1730092;14423
1730100;14456
1730108;14343
1730116;14405
1730125;14288
1730133;14398
1730141;14265
1730149;14265
1730157;14129
1730166;14215
1730174;14050
1730182;14105
1730190;13982
1730198;14068
1730206;13969
1730215;14062
1730223;13917
1730231;13905
1730239;13653
1730247;13624
1730256;13461
1730264;13533
1730275;13536
1730283;13705
1730291;13626
1730300;13727
1730308;13625
1730316;13693
1730325;13601
1730333;13688
1730342;13583
1730350;13665
1730358;13560
1730366;13636
1730374;13468
1730383;13845
1730391;13759
1730399;11639
1730407;7696
1730415;5574
1730424;10100
1730432;15915
1730440;15557
1730448;14898
1730456;14247
1730465;14151
1730473;13818
1730481;13664
1730489;13489
1730497;13480
1730505;13303
1730514;13335
1730522;13179
1730530;13206
1730538;13083
1730546;13104
1730558;12961
1730566;13013
1730574;12803
1730582;12708
1730590;12387
1730599;12253
1730607;11921
1730615;11770
1730623;11492
1730632;11504
1730641;11426
1730649;11629
1730657;11708
1730665;12074
1730673;12384
1730682;12963
1730690;13338
1730698;13793
1730706;14005
1730714;14321
1730723;14340
1730731;14507
1730739;14444
1730747;14573
1730755;14490
1730764;14527
1730772;14463
1730780;14517
1730788;14383
1730796;14422
1730804;14323
1730813;14362
1730821;14288
1730829;14328
1730840;14255
1730849;14376
1730857;14213
1730865;14236
1730873;14072
1730881;14156
1730889;14047
1730898;14151
1730906;14024
1730914;14064
1730922;13928
1730930;13849
1730939;13596
1730948;13576
1730956;13458
1730964;13558
1730972;13509
1730981;13683
1730989;13651
1730997;13784
1731005;13733
1731013;13830
1731022;13783
1731030;13828
1731038;13736
1731046;13760
1731054;13672
1731063;13703
1731071;13639
1731079;14366
1731087;13315
1731095;9935
1731103;6413
1731112;6417
1731123;15659
1731131;16142
1731139;15287
1731148;14728
1731156;14381
1731164;14265
1731172;13923
1731180;13836
1731188;13656
1731197;13630
1731205;13410
1731213;13413
1731221;13275
1731229;13307
1731238;13166
1731246;13087
1731254;12853
1731262;12778
1731270;12572
1731280;12410
1731288;12133
1731296;11947
1731304;11692
1731312;11532
1731321;11376
1731329;11392
1731337;11416
1731345;11538
1731353;11712
1731362;12087
1731370;12581
1731378;13040
1731386;13475
1731394;13830
1731402;14069
1731414;14348
1731422;14369
1731430;14502
1731438;14410
1731447;14433
1731455;14263
1731463;14242
1731471;14157
1731479;14194
1731487;14045
1731496;14015
1731504;13884
1731512;13867
1731520;13785
1731528;13810
1731537;13703
1731545;13727
1731553;13721
1731561;13745
1731569;13726
1731578;13765
1731586;13776
1731594;13815
1731603;13827
1731611;13843
1731620;13824
1731628;13817
1731636;13767
1731644;13643
1731652;13477
1731661;13391
1731669;13383
1731677;13391
1731685;13455
1731696;13589
1731705;13674
1731713;13819
1731721;13766
1731729;13829
1731737;13792
1731746;13863
1731754;13829
1731762;13857
1731770;13773
1731778;13720
1731786;14011
1731795;14111
1731803;11837
1731811;7609
1731819;4857
1731827;9176
1731836;15494
1731844;15661
1731852;15003
1731860;14541
1731868;14389
1731877;14077
1731885;13937
1731893;13798
1731901;13768
1731910;13705
1731919;13692
1731927;13550
1731935;13505
1731943;13372
1731951;13344
1731960;13225
1731968;13166
1731979;13037
1731987;12873
1731995;12748
1732004;12473
1732012;12241
1732020;11947
1732028;11762
1732036;11679
1732045;11677
1732053;11710
1732061;11836
1732069;12050
1732077;12450
1732086;12966
1732094;13454
1732102;13849
1732110;14112
1732118;14288
1732126;14352
1732135;14425
1732143;14421
1732151;14497
1732159;14419
1732167;14417
1732176;14307
1732184;14328
1732192;14231
1732200;14234
1732208;14127
1732217;14145
1732225;14026
1732234;14089
1732242;13977
1732250;14044
1732261;14086
1732269;14141
1732277;14107
1732286;14119
1732294;14089
1732303;14033
1732311;13996
1732319;13976
1732327;13940
1732335;13937
1732344;13918
1732352;13941
1732360;13845
1732368;13783
1732376;13583
1732385;13568
1732393;13502
1732401;13585
1732409;13542
1732417;13655
1732425;13674
1732434;13804
1732442;13799
1732450;13850
1732458;13731
1732466;13778
1732475;13679
1732483;13713
1732491;13578
1732499;13581
1732507;13374
1732516;13703
1732524;13684
1732532;11478
1732543;5891
1732551;5047
1732560;12066
1732568;15543
1732576;15092
1732584;14460
1732592;14180
1732601;14059
1732610;13746
1732618;13646
1732626;13529
1732634;13538
1732643;13414
1732651;13427
1732659;13341
1732667;13374
1732675;13238
1732684;13216
1732692;13028
1732700;12983
1732708;12796
1732716;12760
1732724;12498
1732733;12394
1732741;12059
1732749;11966
1732757;11716
1732765;11729
1732774;11683
1732782;11879
1732790;11936
1732798;12291
1732806;12589
1732815;13154
1732823;13500
1732834;14163
1732842;14388
1732850;14569
1732859;14602
1732867;14707
1732875;14665
1732883;14729
1732891;14670
1732900;14734
1732908;14634
1732916;14658
1732925;14522
1732933;14555
1732942;14478
1732950;14541
1732958;14404
1732966;14414
1732974;14282
1732983;14326
1732991;14222
1732999;14302
1733007;14176
1733015;14266
1733023;14159
1733032;14260
1733040;14111
1733048;14173
1733056;14026
1733064;14078
1733073;13919
1733081;13998
1733089;13848
1733097;13924
1733105;13816
1733117;13875
1733125;13711
1733133;13591
1733141;13421
1733149;13488
1733158;13424
1733166;13502
1733174;13463
1733182;13596
1733190;13591
1733199;13732
1733207;13652
1733215;13740
1733223;13701
1733231;13785
1733241;13678
1733249;13748
1733257;13598
1733265;13608
1733273;13884
1733282;13897
1733290;11419
1733298;7372
1733306;5034
1733314;10056
1733322;15492
1733331;15529
1733339;14727
1733347;14409
1733355;14181
1733363;13999
1733372;13738
1733380;13749
1733388;13627
1733399;13686
1733407;13544
1733416;13592
1733424;13440
1733432;13459
1733440;13288
1733448;13304
1733457;13098
1733465;13048
1733473;12754
1733481;12680
1733489;12343
1733498;12195
1733506;11871
1733514;11794
1733522;11589
1733530;11680
1733539;11669
1733547;11907
1733555;12084
1733563;12566
1733572;12921
1733581;13492
1733589;13803
1733597;14204
1733605;14331
1733613;14529
1733622;14482
1733630;14544
1733638;14479
1733646;14546
1733654;14415
1733662;14458
1733671;14323
1733711;16179
1733719;15861
1733727;15424
1733735;15073
1733743;14807
1733752;14624
1733760;14471
1733768;14338
1733776;14188
1733784;14119
1733793;13984
1733801;13909
1733809;13819
1733817;13781
1733825;13640
1733833;13671
1733842;13571
1733850;13583
1733859;13416
1733867;13357
1733875;13154
1733884;13214
1733892;13128
1733900;13223
1733908;13163
1733916;13305
1733925;13287
1733933;13435
1733941;13423
1733949;13519
1733957;13427
1733966;13531
1733974;13416
1733982;13509
1733993;13464
1734001;13487
1734010;13335
1734018;13935
1734026;13088
1734034;9970
1734042;6424
1734051;5938
1734059;13075
1734067;15831
1734075;15167
1734083;14498
1734092;13991
1734100;13909
1734108;13618
1734116;13586
1734124;13435
1734132;13480
1734141;13327
1734149;13336
1734157;13216
1734165;13257
1734173;13062
1734182;13075
1734190;12920
1734199;12946
1734207;12745
1734215;12680
1734224;12416
1734232;12280
1734240;11941
1734248;11815
1734256;11548
1734265;11589
1734273;11529
1734284;11823
1734292;11999
1734300;12316
1734309;12705
1734317;13287
1734325;13637
1734333;14038
1734341;14231
1734350;14460
1734358;14479
1734366;14601
1734374;14548
1734382;14603
1734391;14519
1734399;14560
1734407;14386
1734415;14417
1734423;14298
1734431;14341
1734440;14231
1734448;14284
1734456;14154
1734464;14201
1734472;14058
1734481;14070
1734489;13974
1734497;14056
1734506;13927
1734514;14028
1734523;13936
1734531;13979
1734539;13843
1734547;13933
1734555;13875
1734567;14036
1734575;14006
1734583;13941
1734591;13691
1734599;13605
1734608;13472
1734616;13591
1734624;13489
1734632;13557
1734640;13488
1734649;13641
1734657;13655
1734665;13783
1734673;13695
1734681;13776
1734690;13712
1734698;13818
1734706;13649
1734714;13705
1734722;13532
1734730;13536
1734739;14099
1734747;13291
1734755;9803
1734763;6287
1734771;5856
1734780;13413
1734788;15869
1734796;15377
1734804;14564
1734812;14290
1734821;14052
1734830;13911
1734838;13685
1734848;13701
1734856;13576
1734865;13604
1734873;13466
1734882;13464
1734890;13257
1734898;13290
1734907;13095
1734915;13100
1734923;12924
1734931;12881
1734939;12607
1734948;12452
1734956;12098
1734964;11903
1734972;11539
1734980;11508
1734989;11333
1734997;11493
1735005;11525
1735013;11804
1735021;12036
1735030;12625
1735038;13016
1735046;13543
1735054;13832
1735062;14213
1735070;14306
1735079;14455
1735087;14411
1735095;14524
1735103;14406
1735111;14444
1735120;14341
1735131;14440
1735139;14373
1735147;14358
1735155;14164
1735164;14208
1735172;14054
1735180;14086
1735188;13957
1735197;14026
1735206;13904
1735214;13976
1735222;13838
1735230;13913
1735238;13834
1735247;13910
1735255;13824
1735263;13893
1735271;13818
1735279;13898
1735288;13791
1735296;13894
1735304;13788
1735312;13895
1735320;13780
1735329;13736
1735337;13497
1735345;13524
1735353;13451
1735361;13545
1735369;13476
1735378;13568
1735386;13551
1735394;13678
1735402;13673
1735414;13781
1735422;13706
1735430;13784
1735438;13675
1735446;13741
1735454;13611
1735463;13650
1735471;13582
1735479;14196
1735487;12561
1735495;8717
1735504;5151
1735512;6918
1735521;14431
1735529;15613
1735537;14871
1735546;14405
1735554;14197
1735562;14018
1735570;13791
1735578;13772
1735587;13600
1735595;13603
1735603;13513
1735611;13514
1735619;13434
1735628;13389
1735636;13273
1735644;13250
1735652;13152
1735660;13051
1735668;12919
1735677;12785
1735685;12578
1735693;12314
1735713;12207
1735721;12008
1735729;11967
1735737;11890
1735745;12046
1735753;12134
1735762;12537
1735770;12879
1735778;13423
1735786;13738
1735794;14096
1735803;14247
1735811;14398
1735819;14411
1735827;14502
1735836;14456
1735845;14460
1735853;14373
1735861;14345
1735869;14254
1735877;14230
1735886;14186
1735894;14129
1735902;14054
1735910;13978
1735918;13914
1735927;13888
1735935;13865
1735943;13846
1735951;13838
1735959;13810
1735967;13840
1735976;13797
1735984;13823
1735995;13893
1736003;13862
1736012;13911
1736020;13858
1736028;13926
1736036;13875
1736044;13908
1736052;13789
1736061;13697
1736069;13480
1736077;13484
1736085;13505
1736093;13585
1736102;13570
1736110;13594
1736118;13650
1736126;13736
1736134;13746
1736143;13775
1736151;13746
1736160;13702
1736168;13692
1736176;13669
1736185;13666
1736193;13630
1736201;13581
1736209;13873
1736217;13930
1736226;11619
1736234;7504
1736242;4965
1736250;9555
1736258;15559
1736266;15663
1736278;14782
1736286;14504
1736294;14350
1736302;14085
1736311;13987
1736319;13869
1736327;13838
1736335;13754
1736343;13709
1736351;13645
1736360;13595
1736368;13530
1736376;13446
1736384;13338
1736392;13197
1736401;13081
1736409;12881
1736417;12707
1736425;12421
1736433;12197
1736442;11917
1736450;11796
1736458;11682
1736466;11726
1736474;11740
1736484;11904
1736492;12095
1736500;12577
1736508;13034
1736516;13566
1736525;13910
1736533;14298
1736541;14445
1736549;14639
1736560;14698
1736569;14731
1736577;14740
1736585;14690
1736593;14603
1736601;14531
1736610;14460
1736618;14385
1736626;14330
1736634;14291
1736642;14198
1736650;14207
1736659;14161
1736667;14139
1736675;14066
1736683;14056
1736691;14002
1736700;14040
1736708;13997
1736716;14037
1736724;13953
1736732;13998
1736741;13941
1736749;14002
1736757;13934
1736765;13956
1736773;13800
1736782;13737
1736790;13481
1736799;13560
1736807;13529
1736815;13620
1736824;13520
1736832;13658
1736842;13784
1736850;13982
1736859;13933
1736868;13925
1736876;13889
1736884;13890
1736892;13819
1736900;13862
1736909;13763
1736917;13768
1736925;13805
1736933;14362
1736941;12721
1736950;8934
1736958;5837
1736966;8005
1736974;15319
1736982;16056
1736990;15261
1736999;14700
1737007;14381
1737015;14284
1737023;13991
1737031;13964
1737040;13740
1737048;13726
1737056;13558
1737064;13546
1737072;13373
1737081;13392
1737089;13245
1737097;13258
1737105;13026
1737113;12983
1737122;12746
1737133;12649
1737141;12484
1737149;12253
1737157;11900
1737166;11743
1737174;11540
1737182;11602
1737191;11577
1737199;11795
1737208;11945
1737216;12388
1737224;12803
1737232;13334
1737240;13637
1737249;14001
1737257;14109
1737265;14321
1737273;14281
1737281;14393
1737289;14323
1737298;14434
1737306;14335
1737314;14416
1737322;14301
1737330;14369
1737339;14250
1737347;14325
1737355;14211
1737363;14270
1737371;14150
1737380;14222
1737388;14134
1737396;14220
1737404;14156
1737415;14322
1737424;14318
1737432;14332
1737440;14213
1737448;14198
1737456;14001
1737465;13966
1737473;13796
1737481;13861
1737489;13789
1737498;13936
1737507;13894
1737515;14040
1737523;13942
1737531;14034
1737539;13927
1737548;13982
1737556;13874
1737564;13927
1737572;13770
1737580;13842
1737588;13672
1737597;13672
1737605;13972
1737613;13974
1737621;11411
1737629;7570
1737638;5301
1737646;10746
1737654;16090
1737662;15879
1737670;15011
1737679;14515
1737687;14209
1737698;13980
1737706;13745
1737714;13650
1737723;13428
1737731;13398
1737739;13213
1737747;13248
1737755;13073
1737764;13144
1737772;12959
1737780;12971
1737788;12742
1737796;12697
1737805;12439
1737813;12368
1737822;11996
1737830;11806
1737838;11483
1737847;11426
1737855;11261
1737863;11390
1737871;11383
1737879;11667
1737887;11886
1737896;12442
1737904;12913
1737912;13456
1737920;13727
1737928;14093
1737937;14187
1737945;14357
1737953;14318
1737961;14380
1737969;14297
1737981;14436
1737989;14344
1737997;14346
1738005;14167
1738013;14220
1738022;14034
1738030;14076
1738038;13922
1738046;13983
1738054;13833
1738063;13894
1738071;13771
1738079;13868
1738087;13730
1738095;13855
1738104;13743
1738112;13841
1738120;13727
1738128;13819
1738136;13766
1738145;13857
1738154;13734
1738162;13801
1738170;13636
1738178;13630
1738186;13408
1738195;13445
1738203;13404
1738211;13484
1738219;13431
1738227;13542
1738236;13524
1738244;13641
1738252;13667
1738263;13801
1738271;13742
1738280;13799
1738288;13655
1738296;13704
1738304;13522
1738312;13567
1738321;13563
1738329;14161
1738337;12417
1738345;8466
1738353;4778
1738362;6614
1738370;14225
1738378;15472
1738386;14806
1738394;14358
1738403;14133
1738411;13988
1738419;13763
1738427;13749
1738435;13637
1738444;13665
1738452;13591
1738460;13607
1738468;13509
1738476;13466
1738486;13353
1738494;13309
1738502;13186
1738510;13097
1738518;12931
1738526;12809
1738535;12588
1738543;12379
1738554;12058
1738562;11991
1738570;11754
1738579;11829
1738587;11711
1738595;11892
1738603;12073
1738611;12563
1738620;12996
1738628;13558
1738636;13888
1738644;14276
1738652;14420
1738661;14582
1738669;14562
1738677;14600
1738685;14484
1738693;14485
1738702;14409
1738710;14398
1738718;14341
1738726;14307
1738734;14272
1738743;14253
1738751;14182
1738759;14206
1738767;14157
1738775;14111
1738783;14138
1738793;14096
1738801;14079
1738809;14059
1738817;14065
1738825;13996
1738836;14017
1738845;14127
1738853;14015
1738861;14012
1738870;13798
1738878;13657
1738886;13550
1738894;13617
1738902;13584
1738910;13599
1738919;13573
1738927;13659
1738935;13696
1738943;13781
1738951;13744
1738960;13725
1738968;13682
1738976;13607
1738984;13576
1738992;13559
1739001;13507
1739009;13452
1739017;14179
1739025;13512
1739033;10183
1739042;5693
1739050;4645
1739058;11964
1739066;15618
1739074;15185
1739082;14618
1739091;14362
1739099;14212
1739107;13925
1739118;13905
1739127;13929
1739135;13781
1739143;13763
1739151;13648
1739159;13581
1739169;13469
1739177;13416
1739185;13322
1739193;13206
1739201;13039
1739209;12897
1739218;12731
1739226;12546
1739234;12323
1739242;12059
1739250;11845
1739259;11631
1739267;11634
1739275;11641
1739283;11737
1739291;11870
1739300;12257
1739308;12727
1739316;13285
1739324;13607
1739332;13973
1739341;14144
1739349;14363
1739357;14332
1739365;14452
1739373;14385
1739382;14473
1739390;14337
1739401;14447
1739409;14520
1739417;14502
1739426;14457
1739434;14376
1739442;14337
1739450;14326
1739458;14272
1739468;14232
1739476;14206
1739484;14219
1739492;14213
1739500;14273
1739508;14207
1739517;14231
1739525;14172
1739533;14063
1739541;13844
1739549;13794
1739558;13693
1739566;13714
1739574;13656
1739582;13813
1739590;13827
1739599;14001
1739607;13907
1739615;14010
1739623;13919
1739631;14022
1739640;13940
1739648;14036
1739656;13902
1739664;13967
1739672;13807
1739684;14528
1739692;12897
1739700;8921
1739708;5641
1739716;8281
1739725;15634
1739733;16094
1739741;15314
1739749;14834
1739757;14612
1739766;14420
1739774;14159
1739782;14068
1739791;13911
1739799;13918
1739807;13792
1739816;13837
1739824;13693
1739832;13709
1739840;13547
1739848;13528
1739857;13346
1739865;13300
1739873;13073
1739881;13047
1739889;12752
1739898;12596
1739906;12196
1739914;12078
1739922;11872
1739930;11946
1739939;11873
1739947;12109
1739955;12194
1739963;12685
1739974;13269
1739983;13806
1739991;14036
1739999;14316
1740007;14418
1740015;14579
1740024;14525
1740032;14593
1740040;14519
1740048;14590
1740056;14499
1740065;14545
1740073;14408
1740081;14394
1740089;14217
1740097;14235
1740106;14073
1740115;14107
1740123;13997
1740131;14101
1740139;13981
1740147;14104
1740156;13979
1740164;14035
1740172;13903
1740180;13834
1740188;13637
1740197;13728
1740205;13642
1740213;13749
1740221;13666
1740229;13847
1740238;13781
1740246;13960
1740257;13992
1740265;14104
1740273;13963
1740282;14029
1740290;13924
1740298;13986
1740306;13816
1740314;13854
1740323;13645
1740331;14347
1740339;13538
1740347;10532
1740355;6714
1740364;5899
1740372;13037
1740380;16268
1740388;15516
1740396;14902
1740404;14354
1740413;14295
1740421;13941
1740429;13900
1740438;13699
1740446;13741
1740455;13583
1740463;13605
1740471;13440
1740479;13452
1740487;13272
1740496;13288
1740504;13082
1740512;13073
1740520;12851
1740528;12773
1740540;12402
1740548;12268
1740556;11892
1740564;11755
1740572;11509
1740581;11614
1740589;11542
1740597;11743
1740605;11849
1740613;12306
1740622;12668
1740630;13243
1740638;13557
1740646;13964
1740654;14051
1740663;14276
1740671;14192
1740679;14347
1740687;14243
1740695;14319
1740703;14192
1740712;14285
1740720;14138
1740728;14232
1740736;14090
1740744;14107
1740753;13981
1740762;14047
1740770;13906
1740778;13964
1740786;13870
1740795;13931
1740803;13813
1740811;13859
1740822;13822
1740830;13948
1740839;13811
1740847;13909
1740855;13791
1740863;13939
1740871;13787
1740880;13818
1740888;13498
1740896;13548
1740904;13392
1740912;13509
1740921;13403
1740929;13509
1740937;13445
1740945;13636
1740953;13612
1740962;13689
