Tempo (ms);Valor
1140638;14611
1140647;14503
1140655;14369
1140663;14196
1140671;14141
1140679;14073
1140688;13975
1140696;13804
1140704;13894
1140712;14019
1140720;11973
1140729;7743
1140737;4766
1140745;7507
1140753;15053
1140761;15848
1140770;15162
1140778;14464
1140786;14244
1140794;13878
1140802;13673
1140810;13491
1140819;13445
1140827;13339
1140835;13323
1140843;13256
1140851;13267
1140860;13190
1140868;13159
1140876;13026
1140885;12921
1140893;12738
1140902;12592
1140910;12352
1140920;12091
1140928;11869
1140937;11718
1140946;11601
1140954;11674
1140962;11713
1140970;11905
1140978;12172
1140987;12613
1140995;13048
1141003;13533
1141011;13842
1141019;14151
1141028;14302
1141036;14444
1141044;14467
1141052;14503
1141060;14435
1141069;14373
1141077;14270
1141085;14247
1141093;14183
1141101;14207
1141110;14139
1141118;14151
1141126;14103
1141134;14113
1141142;14062
1141150;14079
1141159;14093
1141167;14104
1141175;14044
1141183;14065
1141191;13999
1141203;13927
1141211;13714
1141219;13687
1141227;13651
1141235;13679
1141245;13609
1141253;13665
1141261;13674
1141269;13817
1141277;13917
1141286;13992
1141294;13932
1141302;13954
1141310;13926
1141318;13910
1141327;13833
1141335;13759
1141343;13832
1141351;13968
1141359;11921
1141368;7989
1141376;5256
1141384;8561
1141392;15772
1141400;16166
1141409;15268
1141417;14636
1141425;14405
1141433;14102
1141441;13880
1141449;13793
1141458;13739
1141466;13668
1141474;13582
1141485;13574
1141494;13477
1141502;13437
1141510;13291
1141518;13192
1141526;13021
1141534;12881
1141543;12637
1141551;12418
1141559;12167
1141568;11970
1141576;11806
1141585;11791
1141593;11827
1141601;11975
1141609;12108
1141617;12413
1141626;12802
1141634;13349
1141642;13771
1141650;14206
1141658;14479
1141667;14720
1141675;14882
1141683;14967
1141691;14965
1141699;14937
1141708;14856
1141716;14813
1141724;14732
1141732;14678
1141740;14602
1141748;14522
1141757;14507
1141768;14562
1141776;14559
1141784;14619
1141793;14581
1141801;14532
1141809;14432
1141817;14323
1141825;14091
1141833;13996
1141842;13977
1141850;14006
1141858;13987
1141866;13995
1141875;14011
1141884;14117
1141892;14180
1141900;14187
1141908;14138
1141916;14118
1141925;14133
1141933;14173
1141941;14127
1141949;14090
1141957;14008
1141966;14325
1141974;13756
1141982;11195
1141990;7835
1141998;6723
1142007;12955
1142015;17392
1142023;16690
1142031;15736
1142039;15003
1142047;14711
1142059;14345
1142067;14220
1142075;14021
1142083;13884
1142092;13749
1142100;13637
1142108;13517
1142116;13426
1142124;13286
1142132;13144
1142141;13016
1142149;12898
1142157;12684
1142165;12457
1142173;12206
1142182;11944
1142190;11710
1142198;11598
1142207;11584
1142215;11662
1142224;11797
1142232;11996
1142240;12332
1142248;12802
1142256;13264
1142265;13643
1142273;13981
1142281;14164
1142289;14320
1142297;14367
1142306;14382
1142314;14351
1142322;14344
1142330;14228
1142341;14175
1142350;14153
1142358;14053
1142366;13934
1142374;13802
1142382;13755
1142391;13717
1142399;13696
1142407;13648
1142415;13634
1142423;13589
1142431;13564
1142440;13434
1142448;13295
1142456;13229
1142464;13223
1142472;13205
1142481;13212
1142489;13333
1142497;13425
1142505;13544
1142513;13606
1142522;13652
1142531;13653
1142539;13682
1142547;13654
1142555;13613
1142564;13562
1142572;13549
1142580;13462
1142588;13907
1142596;12775
1142605;9473
1142613;6014
1142624;8523
1142632;15838
1142640;16172
1142649;15310
1142657;14565
1142665;14285
1142673;13990
1142681;13751
1142690;13640
1142698;13528
1142706;13418
1142714;13216
1142722;13058
1142730;12974
1142739;12932
1142747;12686
1142755;12663
1142763;12702
1142771;12650
1142780;12399
1142788;12163
1142796;11840
1142804;11681
1142812;11526
1142821;11496
1142829;11485
1142837;11501
1142845;11696
1142853;12255
1142863;12661
1142871;13112
1142879;13478
1142887;13876
1142895;14106
1142907;14404
1142915;14489
1142923;14506
1142931;14486
1142939;14530
1142948;14472
1142956;14459
1142964;14376
1142972;14365
1142980;14315
1142989;14333
1142997;14285
1143005;14306
1143013;14286
1143021;14304
1143030;14229
1143038;14162
1143046;14177
1143054;14298
1143062;14244
1143070;14258
1143079;14178
1143087;14076
1143095;13827
1143103;13713
1143111;13599
1143120;13671
1143128;13768
1143136;13849
1143144;13793
1143152;13785
1143161;13798
1143170;13870
1143178;13764
1143188;13730
1143196;13749
1143205;13749
1143213;13736
1143222;13640
1143230;13678
1143238;13803
1143247;11654
1143255;7584
1143263;4923
1143271;8401
1143279;15417
1143288;15933
1143296;15141
1143304;14552
1143312;14356
1143320;14184
1143329;13952
1143337;13775
1143345;13589
1143353;13552
1143361;13381
1143369;13316
1143378;13222
1143386;13197
1143394;13103
1143402;13053
1143410;12987
1143419;12918
1143427;12683
1143435;12427
1143443;12115
1143451;11934
1143460;11711
1143468;11695
1143479;11782
1143487;11959
1143495;12104
1143504;12436
1143512;12834
1143520;13352
1143528;13764
1143537;14126
1143546;14375
1143554;14554
1143562;14584
1143570;14612
1143578;14590
1143587;14585
1143595;14469
1143603;14333
1143611;14398
1143619;14438
1143628;14343
1143636;14307
1143644;14186
1143652;14202
1143660;14200
1143668;14203
1143677;14155
1143685;14237
1143693;14211
1143701;14214
1143709;14116
1143718;14155
1143726;14053
1143734;13940
1143742;13707
1143750;13696
1143762;13637
1143770;13632
1143778;13697
1143786;13891
1143794;13965
1143803;14049
1143811;14041
1143819;14046
1143827;13962
1143836;13902
1143845;13768
1143853;13288
1143861;13008
1143869;13198
1143877;12939
1143886;14251
1143894;12495
1143902;8667
1143910;6000
1143918;9235
1143927;15878
1143935;16259
1143943;15191
1143951;14383
1143959;14581
1143967;14319
1143976;14033
1143984;14131
1143992;13875
1144000;13792
1144008;13705
1144017;13584
1144025;13388
1144033;13334
1144044;13262
1144052;13214
1144061;13092
1144069;12994
1144077;12770
1144085;12571
1144093;12250
1144102;12175
1144110;12086
1144118;12074
1144126;12017
1144134;12111
1144143;12236
1144151;12527
1144159;12850
1144168;13319
1144176;13805
1144185;14244
1144193;14595
1144201;14817
1144209;14743
1144217;14901
1144226;15011
1144234;15011
1144242;14860
1144250;14793
1144258;14727
1144266;14704
1144275;14649
1144283;14635
1144291;14529
1144299;14513
1144307;14642
1144316;14658
1144327;14519
1144335;14644
1144343;14538
1144351;14483
1144360;14394
1144368;14378
1144376;14237
1144384;14198
1144392;13918
1144401;13858
1144409;13824
1144417;13814
1144425;13756
1144433;13748
1144442;13743
1144450;14025
1144458;14135
1144466;14071
1144474;13993
1144483;14024
1144491;13955
1144500;13916
1144508;13835
1144516;13788
1144525;13646
1144533;14050
1144541;13497
1144549;10495
1144557;6504
1144566;5334
1144574;11582
1144582;16041
1144590;15695
1144598;14775
1144610;14222
1144618;13938
1144626;13609
1144634;13526
1144642;13401
1144650;13380
1144659;13247
1144667;13223
1144675;13171
1144683;13148
1144691;13027
1144700;12934
1144708;12760
1144716;12588
1144724;12352
1144732;12145
1144741;11920
1144749;11696
1144757;11475
1144765;11421
1144773;11407
1144782;11516
1144790;11663
1144798;11873
1144806;12238
1144814;12695
1144823;13122
1144832;13486
1144840;13750
1144848;13932
1144856;14028
1144865;14060
1144873;14075
1144881;14049
1144889;14039
1144900;14094
1144909;14045
1144917;14007
1144925;13913
1144933;13855
1144941;13737
1144950;13752
1144958;13757
1144966;13791
1144974;13771
1144982;13776
1144990;13799
1144999;13792
1145007;13750
1145015;13790
1145023;13662
1145031;13538
1145040;13434
1145048;13470
1145056;13485
1145064;13537
1145072;13616
1145081;13702
1145089;13872
1145097;13968
1145105;14035
1145113;14032
1145122;14092
1145130;14084
1145138;14114
1145147;14019
1145155;13964
1145164;13904
1145172;14214
1145182;11427
1145190;7596
1145198;5805
1145208;11509
1145216;16520
1145224;16032
1145232;15098
1145240;14576
1145249;14306
1145257;13994
1145265;13808
1145273;13700
1145281;13608
1145289;13540
1145298;13427
1145306;13393
1145314;13309
1145322;13253
1145330;13160
1145339;13043
1145347;12832
1145355;12708
1145363;12480
1145371;12234
1145380;11986
1145388;11782
1145396;11622
1145404;11614
1145412;11650
1145421;11811
1145429;11987
1145437;12300
1145445;12678
1145453;13155
1145465;13745
1145473;14088
1145481;14311
1145489;14418
1145497;14494
1145506;14552
1145515;14566
1145523;14559
1145531;14508
1145539;14445
1145548;14348
1145556;14285
1145564;14210
1145572;14166
1145580;14108
1145588;14094
1145597;14065
1145605;14057
1145613;14056
1145621;14112
1145629;14088
1145638;14033
1145646;13902
1145654;13751
1145662;13552
1145670;13499
1145679;13444
1145687;13459
1145695;13503
1145703;13623
1145711;13658
1145720;13813
1145728;13840
1145736;13903
1145747;13902
1145755;13971
1145764;13932
1145772;13909
1145780;13822
1145788;13733
1145796;13914
1145805;13425
1145813;10999
1145822;7702
1145830;6465
1145838;12525
1145847;17088
1145855;16338
1145863;15298
1145871;14536
1145879;14220
1145887;13941
1145896;13663
1145904;13611
1145912;13509
1145920;13494
1145928;13449
1145937;13419
1145945;13346
1145953;13318
1145961;13169
1145969;13073
1145978;12912
1145986;12782
1145994;12513
1146002;12348
1146010;12090
1146019;11920
1146030;11805
1146038;11882
1146046;11948
1146054;12134
1146063;12373
1146071;12707
1146079;13117
1146087;13643
1146095;14021
1146104;14408
1146112;14618
1146120;14814
1146128;14870
1146137;14972
1146146;14917
1146154;14888
1146162;14789
1146170;14836
1146178;14705
1146186;14740
1146195;14661
1146203;14668
1146211;14587
1146219;14555
1146227;14465
1146236;14508
1146244;14438
1146252;14503
1146260;14415
1146268;14299
1146277;14036
1146285;13997
1146293;13852
1146301;13929
1146309;13867
1146321;14080
1146329;14132
1146337;14365
1146345;14322
1146353;14426
1146362;14208
1146370;14338
1146378;14198
1146386;14361
1146394;14087
1146403;14191
1146411;13818
1146419;14516
1146427;13260
1146436;10032
1146445;6345
1146453;6367
1146461;13635
1146469;16598
1146477;15665
1146486;15009
1146494;14237
1146502;14145
1146510;13671
1146518;13653
1146526;13371
1146535;13435
1146543;13168
1146551;13281
1146559;13116
1146567;13135
1146576;12924
1146584;12889
1146592;12617
1146603;12660
1146611;12297
1146620;12312
1146628;11837
1146636;11795
1146644;11401
1146652;11540
1146661;11391
1146669;11665
1146677;11587
1146685;11953
1146693;12149
1146702;12733
1146710;13068
1146718;13533
1146726;13703
1146734;13922
1146743;13875
1146751;13950
1146759;13855
1146768;13953
1146776;13734
1146785;13775
1146793;13645
1146801;13686
1146809;13525
1146817;13628
1146825;13501
1146834;13556
1146842;13508
1146850;13602
1146858;13471
1146866;13581
1146875;13545
1146886;13804
1146894;13709
1146902;13844
1146910;13661
1146919;13633
1146927;13356
1146935;13385
1146943;13300
1146951;13444
1146960;13360
1146968;13463
1146976;13391
1146984;13525
1146992;13566
1147001;13638
1147009;13564
1147017;13579
1147025;13473
1147033;13496
1147042;13417
1147050;13454
1147058;13503
1147066;13927
1147074;11688
1147082;7296
1147092;4338
1147100;7197
1147108;14911
1147116;16008
1147124;15350
1147133;14760
1147141;14416
1147149;14103
1147157;13895
1147169;13931
1147177;13850
1147185;13852
1147193;13742
1147201;13768
1147209;13659
1147218;13593
1147226;13447
1147234;13383
1147242;13199
1147250;13059
1147259;12796
1147267;12599
1147275;12290
1147283;12112
1147291;11919
1147300;11928
1147308;11907
1147316;12072
1147324;12216
1147332;12508
1147341;12853
1147349;13330
1147357;13713
1147365;14143
1147373;14371
1147382;14563
1147390;14611
1147398;14691
1147406;14693
1147415;14720
1147423;14630
1147432;14558
1147440;14431
1147450;14423
1147458;14318
1147468;14291
1147476;14213
1147484;14219
1147492;14156
1147500;14199
1147508;14164
1147517;14173
1147525;14113
1147533;14139
1147541;14114
1147549;14085
1147558;13883
1147566;13740
1147574;13714
1147582;13791
1147590;13805
1147599;13845
1147607;13809
1147615;13893
1147623;13972
1147631;14123
1147640;14079
1147648;14080
1147656;13992
1147664;13946
1147672;13870
1147681;13870
1147689;13801
1147697;13754
1147705;14051
1147713;12490
1147721;8852
1147730;5724
1147741;10777
1147749;16360
1147757;16072
1147766;15196
1147774;14676
1147782;14493
1147791;14204
1147799;14120
1147807;14044
1147816;14030
1147824;13929
1147832;13834
1147840;13689
1147848;13610
1147857;13465
1147865;13389
1147873;13216
1147881;13080
1147889;12879
1147898;12652
1147906;12357
1147914;12102
1147922;11854
1147930;11706
1147939;11694
1147947;11757
1147955;11829
1147963;11996
1147971;12300
1147980;12731
1147988;13199
1147996;13607
1148004;13971
1148012;14282
1148024;14608
1148032;14793
1148040;14716
1148048;14743
1148056;14728
1148065;14710
1148073;14671
1148081;14687
1148090;14628
1148098;14618
1148106;14599
1148115;14610
1148123;14568
1148131;14575
1148139;14570
1148147;14587
1148156;14551
1148164;14526
1148172;14422
1148180;14338
1148188;14129
1148197;13965
1148205;13864
1148213;13900
1148221;13919
1148229;13961
1148238;14078
1148246;14179
1148254;14288
1148262;14309
1148270;14307
1148279;14290
1148287;14308
1148295;14270
1148306;14259
1148314;14236
1148323;14109
1148331;14433
1148339;13113
1148347;9899
1148355;7238
1148364;8500
1148372;16036
1148380;17024
1148388;16030
1148396;15140
1148406;14654
1148414;14382
1148422;14059
1148430;13926
1148438;13806
1148446;13722
1148455;13660
1148463;13618
1148471;13744
1148479;13860
1148487;13888
1148496;13913
1148504;13919
1148512;13899
1148520;13813
1148528;13681
1148537;13555
1148545;13358
1148553;13230
1148561;13171
1148569;13200
1148578;13251
1148589;13506
1148597;13741
1148605;14027
1148613;14381
1148622;14771
1148630;15114
1148638;15349
1148646;15519
1148654;15609
1148663;15681
1148671;15634
1148679;15553
1148687;15447
1148695;15285
1148703;15189
1148712;15140
1148721;15107
1148729;15059
1148737;14957
1148745;14856
1148754;14819
1148762;14801
1148770;14779
1148778;14724
1148786;14645
1148795;14461
1148803;14338
1148811;14343
1148819;14327
1148827;14303
1148836;14392
1148844;14439
1148852;14492
1148860;14536
1148871;14529
1148880;14540
1148888;14413
1148896;14368
1148904;14296
1148912;14199
1148921;14068
1148929;13871
1148937;14060
1148945;13122
1148953;10315
1148962;7402
1148970;6977
1148978;13658
1148986;16499
1148994;15668
1149002;14745
1149011;14090
1149019;13853
1149027;13536
1149035;13335
1149044;13249
1149053;13155
1149061;13062
1149069;13002
1149077;12877
1149085;12804
1149094;12691
1149102;12590
1149110;12434
1149118;12303
1149126;12123
1149135;11910
1149143;11623
1149151;11406
1149162;11234
1149170;11221
1149179;11200
1149187;11242
1149195;11351
1149203;11612
1149211;11976
1149220;12365
1149228;12726
1149236;13032
1149244;13264
1149252;13506
1149261;13611
1149269;13681
1149277;13675
1149285;13664
1149293;13593
1149302;13548
1149310;13465
1149318;13420
1149326;13342
1149334;13293
1149342;13238
1149351;13204
1149359;13200
1149368;13177
1149376;13170
1149384;13190
1149393;13171
1149401;13168
1149409;13120
1149417;13002
1149425;12778
1149434;12685
1149445;12696
1149453;12753
1149461;12769
1149469;12810
1149478;12874
1149486;12980
1149494;13021
1149502;13024
1149510;13012
1149519;12986
1149527;12947
1149535;12965
1149543;12879
1149551;12832
1149560;12918
1149568;12867
1149576;10648
1149584;6924
1149592;4831
1149601;8937
1149609;15189
1149617;15317
1149625;14493
1149633;13868
1149641;13565
1149650;13287
1149658;13113
1149666;13053
1149674;12999
1149682;12953
1149691;12871
1149700;12833
1149708;12713
1149716;12666
1149726;12594
1149735;12563
1149743;12403
1149751;12236
1149760;11988
1149768;11740
1149777;11459
1149785;11235
1149793;11022
1149801;10988
1149809;10965
1149818;11071
1149826;11232
1149834;11551
1149842;11902
1149850;12361
1149859;12703
1149867;13008
1149875;13173
1149883;13334
1149891;13369
1149900;13406
1149908;13407
1149916;13421
1149924;13330
1149932;13305
1149940;13257
1149949;13272
1149957;13244
1149965;13220
1149973;13200
1149981;13250
1149990;13238
1149998;13250
1150009;13295
1150017;13411
1150025;13434
1150034;13501
1150042;13523
1150050;13511
1150058;13401
1150067;13255
1150076;13277
1150084;13367
1150092;13472
1150100;13510
1150108;13545
1150117;13642
1150125;13731
1150133;13915
1150141;13899
1150149;13930
1150158;13930
1150166;13972
1150174;13947
1150182;13949
1150190;13827
1150199;14043
1150207;13822
1150215;11343
1150223;7461
1150231;5710
1150239;10466
1150248;16165
1150256;16076
1150264;15239
1150272;14717
1150280;14501
1150289;14199
1150300;14080
1150308;14002
1150316;13908
1150324;13822
1150333;13794
1150341;13738
1150349;13743
1150357;13671
1150365;13623
1150375;13481
1150383;13365
1150391;13192
1150399;13051
1150407;12815
1150416;12635
1150424;12455
1150432;12353
1150440;12303
1150448;12381
1150457;12460
1150465;12667
1150473;12958
1150481;13372
1150489;13764
1150498;14164
1150506;14434
1150514;14680
1150522;14746
1150530;14776
1150538;14727
1150547;14707
1150555;14618
1150563;14537
1150571;14468
1150583;14473
1150591;14465
1150599;14441
1150607;14360
1150615;14367
1150623;14327
1150632;14287
1150640;14214
1150648;14238
1150656;14214
1150664;14235
1150673;14172
1150682;14206
1150690;14169
1150698;14121
1150706;13924
1150715;13745
1150723;13708
1150731;13740
1150739;13740
1150747;13744
1150756;13759
1150764;13858
1150772;13965
1150780;14078
1150788;14030
1150797;14021
1150805;13989
1150813;13988
1150821;13937
1150829;13876
1150838;13752
1150846;13900
1150854;13791
1150865;10227
1150873;6792
1150882;6442
1150890;13113
1150898;16477
1150906;15867
1150914;15017
1150922;14616
1150931;14410
1150939;14116
1150947;13996
1150955;13878
1150963;13819
1150972;13681
1150980;13607
1150988;13508
1150996;13474
1151005;13379
1151014;13264
1151022;13133
1151030;13003
1151038;12844
1151046;12684
1151055;12470
1151063;12236
1151071;12067
1151079;11990
1151087;11976
1151096;12058
1151104;12174
1151112;12373
1151120;12671
1151128;13037
1151137;13460
1151148;13986
1151156;14286
1151164;14447
1151172;14514
1151181;14541
1151189;14529
1151197;14537
1151205;14454
1151213;14376
1151222;14311
1151230;14286
1151238;14208
1151246;14196
1151254;14166
1151262;14140
1151271;14092
1151279;14066
1151287;14035
1151295;14055
1151303;14046
1151312;14046
1151321;14074
1151329;14085
1151337;14036
1151345;14028
1151354;13985
1151362;13925
1151370;13700
1151378;13565
1151386;13552
1151395;13607
1151403;13617
1151411;13621
1151419;13665
1151430;13854
1151439;13972
1151447;13946
1151455;13881
1151463;13881
1151471;13832
1151480;13809
1151488;13732
1151496;13677
1151504;13665
1151512;13891
1151521;12102
1151529;8572
1151537;6153
1151545;8743
1151553;15806
1151561;16269
1151570;15345
1151578;14582
1151586;14316
1151594;14010
1151602;13808
1151611;13728
1151619;13654
1151627;13588
1151636;13585
1151644;13587
1151653;13537
1151661;13434
1151669;13340
1151677;13199
1151685;13053
1151694;12875
1151702;12713
1151710;12523
1151721;12248
1151729;12108
1151738;11928
1151746;11872
1151754;11901
1151762;12006
1151770;12128
1151779;12385
1151787;12750
1151795;13144
1151803;13523
1151811;13861
1151820;14119
1151828;14260
1151836;14344
1151844;14379
1151852;14391
1151860;14360
1151869;14339
1151877;14308
1151885;14254
1151893;14175
1151901;14087
1151910;14017
1151918;13988
1151926;13959
1151934;13932
1151942;13884
1151952;13881
1151960;13913
1151968;13918
1151976;13942
1151984;13989
1151993;13973
1152004;14015
1152012;14044
1152020;13992
1152028;13926
1152037;13722
1152045;13547
1152053;13522
1152061;13525
1152069;13522
1152078;13495
1152086;13561
1152094;13622
1152102;13751
1152110;13777
1152119;13751
1152127;13761
1152135;13776
1152143;13757
1152151;13742
1152159;13675
1152168;13572
1152176;13887
1152184;13223
1152192;10335
1152200;7011
1152209;6389
1152217;12917
1152225;16378
1152233;15717
1152241;14767
1152250;14281
1152258;14047
1152266;13828
1152275;13683
1152285;13669
1152294;13650
1152302;13570
1152310;13487
1152319;13402
1152327;13301
1152336;13184
1152344;13036
1152352;12910
1152360;12737
1152368;12573
1152377;12307
1152385;12100
1152393;11849
1152401;11671
1152409;11590
1152418;11642
1152426;11741
1152434;11905
1152442;12101
1152450;12435
1152458;12854
1152467;13259
1152475;13604
1152483;13928
1152491;14138
1152499;14287
1152508;14384
1152516;14431
1152524;14418
1152532;14376
1152540;14297
1152549;14242
1152557;14165
1152568;14105
1152576;14098
1152584;14050
1152593;13962
1152601;13949
1152609;13931
1152617;13905
1152625;13874
1152635;13878
1152643;13839
1152651;13845
1152659;13830
1152667;13842
1152676;13812
1152684;13851
1152692;13887
1152700;13864
1152708;13758
1152717;13539
1152725;13473
1152733;13490
1152741;13527
1152749;13607
1152758;13669
1152766;13766
1152774;13814
1152782;13955
1152790;13956
1152798;13958
1152807;13923
1152815;13923
1152823;13859
1152831;13841
1152839;13713
1152851;14010
1152859;13439
1152867;10593
1152875;7112
1152883;6286
1152892;12339
1152900;16394
1152908;15842
1152916;14949
1152924;14444
1152933;14203
1152942;13878
1152950;13735
1152958;13623
1152966;13547
1152975;13436
1152983;13372
1152991;13281
1152999;13244
1153007;13131
1153016;13038
1153024;12917
1153032;12826
1153040;12664
1153048;12509
1153057;12291
1153065;12126
1153073;11939
1153081;11843
1153089;11797
1153097;11890
1153106;11969
1153114;12200
1153122;12470
1153133;13067
1153142;13493
1153150;13861
1153158;14064
1153166;14250
1153174;14367
1153182;14420
1153191;14393
1153199;14398
1153207;14349
1153215;14277
1153223;14194
1153232;14158
1153240;14071
1153248;14063
1153257;14004
1153265;13992
1153274;13963
1153282;13950
1153290;13927
1153298;13934
1153306;13888
1153315;13890
1153323;13865
1153331;13897
1153339;13844
1153347;13853
1153356;13810
1153364;13827
1153372;13748
1153380;13694
1153388;13481
1153396;13508
1153405;13529
1153413;13612
1153424;13720
1153432;13870
1153441;13929
1153449;14066
1153457;14103
1153465;14114
1153473;14051
1153481;14026
1153490;13967
1153498;13922
1153506;13825
1153514;13746
1153522;14131
1153531;13049
1153539;9723
1153547;6668
1153555;7003
1153563;14276
1153572;16412
1153580;15668
1153589;14747
1153597;14399
1153605;14107
1153614;13902
1153622;13732
1153630;13640
1153638;13520
1153646;13452
1153655;13374
1153663;13322
1153671;13217
1153679;13114
1153687;12972
1153695;12911
1153707;12756
1153715;12630
1153723;12405
1153731;12243
1153740;12044
1153748;11922
1153756;11834
1153764;11898
1153772;11959
1153780;12110
1153789;12316
1153797;12695
1153805;13096
1153813;13570
1153821;13911
1153830;14209
1153838;14362
1153846;14513
1153854;14553
1153862;14563
1153871;14518
1153879;14453
1153887;14398
1153896;14357
1153904;14280
1153913;14284
1153921;14206
1153929;14184
1153937;14138
1153945;14146
1153954;14108
1153962;14081
1153970;14078
1153978;14090
1153989;14124
1153998;14176
1154006;14113
1154014;14132
1154022;14125
1154030;14100
1154039;14023
1154047;13840
1154055;13686
1154063;13674
1154071;13681
1154079;13723
1154088;13715
1154096;13770
1154104;13839
1154112;14021
1154120;14028
1154129;14003
1154137;13976
1154145;13978
1154153;13949
1154161;13897
1154170;13822
1154178;13707
1154186;14110
1154195;12947
1154203;9537
1154212;6560
1154220;7252
1154228;14799
1154236;16519
1154244;15685
1154253;14747
1154261;14370
1154272;14015
1154280;13880
1154288;13730
1154297;13631
1154305;13495
1154313;13434
1154321;13357
1154329;13282
1154338;13152
1154346;13052
1154354;12925
1154362;12802
1154370;12625
1154378;12452
1154387;12215
1154395;11988
1154403;11782
1154411;11638
1154419;11542
1154428;11631
1154436;11774
1154444;11940
1154452;12169
1154460;12509
1154469;12909
1154477;13296
1154485;13647
1154493;13921
1154501;14114
1154510;14196
1154518;14223
1154526;14281
1154535;14283
1154543;14198
1154552;14146
1154562;14137
1154570;14116
1154578;14051
1154587;13986
1154596;13939
1154604;13911
1154612;13880
1154620;13816
1154628;13824
1154637;13822
1154645;13846
1154653;13863
1154661;13918
1154669;13929
1154678;13899
1154686;13774
1154694;13618
1154702;13498
1154710;13525
1154718;13526
1154727;13579
1154735;13663
1154743;13744
1154751;13862
1154759;13911
1154768;13923
1154776;13878
1154784;13882
1154792;13829
1154800;13795
1154809;13722
1154817;13665
1154825;13580
1154833;13915
1154844;11620
1154853;8186
1154861;6267
1154869;10450
1154877;16723
1154885;16357
1154894;15357
1154902;14556
1154911;14308
1154919;14032
1154927;13830
1154936;13738
1154944;13655
1154952;13532
1154960;13412
1154968;13322
1154977;13217
1154985;13122
1154993;12991
1155001;12909
1155009;12814
1155017;12715
1155026;12516
1155034;12310
1155042;12072
1155050;11862
1155058;11743
1155067;11748
1155075;11841
1155083;11993
1155091;12160
1155099;12433
1155108;12764
1155116;13150
1155127;13716
1155135;14088
1155143;14317
1155152;14440
1155160;14532
1155168;14549
1155176;14568
1155184;14521
1155193;14458
1155201;14387
1155209;14328
1155218;14294
1155226;14215
1155235;14121
1155243;14011
1155251;13971
1155259;13953
1155267;13987
1155276;14009
1155284;14040
1155292;14035
1155300;14041
1155308;14029
1155316;14035
1155325;13983
1155333;13991
1155341;13919
1155349;13838
1155357;13618
1155366;13541
1155374;13526
1155382;13542
1155390;13517
1155398;13545
1155410;13668
1155418;13836
1155426;13920
1155434;13897
1155442;13878
1155451;13860
1155459;13799
1155467;13775
1155475;13706
1155483;13637
1155492;13960
1155500;13391
1155508;10471
1155516;6983
1155524;6107
1155533;12400
1155542;16453
1155550;15891
1155558;14921
1155566;14437
1155575;14147
1155583;13858
1155591;13662
1155599;13584
1155607;13462
1155615;13441
1155624;13338
1155632;13272
1155640;13167
1155648;13087
1155656;12980
1155665;12882
1155673;12710
1155681;12541
1155692;12356
1155700;12214
1155709;11986
1155717;11793
1155725;11647
1155733;11717
1155741;11786
1155750;11938
1155758;12137
1155766;12476
1155774;12866
1155782;13327
1155791;13692
1155799;14021
1155807;14219
1155815;14406
1155823;14494
1155832;14571
1155840;14545
1155848;14578
1155856;14524
1155865;14533
1155874;14481
1155882;14454
1155890;14372
1155898;14326
1155906;14218
1155914;14217
1155923;14168
1155931;14160
1155939;14094
1155947;14092
1155955;14003
1155964;14011
1155975;14042
1155983;14080
1155991;14044
1155999;14008
1156008;13856
1156016;13708
1156024;13587
1156032;13547
1156040;13531
1156049;13604
1156057;13594
1156065;13670
1156073;13718
1156081;13851
1156090;13876
1156098;13883
1156106;13832
1156114;13842
1156122;13771
1156131;13740
1156139;13670
1156147;13602
1156155;13977
1156163;12788
1156172;9325
1156180;6350
1156189;7108
1156197;14648
1156205;16425
1156214;15631
1156222;14732
1156230;14411
1156238;14129
1156246;13895
1156254;13753
1156266;13718
1156274;13664
1156282;13598
1156290;13497
1156298;13411
1156307;13279
1156315;13235
1156323;13132
1156331;13024
1156339;12847
1156348;12717
1156356;12485
1156364;12258
1156372;12001
1156380;11859
1156389;11797
1156397;11886
1156405;11969
1156413;12156
1156421;12327
1156430;12658
1156438;12997
1156446;13374
1156454;13693
1156462;13970
1156471;14117
1156479;14219
1156487;14232
1156495;14276
1156504;14276
1156513;14263
1156521;14193
1156529;14144
1156537;14090
1156548;14138
1156557;14135
1156565;14094
1156573;14038
1156581;14028
1156589;13979
1156598;13995
1156606;13944
1156614;13964
1156622;13939
1156630;13920
1156638;13913
1156647;13950
1156655;13931
1156663;13927
1156671;13831
1156679;13710
1156688;13555
1156696;13530
1156704;13501
1156712;13530
1156720;13501
1156729;13579
1156737;13619
1156745;13760
1156753;13775
1156761;13768
1156770;13726
1156778;13712
1156786;13661
1156794;13647
1156803;13570
1156812;13474
1156820;13865
1156830;12300
1156838;8708
1156846;6052
1156855;8043
1156864;15497
1156872;16240
1156880;15383
1156888;14555
1156897;14306
1156905;14024
1156913;13819
1156921;13687
1156929;13629
1156937;13538
1156946;13478
1156954;13395
1156962;13355
1156970;13233
1156978;13131
1156987;12994
1156995;12865
1157003;12713
1157011;12543
1157019;12312
1157028;12103
1157036;11887
1157044;11729
1157052;11657
1157060;11660
1157069;11777
1157077;11946
1157085;12196
1157093;12489
1157101;12911
1157113;13519
1157121;13874
1157129;14147
1157137;14287
1157145;14422
1157154;14416
1157162;14447
1157170;14419
1157179;14409
1157187;14326
1157196;14304
1157204;14255
1157212;14199
1157220;14148
1157228;14133
1157236;14102
1157245;14092
1157253;14073
1157261;14074
1157269;14084
1157277;14083
1157286;14093
1157294;14113
1157302;14085
1157310;14083
1157318;14126
1157327;14130
1157335;14160
1157343;14154
1157351;14080
1157359;13881
1157368;13703
1157376;13663
1157384;13676
1157392;13699
1157403;13816
1157412;13915
1157420;13945
1157428;14018
1157436;14008
1157444;13978
1157453;13905
1157461;13881
1157469;13843
1157477;13796
1157485;13742
1157495;13676
1157503;13939
1157511;12324
1157519;8801
1157527;6255
1157535;8430
1157544;15723
1157552;16374
1157560;15412
1157568;14643
1157576;14345
1157585;14064
1157593;13858
1157601;13769
1157609;13659
1157617;13588
1157626;13469
1157634;13381
1157642;13292
1157650;13208
1157658;13081
1157667;13005
1157675;12861
1157686;12724
1157694;12625
1157702;12409
1157711;12151
1157719;11939
1157727;11748
1157735;11676
1157743;11759
1157752;11852
1157760;11973
1157768;12194
1157776;12548
1157784;13013
1157793;13404
1157801;13742
1157809;13999
1157817;14206
1157825;14286
1157833;14352
1157843;14339
1157851;14353
1157859;14329
1157867;14296
1157875;14216
1157884;14177
1157892;14152
1157900;14140
1157908;14089
1157916;14111
1157925;14080
1157933;14082
1157941;14060
1157949;14079
1157957;14057
1157969;14144
1157977;14165
1157985;14189
1157993;14156
1158001;14088
1158010;13938
1158018;13827
1158026;13800
1158034;13816
1158042;13814
1158051;13863
1158059;13873
1158067;13963
1158075;14039
1158083;14054
1158092;14050
1158100;14050
1158108;14033
1158116;13997
1158124;13944
1158132;13879
1158141;13774
1158149;14148
1158158;12882
1158166;9610
1158174;6607
1158183;7401
1158191;15015
1158199;16524
1158207;15502
1158215;14566
1158224;14168
1158232;13899
1158240;13618
1158251;13526
1158259;13448
1158268;13348
1158276;13271
1158284;13207
1158292;13133
1158300;13040
1158309;12878
1158317;12754
1158325;12652
1158333;12527
1158341;12341
1158350;12146
1158358;11902
1158366;11731
1158374;11602
1158382;11604
1158391;11634
1158399;11758
1158407;11991
1158415;12305
1158423;12684
1158431;13134
1158440;13509
1158448;13866
1158456;14124
1158464;14368
1158472;14455
1158482;14558
1158490;14572
1158498;14584
1158506;14550
1158514;14528
1158523;14437
1158534;14482
1158542;14462
1158550;14408
1158558;14368
1158567;14347
1158575;14287
1158583;14272
1158591;14239
1158599;14231
1158608;14194
1158616;14171
1158624;14095
1158632;14039
1158640;13833
1158649;13693
1158657;13626
1158665;13636
1158673;13633
1158681;13715
1158690;13759
1158698;13879
1158706;13922
1158714;13952
1158722;13937
1158730;13962
1158739;13935
1158747;13935
1158755;13864
1158763;13794
1158771;13670
1158780;13953
1158788;12862
1158796;9959
1158805;7272
1158813;7427
1158832;17436
1158841;16362
1158849;15293
1158857;14656
1158866;14382
1158874;14065
1158882;13897
1158890;13764
1158898;13656
1158907;13518
1158915;13464
1158923;13335
1158931;13242
1158939;13106
1158948;13012
1158956;12813
1158964;12635
1158972;12415
1158980;12210
1158989;11974
1158997;11821
1159005;11616
1159013;11580
1159021;11608
1159030;11745
1159038;11870
1159046;12112
1159054;12427
1159062;12858
1159070;13269
1159079;13632
1159087;13932
1159095;14170
1159104;14255
1159114;14418
1159123;14439
1159131;14406
1159139;14312
1159147;14207
1159156;14122
1159165;14109
1159173;14038
1159181;13971
1159189;13847
1159197;13822
1159206;13735
1159214;13725
1159222;13657
1159230;13669
1159238;13647
1159247;13664
1159255;13646
1159263;13723
1159271;13707
1159279;13693
1159288;13569
1159296;13448
1159304;13304
1159312;13302
1159320;13287
1159329;13337
1159337;13378
1159345;13474
1159353;13523
1159361;13614
1159369;13581
1159378;13602
1159386;13602
1159397;13648
1159405;13644
1159414;13585
1159422;13425
1159430;13822
1159438;13083
1159446;9998
1159454;6273
1159463;5624
1159472;12178
1159480;16202
1159488;15616
1159496;14745
1159505;14291
1159513;14036
1159521;13713
1159529;13591
1159537;13486
1159546;13428
1159554;13300
1159562;13246
1159570;13202
1159578;13161
1159587;13059
1159595;12989
1159603;12855
1159611;12721
1159619;12557
1159628;12387
1159636;12198
1159644;11948
1159652;11767
1159660;11698
1159668;11719
1159680;11944
1159688;12158
1159696;12375
1159704;12648
1159713;13063
1159721;13471
1159729;13894
1159737;14187
1159745;14370
1159753;14483
1159762;14543
1159770;14545
1159778;14545
1159786;14472
1159795;14426
1159804;14335
1159812;14304
1159820;14248
1159828;14247
1159836;14222
1159845;14238
1159853;14223
1159861;14232
1159869;14183
1159877;14151
1159886;14082
1159894;14055
1159902;14048
1159910;14028
1159918;14051
1159927;14052
1159935;14071
1159943;14062
1159951;14012
1159959;13785
1159971;13730
1159979;13804
1159987;13799
1159995;13814
1160003;13819
1160012;13882
1160020;13977
1160028;14078
1160036;14076
1160044;14072
1160052;14050
1160061;14056
1160069;14052
1160077;13997
1160085;13900
1160093;14052
1160102;13899
1160110;11529
1160118;7732
1160127;5860
1160135;10365
1160144;16268
1160152;16108
1160160;15151
1160168;14500
1160176;14243
1160185;13941
1160193;13787
1160201;13711
1160209;13660
1160217;13592
1160226;13499
1160234;13374
1160242;13246
1160253;13173
1160261;13146
1160270;13003
1160278;12921
1160286;12766
1160294;12563
1160302;12340
1160311;12114
1160319;11920
1160327;11805
1160335;11818
1160343;11898
1160351;11993
1160360;12150
1160368;12417
1160376;12824
1160384;13245
1160392;13636
1160401;13955
1160409;14153
1160417;14304
1160425;14382
1160433;14407
1160442;14370
1160451;14370
1160459;14339
1160467;14294
1160475;14249
1160484;14214
1160492;14165
1160500;14174
1160508;14135
1160516;14130
1160525;14102
1160536;14157
1160544;14217
1160552;14194
1160560;14176
1160569;14174
1160577;14144
1160585;14071
1160593;13875
1160601;13730
1160610;13635
1160618;13661
1160626;13656
1160634;13654
1160642;13710
1160650;13797
1160659;13875
1160667;13907
1160675;13901
1160683;13883
1160691;13852
1160700;13867
1160708;13866
1160716;13836
1160724;13740
1160732;13977
1160741;13576
1160749;10995
1160757;7191
1160765;5636
1160774;11259
1160783;16247
1160791;15774
1160799;14898
1160807;14393
1160818;14117
1160827;13913
1160835;13766
1160843;13657
1160851;13560
1160859;13439
1160868;13351
1160876;13266
1160884;13201
1160892;13092
1160900;12975
1160909;12846
1160917;12713
1160925;12525
1160933;12350
1160941;12109
1160950;11895
1160958;11683
1160966;11626
1160974;11640
1160982;11768
1160990;11876
1160999;12131
1161007;12468
1161015;12863
1161023;13276
1161031;13690
1161040;13936
1161048;14112
1161056;14210
1161064;14295
1161072;14327
1161082;14381
1161090;14366
1161100;14421
1161108;14454
1161117;14418
1161126;14372
1161134;14354
1161142;14267
1161150;14211
1161158;14189
1161167;14184
1161175;14166
1161183;14182
1161191;14142
1161199;14189
1161208;14173
1161216;14162
1161224;14095
1161232;13903
1161240;13720
1161249;13657
1161257;13630
1161265;13648
1161273;13663
1161281;13726
1161289;13795
1161298;13960
1161306;13998
1161314;14042
1161322;14009
1161330;14042
1161339;13984
1161347;13973
1161355;13899
1161363;13828
1161371;14225
1161383;12072
1161391;8371
1161399;5985
1161407;9565
1161415;16256
1161424;16236
1161432;15303
1161441;14594
1161449;14376
1161457;14059
1161466;13892
1161474;13795
1161482;13734
1161490;13664
1161498;13612
1161507;13488
1161515;13423
1161523;13322
1161531;13255
1161539;13159
1161548;13034
1161556;12875
1161564;12715
1161572;12497
1161580;12313
1161588;12091
1161597;11983
1161605;11924
1161613;11981
1161621;12076
1161629;12281
1161638;12529
1161646;12906
1161654;13293
1161662;13711
1161673;14190
1161682;14477
1161690;14601
1161698;14696
1161706;14679
1161714;14677
1161723;14630
1161731;14572
1161740;14478
1161748;14434
1161756;14344
1161765;14292
1161773;14207
1161781;14163
1161789;14076
1161797;14050
1161806;14037
1161814;14061
1161822;14041
1161830;14067
1161838;14028
1161847;14011
1161855;13878
1161863;13730
1161871;13585
1161879;13576
1161887;13541
1161896;13614
1161904;13654
1161912;13714
1161920;13817
1161928;13940
1161937;13951
1161945;13976
1161956;13974
1161964;14029
1161972;13972
1161981;13917
1161989;13803
1161997;13829
1162005;13722
1162013;11776
1162022;8286
1162030;6219
1162038;10070
1162046;16674
1162055;16379
1162064;15405
1162072;14530
1162080;14214
1162088;13900
1162096;13665
1162105;13528
1162113;13455
1162121;13369
1162129;13335
1162137;13250
1162146;13173
1162154;13085
1162162;13009
1162170;12837
1162178;12699
1162186;12546
1162195;12395
1162203;12152
1162211;11954
1162219;11731
1162227;11596
1162239;11632
1162247;11781
1162255;11874
1162263;12075
1162271;12336
1162280;12737
1162288;13123
1162296;13527
1162304;13822
1162312;14048
1162321;14149
1162329;14249
1162337;14256
1162345;14305
1162353;14254
1162362;14172
1162371;14069
1162379;14043
1162387;13990
1162395;13927
1162404;13811
1162412;13767
1162420;13728
1162428;13699
1162436;13666
1162445;13676
1162453;13660
1162461;13675
1162469;13681
1162477;13731
1162486;13750
1162494;13777
1162502;13775
1162510;13659
1162521;13497
1162530;13598
1162538;13603
1162546;13603
1162554;13588
1162562;13636
1162570;13688
1162579;13821
1162587;13852
1162595;13818
1162603;13782
1162611;13776
1162620;13728
1162628;13682
1162636;13611
1162644;13575
1162652;14009
1162661;12725
1162669;9100
1162677;5934
1162685;6759
1162694;14472
1162703;16312
1162711;15578
1162719;14735
1162727;14400
1162735;14133
1162744;13910
1162752;13774
1162760;13688
1162768;13586
1162776;13528
1162785;13490
1162793;13429
1162801;13347
1162812;13315
1162820;13221
1162829;13029
1162837;12848
1162845;12661
1162853;12434
1162861;12240
1162870;12019
1162878;11869
1162886;11807
1162894;11841
1162902;11945
1162910;12125
1162919;12381
1162927;12749
1162935;13158
1162943;13575
1162951;13906
1162960;14136
1162968;14280
1162976;14385
1162984;14424
1162992;14409
1163001;14326
1163009;14287
1163018;14244
1163026;14176
1163034;14128
1163043;14082
1163051;14021
1163059;13983
1163067;13939
1163075;13885
1163084;13844
1163095;13883
1163103;13940
1163111;13944
1163119;13889
1163128;13909
1163136;13849
1163144;13880
1163152;13883
1163160;13840
1163169;13650
1163177;13576
1163185;13598
1163193;13669
1163201;13702
1163209;13712
1163218;13754
1163226;13809
1163234;13915
1163242;13901
1163250;13895
1163259;13864
1163267;13863
1163275;13871
1163283;13849
1163291;13806
1163300;13749
1163308;14193
1163316;13263
1163324;9941
1163333;6494
1163342;6466
1163350;13704
1163358;16483
1163366;15821
1163376;14803
1163386;14595
1163394;14276
1163402;14042
1163410;13888
1163418;13791
1163427;13715
1163435;13626
1163443;13550
1163451;13439
1163459;13347
1163468;13282
1163476;13193
1163484;13061
1163492;12922
1163500;12773
1163508;12567
1163517;12347
1163525;12091
1163533;11901
1163541;11799
1163549;11832
1163558;11911
1163566;12064
1163574;12306
1163582;12661
1163590;13060
1163599;13498
1163607;13859
1163615;14164
1163623;14384
1163631;14512
1163640;14575
1163649;14624
1163659;14682
1163667;14670
1163675;14596
1163685;14511
1163693;14457
1163701;14379
1163709;14297
1163717;14204
1163726;14138
1163734;14113
1163742;14068
1163750;14050
1163758;14033
1163767;13986
1163775;13979
1163783;14026
1163791;14033
1163799;14069
1163807;14008
1163816;13961
1163824;13744
1163832;13645
1163840;13638
1163848;13712
1163857;13743
1163865;13779
1163873;13771
1163881;13863
1163889;13973
1163898;14015
1163906;14029
1163914;14051
1163922;14048
1163930;14004
1163942;13994
1163950;13945
1163958;14163
1163966;13750
1163974;11123
1163983;7388
1163991;5916
1163999;11433
1164008;16401
1164016;15964
1164025;14986
1164033;14378
1164041;14121
1164049;13840
1164057;13644
1164066;13539
1164074;13445
1164082;13420
1164090;13334
1164098;13268
1164106;13185
1164115;13137
1164123;13057
1164131;13015
1164139;12914
1164147;12773
1164156;12523
1164164;12282
1164172;12007
1164180;11803
1164188;11632
1164197;11629
1164205;11633
1164213;11753
1164221;11904
1164232;12391
1164241;12870
1164249;13306
1164257;13659
1164265;13973
1164273;14204
1164282;14344
1164290;14390
1164298;14430
1164306;14450
1164315;14469
1164324;14415
1164332;14385
1164340;14317
1164348;14320
1164356;14269
1164365;14238
1164373;14196
1164381;14161
1164389;14080
1164397;14069
1164406;14074
1164414;14066
1164422;14022
1164430;14042
1164438;13919
1164446;13805
1164455;13708
1164463;13695
1164471;13685
1164479;13734
1164487;13799
1164496;13901
1164504;13963
1164515;14156
1164523;14203
1164531;14165
1164540;14114
1164548;14138
1164556;14097
1164564;14055
1164572;13908
1164581;14006
1164589;13577
1164597;11350
1164605;8130
1164613;6953
1164622;12335
1164630;17489
1164639;16761
1164647;15715
1164655;14832
1164664;14513
1164672;14197
1164680;13995
1164688;13830
1164696;13750
1164705;13635
1164713;13576
1164721;13462
1164729;13381
1164737;13206
1164745;13094
1164754;12957
1164762;12814
1164770;12640
1164778;12484
1164786;12261
1164798;12006
1164806;11835
1164814;11693
1164822;11635
1164830;11745
1164839;11871
1164847;12088
1164855;12390
1164863;12810
1164871;13196
1164880;13613
1164888;13920
1164896;14145
1164904;14265
1164912;14394
1164921;14391
1164929;14409
1164937;14385
1164945;14390
1164954;14386
1164963;14354
1164971;14268
1164979;14219
1164987;14128
1164995;14074
1165004;13976
1165012;13935
1165020;13878
1165028;13882
1165036;13889
1165044;13927
1165053;13899
1165061;13879
1165069;13741
1165080;13693
1165089;13708
1165097;13717
1165105;13709
1165113;13764
1165121;13747
1165129;13814
1165138;13863
1165146;13879
1165154;13830
1165162;13824
1165170;13764
1165179;13702
1165187;13653
1165195;13627
1165203;13477
1165211;13840
1165220;12815
1165228;9556
1165236;6335
1165244;6444
1165252;13900
1165261;16540
1165269;15805
1165278;14883
1165286;14370
1165294;14113
1165303;13800
1165311;13612
1165319;13469
1165327;13353
1165335;13265
1165343;13168
1165352;13122
1165360;13046
1165371;12974
1165379;12916
1165388;12722
1165396;12553
1165404;12327
1165412;12131
1165420;11854
1165428;11648
1165437;11487
1165445;11437
1165453;11405
1165461;11528
1165469;11707
1165478;12005
1165486;12420
1165494;12887
1165502;13313
1165510;13695
1165519;13962
1165527;14160
1165535;14273
1165543;14300
1165551;14303
1165560;14280
1165568;14236
1165576;14157
1165584;14117
1165592;14067
1165602;14013
1165610;13987
1165618;13932
1165626;13868
1165634;13833
1165642;13834
1165654;13861
1165662;13903
1165670;13859
1165678;13863
1165687;13879
1165695;13915
1165703;13900
1165711;13929
1165719;13923
1165727;13958
1165736;13927
1165744;13852
1165752;13654
1165760;13545
1165768;13556
1165777;13585
1165785;13608
1165793;13604
1165801;13625
1165809;13693
1165818;13812
1165826;13851
1165834;13852
1165842;13859
1165850;13877
1165859;13851
1165867;13811
1165875;13713
1165883;13836
1165891;13754
1165900;11462
1165909;7630
1165917;5697
1165925;9539
1165935;16350
1165944;15991
1165952;15120
1165960;14689
1165969;14397
1165977;14102
1165986;13957
1165994;13825
1166002;13705
1166010;13606
1166018;13544
1166026;13516
1166035;13446
1166043;13353
1166051;13234
1166059;13145
1166067;13037
1166076;12852
1166084;12645
1166092;12400
1166100;12175
1166108;11947
1166117;11825
1166125;11769
1166133;11810
1166141;11896
1166149;12087
1166158;12361
1166166;12766
1166174;13231
1166182;13700
1166190;14053
1166199;14339
1166207;14484
1166218;14638
1166226;14725
1166234;14654
1166243;14568
1166251;14485
1166259;14419
1166267;14356
1166276;14331
1166285;14292
1166293;14259
1166301;14204
1166309;14153
1166317;14134
1166326;14113
1166334;14111
1166342;14108
1166350;14068
1166358;14020
1166366;13956
1166375;13926
1166383;13936
1166391;13915
1166399;13895
1166407;13881
1166416;13828
1166424;13701
1166432;13509
1166440;13428
1166448;13458
1166457;13496
1166465;13524
1166473;13524
1166481;13603
1166489;13704
1166501;13907
1166509;13922
1166517;13891
1166525;13832
1166533;13775
1166542;13740
1166550;13671
1166558;13557
1166566;13877
1166574;13331
1166584;10569
1166592;6911
1166600;5843
1166608;11618
1166616;16154
1166625;15734
1166633;14807
1166641;14316
1166649;14108
1166657;13778
1166665;13644
1166674;13551
1166682;13504
1166690;13432
1166698;13393
1166706;13309
1166715;13247
1166723;13200
1166731;13153
1166739;13024
1166747;12957
1166756;12812
1166764;12639
1166772;12403
1166780;12195
1166791;11942
1166800;11826
1166808;11737
1166816;11800
1166824;11890
1166832;12092
1166841;12395
1166849;12823
1166857;13265
1166865;13705
1166873;13992
1166882;14279
1166890;14433
1166898;14543
1166906;14568
1166915;14631
1166924;14609
1166932;14529
1166940;14467
1166948;14457
1166956;14416
1166964;14390
1166973;14297
1166981;14229
1166989;14130
1166997;14083
1167005;14044
1167014;14015
1167022;13984
1167030;14003
1167038;13963
1167046;13970
1167055;13935
1167063;13917
1167074;13923
1167082;13961
1167090;13931
1167099;13934
1167107;13925
1167115;13889
1167123;13781
1167131;13583
1167140;13483
1167148;13508
1167156;13541
1167164;13571
1167172;13603
1167181;13697
1167189;13744
1167197;13852
1167205;13820
1167213;13802
1167222;13771
1167231;13779
1167239;13698
1167247;13656
1167255;13603
1167263;13588
1167272;13838
1167280;12352
1167288;8795
1167296;6052
1167304;7699
1167313;15169
1167321;16244
1167329;15397
1167337;14565
1167345;14270
1167357;13959
1167365;13870
1167373;13733
1167381;13647
1167389;13573
1167398;13544
1167406;13475
1167414;13419
1167422;13303
1167430;13230
1167439;13094
1167447;13009
1167455;12847
1167463;12661
1167471;12400
1167480;12165
1167488;11898
1167496;11723
1167504;11595
1167512;11594
1167521;11614
1167529;11786
1167537;12006
1167545;12362
1167553;12746
1167561;13249
1167571;13654
1167579;13980
1167587;14140
1167595;14273
1167603;14316
1167612;14359
1167620;14383
1167628;14413
1167639;14428
1167647;14512
1167656;14457
1167664;14453
1167672;14417
1167680;14368
1167688;14288
1167697;14286
1167705;14251
1167713;14228
1167721;14154
1167729;14180
1167738;14129
1167746;14088
1167754;14032
1167762;14040
1167770;14010
1167779;14003
1167787;14014
1167795;14053
1167803;14086
1167811;14070
1167820;13937
1167828;13770
1167836;13670
1167844;13714
1167852;13743
1167860;13741
1167869;13742
1167877;13831
1167885;13949
1167894;14070
1167902;14059
1167911;14057
1167921;14063
1167929;14102
1167937;13993
1167945;13958
1167955;13804
1167963;14077
1167971;13233
1167979;10655
1167987;7836
1167996;7523
1168004;14147
1168012;17318
1168020;16330
1168028;15227
1168037;14415
1168045;14190
1168053;13942
1168061;13769
1168069;13671
1168078;13608
1168086;13512
1168094;13449
1168102;13393
1168110;13289
1168119;13129
1168127;13041
1168135;12882
1168143;12717
1168151;12549
1168159;12327
1168168;12106
1168176;11830
1168184;11622
1168192;11484
1168200;11407
1168212;11542
1168220;11671
1168228;11847
1168236;12126
1168244;12517
1168253;12955
1168261;13382
1168270;13732
1168278;14011
1168286;14153
1168295;14288
1168303;14339
1168311;14376
1168319;14360
1168327;14330
1168336;14278
1168344;14249
1168352;14242
1168360;14206
1168368;14127
1168377;14086
1168385;14056
1168393;14021
1168401;14020
1168409;14033
1168418;14016
1168426;13986
1168434;13958
1168442;13793
1168450;13668
1168458;13599
1168467;13626
1168475;13671
1168483;13728
1168494;13898
1168503;14004
1168511;14085
1168519;14084
1168527;14080
1168535;14029
1168543;14043
1168552;13999
1168560;13955
1168569;13850
1168577;13777
1168585;13756
1168594;13745
1168602;11882
1168610;8530
1168618;7175
1168626;10304
1168635;17052
1168643;17042
1168651;16021
1168659;15048
1168667;14433
1168676;14148
1168684;13884
1168692;13701
1168700;13591
1168708;13504
1168717;13459
1168725;13387
1168733;13279
1168741;13153
1168749;13077
1168758;12949
1168766;12822
1168777;12671
1168785;12463
1168793;12194
1168802;11914
1168810;11655
1168818;11421
1168826;11374
1168834;11441
1168842;11578
1168851;11763
1168859;12069
1168867;12502
1168876;12979
1168884;13386
1168893;13740
1168901;14021
1168909;14184
1168917;14271
1168925;14291
1168934;14301
1168942;14296
1168950;14269
1168958;14233
1168966;14188
1168975;14160
1168983;14121
1168991;14035
1168999;13993
1169007;13908
1169016;13865
1169024;13817
1169032;13774
1169040;13736
1169048;13748
1169060;13801
1169068;13850
1169076;13868
1169084;13892
1169092;13850
1169101;13778
1169109;13614
1169117;13494
1169125;13446
1169133;13464
1169142;13501
1169150;13553
1169158;13577
1169166;13675
1169174;13725
1169182;13797
1169192;13804
1169200;13762
1169208;13722
1169216;13698
1169224;13581
1169233;13484
1169241;13601
1169249;13647
1169257;11292
1169265;7333
1169274;5211
1169282;8624
1169290;15412
1169298;16003
1169306;15188
1169315;14489
1169323;14204
1169331;13922
1169342;13753
1169350;13742
1169359;13666
1169367;13586
1169375;13497
1169383;13452
1169391;13332
1169400;13271
1169408;13162
1169416;13086
1169424;12916
1169432;12780
1169441;12568
1169449;12367
1169457;12117
1169465;11913
1169473;11717
1169481;11686
1169490;11701
1169498;11822
1169506;11969
1169514;12301
1169522;12682
1169532;13189
1169540;13595
1169548;13953
1169556;14228
1169564;14442
1169573;14511
1169581;14541
1169589;14499
1169597;14530
1169605;14476
1169614;14484
1169622;14427
1169633;14468
1169641;14421
1169649;14396
1169658;14306
1169666;14312
1169674;14250
1169682;14273
1169690;14221
1169699;14205
1169707;14146
1169715;14139
1169723;14102
1169731;14164
1169740;14149
1169748;14186
1169756;14107
1169764;14067
1169772;13845
1169780;13698
1169789;13684
1169797;13734
1169805;13723
1169813;13737
1169821;13767
1169830;13867
1169838;13981
1169846;14037
1169855;13980
1169863;13985
1169872;13905
1169880;13891
1169888;13813
1169896;13761
1169904;13658
1169916;13795
1169924;11498
1169932;7639
1169940;5781
1169948;9555
1169957;15805
1169965;16096
1169973;15246
1169981;14665
1169989;14414
1169998;14160
1170006;13975
1170014;13893
1170022;13789
1170030;13722
1170039;13626
1170047;13587
1170055;13497
1170063;13417
1170071;13236
1170079;13120
1170088;12952
1170096;12815
1170104;12618
1170112;12411
1170120;12142
1170129;11917
1170137;11697
1170145;11637
1170153;11626
1170161;11716
1170170;11799
1170179;12030
1170187;12388
1170197;13105
1170205;13553
1170214;13896
1170222;14116
1170231;14319
1170239;14356
1170247;14376
1170256;14348
1170264;14357
1170272;14327
1170280;14301
1170288;14244
1170297;14222
1170305;14159
1170313;14154
1170321;14087
1170329;14049
1170338;14002
1170346;13981
1170354;13943
1170362;13960
1170370;13917
1170378;13930
1170387;13897
1170395;13918
1170403;13881
1170411;13907
1170419;13895
1170428;13904
1170436;13792
1170444;13622
1170452;13438
1170460;13430
1170469;13444
1170480;13622
1170488;13704
1170496;13790
1170504;13848
1170513;13998
1170521;14018
1170529;14036
1170538;14018
1170546;14022
1170555;13995
1170563;13967
1170571;13886
1170579;13888
1170587;14122
1170596;12513
1170604;8814
1170612;5938
1170620;7878
1170628;15207
1170637;16184
1170645;15376
1170653;14591
1170661;14349
1170669;14046
1170678;13832
1170686;13714
1170694;13671
1170702;13596
1170710;13514
1170718;13443
1170727;13383
1170735;13301
1170743;13204
1170751;13107
1170762;12982
1170771;12823
1170779;12606
1170787;12347
1170795;12113
1170803;11888
1170812;11687
1170820;11594
1170828;11635
1170836;11705
1170844;11872
1170854;12099
1170862;12530
1170870;12977
1170878;13437
1170886;13835
1170895;14140
1170903;14336
1170911;14434
1170919;14432
1170927;14430
1170936;14426
1170944;14419
1170952;14431
1170960;14422
1170968;14350
1170977;14334
1170985;14266
1170993;14225
1171001;14239
1171009;14224
1171017;14207
1171026;14134
1171034;14064
1171042;14044
1171053;14093
1171062;14201
1171070;14166
1171078;14102
1171086;14003
1171094;13857
1171102;13672
1171111;13573
1171119;13557
1171127;13553
1171135;13541
1171143;13644
1171152;13714
1171160;13837
1171169;13868
1171177;13875
1171185;13837
1171194;13808
1171202;13793
1171210;13781
1171218;13737
1171226;13647
1171235;13767
1171243;13683
1171251;11664
1171259;8125
1171267;6191
1171276;10574
1171284;16656
1171292;16339
1171300;15363
1171308;14564
1171316;14340
1171325;14065
1171336;13896
1171344;13860
1171352;13729
1171361;13611
1171369;13534
1171377;13464
1171385;13373
1171393;13294
1171401;13177
1171410;13011
1171418;12895
1171426;12765
1171434;12615
1171442;12394
1171451;12174
1171459;11914
1171467;11705
1171475;11667
1171484;11748
1171493;11822
1171501;11968
1171509;12225
1171517;12646
1171525;13075
1171534;13502
1171542;13862
1171550;14163
1171558;14348
1171566;14446
1171575;14455
1171583;14485
1171591;14469
1171599;14403
1171607;14339
1171619;14352
1171627;14338
1171635;14227
1171643;14148
1171651;14116
1171660;14091
1171668;14024
1171676;13970
1171684;13928
1171692;13929
1171700;13968
1171709;14000
1171717;13962
1171725;13932
1171733;13815
1171741;13679
1171750;13636
1171758;13601
1171766;13652
1171774;13685
1171782;13747
1171791;13777
1171799;13905
1171808;13942
1171816;13966
1171824;13933
1171833;13961
1171841;13944
1171849;13925
1171857;13871
1171865;13840
1171874;13742
1171882;13917
1171890;12298
1171901;8074
1171909;6904
1171918;12237
1171926;17356
1171934;16725
1171942;15660
1171950;14780
1171959;14370
1171967;14071
1171975;13764
1171983;13613
1171991;13478
1171999;13405
1172008;13333
1172016;13263
1172024;13146
1172032;13092
1172040;12981
1172049;12893
1172057;12700
1172065;12541
1172073;12338
1172081;12131
1172090;11859
1172098;11690
1172106;11507
1172114;11478
1172122;11512
1172132;11651
1172140;11772
1172148;12070
1172156;12481
1172164;12972
1172173;13418
1172183;13949
1172192;14237
1172200;14409
1172208;14469
1172217;14526
1172225;14550
1172233;14534
1172241;14477
1172249;14439
1172258;14379
1172266;14352
1172274;14244
1172282;14213
1172290;14141
1172298;14136
1172307;14058
1172315;14046
1172323;14003
1172331;14019
1172339;13994
1172348;14031
1172356;13991
1172364;13999
1172372;13961
1172380;14032
1172389;14047
1172397;14083
1172405;14026
1172413;13964
1172421;13773
1172430;13622
1172438;13596
1172446;13635
1172454;13633
1172463;13659
1172474;13771
1172482;13943
1172490;14002
1172498;14005
1172506;13946
1172516;13907
1172524;13827
1172532;13781
1172540;13645
1172548;13578
1172557;13507
1172565;13747
1172573;11891
1172581;8195
1172589;5692
1172598;7883
1172606;15181
1172614;16173
1172622;15339
1172630;14546
1172638;14198
1172647;13929
1172655;13665
1172663;13575
1172671;13466
1172679;13420
1172688;13348
1172696;13315
1172704;13236
1172712;13207
1172720;13130
1172729;13072
1172737;12911
1172745;12758
1172756;12586
1172764;12455
1172773;12195
1172781;11991
1172789;11780
1172797;11691
1172805;11690
1172814;11783
1172822;11888
1172830;12150
1172839;12532
1172847;13012
1172856;13420
1172864;13831
1172872;14060
1172880;14241
1172888;14306
1172897;14350
1172905;14290
1172913;14288
1172921;14245
1172929;14178
1172937;14098
1172946;14049
1172954;13994
1172962;14019
1172970;13975
1172978;13978
1172987;13946
1172995;13903
1173003;13832
1173011;13823
1173019;13816
1173028;13840
1173039;13932
1173047;14015
1173055;14019
1173063;14026
1173072;13972
1173080;13964
1173088;13844
1173096;13666
1173104;13460
1173113;13491
1173121;13487
1173129;13540
1173137;13527
1173146;13589
1173155;13658
1173163;13774
1173171;13832
1173179;13840
1173187;13808
1173196;13782
1173204;13746
1173212;13741
1173220;13684
1173228;13615
1173236;13734
1173245;13716
1173253;11521
1173261;7729
1173269;5747
1173277;9200
1173286;15712
1173294;16018
1173302;15181
1173310;14522
1173321;14212
1173330;14008
1173338;13806
1173346;13749
1173354;13666
1173362;13614
1173371;13520
1173379;13473
1173387;13379
1173395;13325
1173403;13197
1173412;13131
1173420;12990
1173428;12811
1173436;12603
1173444;12390
1173453;12161
1173461;11963
1173469;11788
1173477;11715
1173486;11713
1173495;11798
1173503;12003
1173511;12309
1173519;12732
1173527;13190
1173535;13641
1173544;14011
1173552;14292
1173560;14484
1173568;14603
1173576;14661
1173585;14651
1173593;14688
1173604;14731
1173612;14729
1173620;14625
1173629;14555
1173637;14475
1173645;14426
1173653;14343
1173661;14303
1173670;14231
1173678;14199
1173686;14160
1173694;14129
1173702;14080
1173711;14083
1173719;14057
1173727;14006
1173735;13997
1173743;13977
1173752;13933
1173760;13980
1173768;14014
1173776;13897
1173784;13685
1173793;13415
1173801;13269
1173810;13186
1173818;13150
1173826;13153
1173834;13144
1173843;13125
1173851;13268
1173859;13290
1173867;13344
1173875;13377
1173884;13413
1173895;13523
1173903;13558
1173911;13497
1173919;13409
1173928;13462
1173936;13550
1173944;11819
1173952;8357
1173960;6291
1173969;9387
1173977;16262
1173985;16498
1173993;15596
1174001;14738
1174010;14468
1174018;14202
1174026;13941
1174034;13783
1174042;13682
1174051;13661
1174059;13592
1174067;13556
1174075;13463
1174083;13402
1174092;13322
1174100;13228
1174108;13102
1174116;13005
1174125;12816
1174134;12608
1174142;12373
1174150;12188
1174158;11985
1174166;11879
1174178;11954
1174186;12109
1174194;12239
1174202;12404
1174210;12789
1174218;13238
1174227;13627
1174235;14001
1174243;14271
1174251;14511
1174259;15015
1174268;15572
1174276;16125
1174284;16394
1174292;16381
1174300;16519
1174309;16470
1174317;16496
1174325;16562
1174333;16600
1174341;16291
1174350;15963
1174358;15744
1174366;15499
1174374;15552
1174382;15404
1174391;15425
1174399;15451
1174407;15442
1174415;15405
1174423;15350
1174431;15026
1174441;14628
1174449;14447
1174459;14442
1174467;14531
1174476;14748
1174484;14835
1174493;14922
1174501;14777
1174509;14452
1174518;14137
1174526;13929
1174534;14077
1174542;14182
1174550;14095
1174558;13864
1174567;14076
1174575;14178
1174583;13813
1174591;11702
1174599;8623
1174608;7901
1174616;11922
1174624;17003
1174632;16466
1174640;15318
1174649;14177
1174657;13400
1174665;13046
1174673;12697
1174681;12424
1174690;12553
1174698;12834
1174706;12778
1174714;12334
1174722;12037
1174730;11827
1174742;11670
1174750;11581
1174758;11502
1174766;11534
1174775;11556
1174783;11389
1174791;11196
1174799;11000
1174807;10629
1174817;10310
1174825;10125
1174833;10177
1174841;10087
1174849;10323
1174857;10807
1174866;10999
1174874;11874
1174882;12673
1174890;12792
1174898;12800
1174907;12847
1174915;12827
1174923;12943
1174931;12794
1174939;13060
1174948;13109
1174956;13051
1174964;13041
1174972;13130
1174980;13437
1174989;13519
1174997;13243
1175005;13154
1175013;13340
1175024;13259
1175033;13440
1175041;13430
1175049;13645
1175057;13197
1175065;13539
1175074;13820
1175082;13770
1175090;13476
1175098;13582
1175106;13444
1175114;13474
1175124;13512
1175132;13586
1175140;13499
1175148;13656
1175156;13456
1175165;14086
1175173;14131
1175181;13983
1175189;13863
1175197;13817
1175206;13615
1175214;13596
1175222;13211
1175230;11279
1175238;8165
1175247;7437
1175255;11497
1175263;16294
1175271;16120
1175279;15264
1175288;14521
1175296;14221
1175304;13790
1175315;13464
1175323;13495
1175332;13406
1175340;13303
1175348;13155
1175356;13017
1175364;13384
1175373;13373
1175381;13350
1175389;13264
1175397;13221
1175405;12766
1175414;12528
1175422;12375
1175430;12228
1175438;11891
1175447;11874
1175455;11858
1175464;11826
1175472;11861
1175480;12128
1175488;12441
1175496;12675
1175505;13155
1175513;13624
1175521;14038
1175529;14276
1175537;14288
1175546;14378
1175554;14402
1175562;14414
1175570;14532
1175578;14544
1175587;14482
1175598;14522
1175606;14508
1175614;14514
1175622;14332
1175631;14277
1175639;14070
1175647;14023
1175655;13950
1175663;13849
1175672;13926
1175680;14010
1175688;13950
1175696;13893
1175704;13877
1175713;13889
1175721;13870
1175729;13939
1175737;14005
1175745;13960
1175753;14113
1175762;14293
1175770;14153
1175779;14001
1175787;13817
1175795;13631
1175804;13600
1175812;13654
1175820;13512
1175828;13466
1175836;13690
1175845;13778
1175853;13943
1175861;14044
1175869;13921
1175880;13881
1175889;13790
1175897;13618
1175905;13617
1175913;13501
1175921;13496
1175930;13013
1175938;11033
1175946;8272
1175954;7948
1175962;11979
1175971;16169
1175979;16034
1175987;15258
1175995;14559
1176003;14102
1176012;13661
1176020;13417
1176028;13256
1176036;13199
1176044;13318
1176052;13178
1176061;13150
1176069;13113
1176077;13139
1176085;13144
1176093;13272
1176102;13145
1176111;13246
1176119;13286
1176127;13242
1176135;13018
1176144;12793
1176152;12410
1176163;12208
1176171;12174
1176179;12158
1176188;12098
1176196;12201
1176204;12367
1176212;12781
1176220;13223
1176229;13621
1176237;13939
1176245;14208
1176253;14256
1176261;14480
1176270;14322
1176278;14431
1176286;14357
1176294;14384
1176302;14282
1176311;14214
1176319;14024
1176327;13967
1176335;13855
1176343;13943
1176351;13771
1176360;13760
1176368;13665
1176376;13749
1176384;13633
1176392;13684
1176401;13551
1176409;13589
1176417;13537
1176426;13623
1176434;13528
1176445;13647
1176453;13596
1176461;13638
1176470;13660
1176478;13684
1176487;13629
1176495;13661
1176503;13616
1176511;13639
1176519;13593
1176528;13445
1176536;13345
1176544;13341
1176552;13212
1176560;13136
1176569;13077
1176577;13124
1176585;13207
1176593;13297
1176601;13360
1176610;13420
1176618;13582
1176626;13683
1176634;13643
1176642;13568
1176650;13607
1176659;13678
1176667;13704
1176675;13574
1176683;13524
1176691;13626
1176700;12081
1176708;8828
1176716;6733
1176724;8661
1176735;16018
1176744;16076
1176752;15228
1176760;14687
1176768;14424
1176776;14048
1176785;13873
1176794;13831
1176802;13820
1176810;13701
1176818;13692
1176827;13632
1176835;13581
1176843;13468
1176851;13340
1176859;13225
1176868;13149
1176876;12949
1176884;12701
1176892;12549
1176900;12426
1176909;12194
1176917;11904
1176925;11724
1176933;11658
1176941;11712
1176950;11762
1176958;12032
1176966;12363
1176974;12825
1176982;13320
1176990;13705
1176999;13990
1177007;14288
1177026;15025
1177034;14998
1177043;14878
1177051;14734
1177059;14650
1177067;14569
1177075;14537
1177084;14429
1177092;14406
1177101;14437
1177109;14385
1177117;14261
1177126;14267
1177134;14272
1177142;14235
1177150;14212
1177158;14165
1177167;14217
1177175;14223
1177183;14128
1177191;14081
1177199;14052
1177208;14025
1177216;14001
1177224;13981
1177232;13971
1177240;13915
1177249;13898
1177257;13885
1177265;13828
1177273;13824
1177281;13791
1177289;13741
1177298;13745
1177309;13774
1177317;13759
1177325;13644
1177334;13478
1177342;13376
1177350;13365
1177358;13447
1177366;13539
1177374;13557
1177383;13599
1177391;13706
1177399;13879
1177408;14029
1177416;14063
1177425;14095
1177433;14101
1177441;14103
1177449;14129
1177457;14069
1177466;13936
1177474;14211
1177482;13480
1177490;10960
1177498;8095
1177507;7874
1177515;13725
1177523;17067
1177531;16556
1177539;15649
1177548;15070
1177556;14796
1177564;14471
1177572;14279
1177580;14214
1177592;14153
1177600;14154
1177608;14175
1177616;14199
1177624;14219
1177633;14161
1177641;14053
1177649;13980
1177657;13861
1177665;13757
1177673;13576
1177682;13379
1177690;13098
1177698;12812
1177706;12567
1177714;12454
1177723;12344
1177731;12424
1177740;12521
1177748;12757
1177756;13113
1177765;13612
1177773;14044
1177781;14433
1177789;14740
1177797;15037
1177806;15227
1177814;15358
1177822;15421
1177830;15487
1177838;15442
1177847;15425
1177855;15349
1177863;15297
1177874;15219
1177882;15154
1177891;15059
1177899;14957
1177907;14862
1177915;14839
1177923;14783
1177932;14716
1177940;14684
1177948;14594
1177956;14529
1177964;14497
1177972;14457
1177981;14413
1177989;14381
1177997;14328
1178005;14267
1178013;14254
1178022;14211
1178030;14147
1178038;14025
1178046;13844
1178054;13601
1178063;13507
1178072;13480
1178080;13495
1178088;13518
1178096;13519
1178105;13564
1178113;13708
1178121;13826
1178129;13852
1178137;13833
1178146;13833
1178154;13830
1178165;13884
1178173;13873
1178181;13740
1178190;13671
1178198;13969
1178206;13163
1178214;10616
1178222;9839
1178231;12556
1178239;18900
1178247;18987
1178255;18114
1178263;17145
1178271;16445
1178280;16071
1178288;15737
1178296;15503
1178304;15375
1178312;15270
1178321;15155
1178329;15031
1178337;14893
1178345;14751
1178353;14542
1178362;14372
1178370;14205
1178378;13971
1178386;13689
1178395;13384
1178404;13073
1178412;12744
1178420;12347
1178428;12074
1178436;11948
1178448;12049
1178456;12150
1178464;12310
1178472;12636
1178480;13050
1178489;13470
1178497;13855
1178505;14099
1178513;14312
1178521;14393
1178530;14384
1178538;14385
1178546;14390
1178554;14360
1178562;14311
1178570;14195
1178579;14101
1178587;14039
1178595;13971
1178603;13850
1178611;13746
1178620;13661
1178628;13600
1178636;13556
1178644;13494
1178652;13412
1178661;13342
1178669;13332
1178677;13335
1178685;13293
1178694;13284
1178703;13281
1178711;13267
1178719;13160
1178729;13093
1178737;13002
1178747;12850
1178755;12713
1178763;12676
1178771;12677
1178779;12718
1178788;12780
1178796;12888
1178804;13063
1178812;13165
1178820;13269
1178829;13279
1178837;13205
1178845;13153
1178853;13080
1178861;13006
1178870;12869
1178878;13214
1178886;11988
1178894;8458
1178902;5677
1178910;6456
1178919;12935
1178927;15585
1178935;15153
1178943;14299
1178951;13702
1178960;13353
1178968;13033
1178976;12930
1178984;12864
1178992;12858
1179001;12734
1179012;12778
1179020;12771
1179028;12751
1179036;12639
1179045;12533
1179053;12388
1179061;12278
1179069;12077
1179078;11924
1179087;11668
1179095;11456
1179103;11206
1179111;11103
1179119;11026
1179128;11133
1179136;11219
1179144;11454
1179152;11742
1179160;12239
1179169;12720
1179177;13184
1179185;13479
1179193;13710
1179201;13895
1179209;13982
1179218;13976
1179226;13951
1179234;13931
1179242;13882
1179250;13838
1179259;13757
1179267;13710
1179275;13676
1179283;13626
1179294;13569
1179303;13610
1179311;13565
1179319;13535
1179327;13515
1179335;13514
1179344;13503
1179352;13500
1179360;13498
1179368;13526
1179376;13537
1179386;13536
1179394;13518
1179402;13549
1179410;13630
1179418;13638
1179427;13605
1179435;13622
1179443;13580
1179451;13598
1179459;13514
1179468;13384
1179476;13229
1179484;13217
1179492;13217
1179500;13239
1179508;13229
1179517;13313
1179525;13354
1179533;13452
1179541;13467
1179549;13522
1179558;13496
1179566;13527
1179577;13564
1179585;13574
1179593;13514
1179602;13466
1179610;13642
1179618;12051
1179626;8571
1179634;6370
1179643;7980
1179651;14750
1179659;16117
1179667;15431
1179675;14539
1179684;14150
1179692;13790
1179701;13506
1179709;13364
1179717;13283
1179726;13184
1179734;13170
1179742;13133
1179750;13086
1179758;12991
1179767;12914
1179775;12815
1179783;12763
1179791;12657
1179799;12535
1179807;12336
1179816;12128
1179824;11847
1179832;11663
1179840;11473
1179848;11418
1179857;11406
1179868;11627
1179876;11854
1179884;12147
1179892;12569
1179901;13072
1179909;13458
1179917;13803
1179925;14001
1179933;14177
1179942;14237
1179950;14299
1179958;14311
1179966;14309
1179974;14261
1179983;14236
1179991;14196
1179999;14128
1180007;14043
1180015;13990
1180024;13928
1180033;13900
1180041;13855
1180049;13870
1180057;13835
1180066;13824
1180074;13816
1180082;13850
1180090;13805
1180098;13829
1180106;13824
1180115;13888
1180123;13818
1180131;13797
1180139;13786
1180151;13854
1180159;13879
1180167;13844
1180175;13817
1180183;13817
1180191;13668
1180200;13525
1180208;13401
1180216;13389
1180224;13367
1180232;13416
1180241;13386
1180249;13397
1180257;13477
1180265;13552
1180273;13649
1180282;13713
1180290;13696
1180298;13710
1180306;13661
1180314;13666
1180323;13594
1180331;13552
1180339;13706
1180347;13384
1180356;11043
1180365;7597
1180373;6413
1180381;10684
1180389;16177
1180397;16176
1180406;15137
1180414;14358
1180422;14056
1180433;13683
1180441;13532
1180450;13395
1180458;13221
1180466;13183
1180474;13103
1180482;13040
1180490;12906
1180499;12844
1180507;12688
1180515;12596
1180523;12425
1180531;12334
1180540;12187
1180548;12062
1180556;11797
1180564;11596
1180572;11362
1180581;11329
1180589;11360
1180597;11511
1180605;11655
1180613;11940
1180622;12312
1180630;12880
1180638;13376
1180646;13792
1180654;14106
1180663;14456
1180672;14660
1180680;14798
1180688;14793
1180696;14890
1180705;14861
1180715;14937
1180724;14946
1180732;14941
1180740;14782
1180749;14814
1180757;14788
1180765;14745
1180773;14622
1180781;14643
1180790;14647
1180798;14637
1180806;14469
1180814;14384
1180822;14313
1180830;14179
1180839;14004
1180847;13925
1180855;13731
1180863;13608
1180871;13446
1180880;13322
1180888;13104
1180896;12961
1180904;12776
1180912;12581
1180921;12228
1180929;12078
1180937;11932
1180945;11925
1180953;11881
1180962;11860
1180970;11788
1180978;11887
1180986;11914
1180997;11843
1181006;11745
1181014;11722
1181022;11668
1181031;11584
1181039;11468
1181048;11461
1181056;11549
1181064;11516
1181072;9434
1181080;5742
1181089;4524
1181097;8776
1181105;14690
1181113;14429
1181121;13451
1181129;12551
1181138;12137
1181146;11846
1181154;11451
1181162;11562
1181170;11396
1181179;11329
1181187;11185
1181195;11140
1181203;11087
1181211;11082
1181220;11116
1181228;11199
1181236;11198
1181244;11101
1181252;11045
1181261;11067
1181269;11064
1181277;11117
1181288;11332
1181296;11699
1181305;11994
1181313;12264
1181321;12435
1181329;12783
1181337;13165
1181346;13566
1181355;13746
1181363;13965
1181371;14302
1181379;14790
1181388;14952
1181396;15145
1181404;15138
1181412;15123
1181420;14956
1181428;14865
1181437;14713
1181445;14722
1181453;14495
1181461;14209
1181469;14082
1181478;13850
1181486;13703
1181494;13545
1181502;13482
1181510;13464
1181519;13524
1181527;13584
1181535;13674
1181543;13657
1181551;13790
1181560;13781
1181571;13692
1181579;13690
1181587;13721
1181595;13791
1181604;13854
1181612;14028
1181620;14157
1181628;14262
1181636;14358
1181645;14450
1181653;14585
1181662;14692
1181670;14840
1181678;14895
1181687;15002
1181695;15024
1181703;15191
1181711;15490
1181719;15047
1181727;12052
1181736;8728
1181744;8412
1181752;14648
1181760;18508
1181768;17857
1181777;17006
1181785;16173
1181793;15527
1181801;15269
1181809;14831
1181818;14809
1181826;14620
1181834;14634
1181842;14334
1181853;14302
1181862;14276
1181870;14217
1181878;14157
1181886;14169
1181894;13804
1181903;13547
1181911;13235
1181919;12990
1181927;12542
1181935;12297
1181944;12056
1181952;12035
1181960;12076
1181968;12089
1181976;12012
1181985;12355
1181994;12708
1182002;13319
1182010;13670
1182018;14187
1182026;14398
1182035;14745
1182043;14703
1182051;14780
1182059;14602
1182067;14524
1182076;14410
1182084;14514
1182092;14319
1182100;14767
1182108;15468
1182117;15912
1182125;15022
1182136;13455
1182144;13206
1182152;13373
1182161;13639
1182169;14043
1182177;13983
1182185;14190
1182193;14055
1182202;14300
1182210;14273
1182218;14195
1182226;13820
1182234;13815
1182243;13758
1182251;13785
1182259;13602
1182267;13749
1182275;13720
1182284;14075
1182292;14150
1182300;14180
1182308;13813
1182317;13738
1182326;13766
1182334;13816
1182342;13379
1182350;13667
1182358;13666
1182366;14148
1182375;12638
1182383;9506
1182391;7653
1182399;9388
1182407;16125
1182416;17261
1182427;16212
1182435;15470
1182443;15080
1182451;14874
1182460;14574
1182468;14382
1182476;14273
1182484;14458
1182492;14221
1182501;14236
1182509;14032
1182517;13773
1182525;13573
1182533;13958
1182542;13414
1182550;13313
1182558;13038
1182566;12886
1182574;12418
1182583;12329
1182591;12066
1182599;12159
1182607;12037
1182615;12192
1182623;11986
1182632;12220
1182640;12531
1182649;13148
1182657;13433
1182665;13965
1182674;14081
1182682;14523
1182690;14462
1182698;14476
1182710;14508
1182718;14691
1182726;14570
1182734;14753
1182742;14456
1182750;14468
1182759;14241
1182767;14136
1182775;13938
1182783;14059
1182791;13954
1182800;13943
1182808;13791
1182816;13875
1182824;13519
1182832;13801
1182841;13757
1182849;13883
1182857;13730
1182865;13821
1182873;13599
1182882;13721
1182890;13439
1182898;13468
1182906;13356
1182914;13352
1182922;13285
1182931;13560
1182939;13569
1182947;13832
1182955;13763
1182964;13849
1182973;13748
1182981;13857
1182991;13811
1182999;13906
1183009;13627
1183017;13672
1183025;13877
1183033;12802
1183041;9545
1183049;6906
1183058;7383
1183066;14503
1183074;16580
1183082;16124
1183090;15061
1183099;14600
1183107;14186
1183115;14015
1183123;13731
1183131;13798
1183140;13670
1183148;13881
1183156;13664
1183164;13632
1183172;13500
1183181;13625
1183189;13444
1183197;13338
1183205;13015
1183213;12976
1183222;12633
1183230;12398
1183238;12019
1183246;11840
1183254;11581
1183262;11593
1183274;11582
1183282;11935
1183290;11965
1183298;12484
1183306;12712
1183315;13315
1183323;13628
1183332;14136
1183340;14256
1183348;14578
1183357;14508
1183365;14663
1183373;14568
1183381;14500
1183389;14231
1183398;14275
1183406;14103
1183414;14132
1183422;14000
1183430;14030
1183439;13782
1183447;13824
1183455;13651
1183463;13605
1183471;13501
1183480;13505
1183488;13402
1183496;13482
1183504;13444
1183512;13469
1183521;13427
1183529;13471
1183537;13427
1183545;13444
1183556;13196
1183565;13216
1183573;13030
1183581;13104
1183589;12917
1183597;13101
1183606;13138
1183614;13312
1183623;13265
1183631;13419
1183639;13413
1183647;13533
1183656;13460
1183664;13563
1183672;13553
1183680;13678
1183688;13467
1183697;13764
1183705;13367
1183713;10867
1183721;6611
1183729;5306
1183738;9997
1183746;15928
1183754;16083
1183762;15296
1183770;14535
1183779;14288
1183787;13914
1183795;13731
1183803;13602
1183811;13493
1183820;13411
1183828;13308
1183836;13239
1183847;13178
1183855;12997
1183864;13010
1183872;12786
1183880;12783
1183888;12588
1183896;12490
1183905;12162
1183913;12008
1183921;11689
1183929;11559
1183937;11471
1183946;11526
1183955;11561
1183963;11753
1183971;11856
1183979;12281
1183987;12739
1183996;13217
1184004;13612
1184012;13968
1184020;14185
1184028;14272
1184037;14247
1184045;14213
1184053;14234
1184061;14182
1184069;14182
1184078;14071
1184086;14058
1184094;13954
1184102;14002
1184110;13969
1184119;14039
1184130;14040
1184138;14059
1184146;14207
1184154;14140
1184163;14226
1184171;14189
1184179;14256
1184187;14186
1184195;14201
1184204;14127
1184212;14060
1184220;14023
1184228;14010
1184236;14021
1184244;13913
1184253;13758
1184261;13548
1184270;13491
1184278;13440
1184286;13455
1184295;13333
1184303;13442
1184311;13517
1184319;13706
1184327;13768
1184336;13873
1184344;13716
1184352;13766
1184360;13656
1184368;13803
1184377;13686
1184385;13716
1184393;13461
1184401;14051
1184412;12490
1184421;8447
1184429;5385
1184437;7101
1184445;14804
1184453;16677
1184462;16035
1184470;15185
1184478;14702
1184486;14364
1184494;14002
1184503;13922
1184511;13729
1184519;13742
1184527;13472
1184535;13388
1184543;13272
1184552;13288
1184560;13129
1184568;13177
1184576;13147
1184584;13205
1184593;13001
1184601;12916
1184610;12509
1184618;12405
1184626;12048
1184635;11976
1184643;11683
1184651;11850
1184659;11832
1184667;12199
1184676;12309
1184684;12905
1184695;13546
1184703;14072
1184711;14343
1184720;14596
1184728;14682
1184736;14778
1184744;14712
1184752;14757
1184761;14640
1184769;14650
1184777;14450
1184785;14431
1184793;14313
1184802;14438
1184810;14289
1184818;14320
1184826;14138
1184834;14216
1184842;14103
1184851;14199
1184859;13988
1184867;14084
1184875;13949
1184883;14150
1184892;13987
1184900;14135
1184908;14043
1184916;14246
1184924;14111
1184934;14332
1184942;14154
1184950;14325
1184958;14099
1184966;14145
1184975;13817
1184985;13974
1184994;13932
1185002;14045
1185010;13979
1185019;14094
1185027;14001
1185035;14161
1185043;14078
1185051;14172
1185060;14091
1185068;14109
1185076;13934
1185084;14054
1185092;13772
1185101;13885
1185109;13863
1185117;13955
1185125;11577
1185133;7388
1185142;5298
1185150;9003
1185158;15908
1185166;16479
1185174;15475
1185182;14692
1185191;14204
1185199;14037
1185207;13570
1185215;13616
1185223;13322
1185232;13297
1185240;13022
1185248;13126
1185256;12922
1185267;13004
1185276;12875
1185284;12841
1185292;12570
1185300;12561
1185308;12292
1185317;12194
1185326;11803
1185334;11640
1185342;11273
1185350;11271
1185359;11073
1185367;11311
1185375;11308
1185383;11717
1185391;11984
1185400;12649
1185408;13004
1185416;13558
1185424;13760
1185432;14182
1185441;14117
1185449;14254
1185457;14202
1185465;14282
1185473;14094
1185481;14205
1185490;14077
1185498;14150
1185506;13921
1185514;14006
1185522;13868
1185531;13967
1185539;13825
1185550;14029
1185558;13917
1185566;14005
1185575;13868
1185583;14064
1185591;13933
1185599;14020
1185607;13895
1185616;14076
1185624;13929
1185633;14003
1185641;13789
1185649;13751
1185658;13473
1185666;13532
1185674;13415
1185682;13550
1185690;13417
1185699;13666
1185707;13661
1185715;13835
1185723;13817
1185731;13903
1185740;13840
1185748;13936
1185756;13819
1185764;13875
1185772;13814
1185780;13835
1185789;13677
1185797;14238
1185805;13440
1185813;10283
1185821;6686
1185833;8010
1185841;15778
1185849;17126
1185857;16275
1185865;15398
1185874;14705
1185882;14351
1185890;13931
1185898;13704
1185906;13562
1185915;13553
1185923;13391
1185931;13364
1185939;13202
1185947;13242
1185957;13002
1185965;12905
1185973;12605
1185981;12711
1185989;12373
1185998;12259
1186006;11838
1186014;11712
1186022;11331
1186030;11213
1186039;11087
1186047;11283
1186055;11263
1186063;11543
1186071;11803
1186079;12346
1186088;12819
1186096;13374
1186104;13693
1186115;14354
1186124;14395
1186132;14557
1186140;14391
1186148;14593
1186156;14355
1186164;14490
1186173;14314
1186181;14384
1186189;14213
1186197;14285
1186205;14093
1186214;14116
1186222;13971
1186230;14074
1186238;13978
1186246;14129
1186255;14077
1186263;14266
1186271;14155
1186279;14260
1186288;14277
1186297;14400
1186305;14269
1186313;14394
1186321;14245
1186329;14270
1186338;14202
1186346;14266
1186354;14255
1186362;14375
1186370;14426
1186378;14678
1186387;14844
1186395;15003
1186406;15113
1186414;15315
1186423;15593
1186431;16055
1186439;15988
1186447;16043
1186455;15775
1186463;16135
1186472;14975
1186480;11925
1186488;8439
1186496;8411
1186504;14794
1186513;18148
1186521;17404
1186529;16437
1186537;15570
1186545;15155
1186554;14514
1186562;14223
1186570;13937
1186578;13800
1186586;13653
1186595;13601
1186603;13496
1186612;13497
1186620;13382
1186628;13318
1186637;13208
1186645;13069
1186653;12922
1186661;12695
1186669;12480
1186678;12191
1186689;11797
1186697;11773
1186705;11749
1186713;12109
1186722;12159
1186730;12223
1186738;12385
1186746;12868
1186754;13255
1186762;13735
1186771;13954
1186779;14161
1186787;14237
1186795;14415
1186803;14447
1186812;14473
1186820;14392
1186828;14186
1186836;13874
1186844;13706
1186853;13701
1186861;13853
1186869;13990
1186877;13923
1186885;13890
1186894;14082
1186902;14911
1186910;15143
1186919;14922
1186927;14546
1186936;14323
1186944;14067
1186952;13906
1186960;13715
1186971;13525
1186980;13537
1186988;13234
1186996;13199
1187004;12983
1187012;12960
1187021;12929
1187029;12977
1187037;12961
1187045;13057
1187053;13095
1187062;13065
1187070;13059
1187078;12972
1187086;12960
1187094;12837
1187102;12714
1187111;12545
1187119;12657
1187127;12598
1187135;13154
1187143;12013
1187152;8728
1187160;5371
1187168;6132
1187176;12920
1187184;15464
1187193;14773
1187201;14054
1187209;13479
1187217;13316
1187225;12813
1187234;12747
1187243;12469
1187253;12471
1187261;12350
1187269;12343
1187278;12258
1187286;12256
1187295;12174
1187303;12123
1187311;12022
1187320;11927
1187328;11698
1187336;11538
1187344;11276
1187352;11159
1187361;10890
1187369;10879
1187377;10758
1187385;10996
1187393;11028
1187401;11412
1187410;11582
1187418;12206
1187426;12555
1187434;13209
1187442;13449
1187451;13884
1187459;13968
1187467;14304
1187475;14225
1187483;14452
1187492;14281
1187500;14491
1187508;14308
1187516;14460
1187524;14168
1187536;14268
1187544;14185
1187552;14307
1187560;14254
1187568;14393
1187577;14224
1187585;14356
1187593;14199
1187602;14373
1187610;14225
1187619;14299
1187627;14135
1187635;14280
1187643;14138
1187651;14345
1187660;14150
1187668;14309
1187676;14048
1187684;14150
1187692;13766
1187700;13908
1187709;13762
1187717;14010
1187725;13894
1187733;14096
1187741;14005
1187750;14260
1187758;14172
1187766;14324
1187774;14078
1187782;14203
1187791;13972
1187799;14081
1187807;13762
1187815;13815
1187826;13938
1187835;13675
1187843;10930
1187851;6961
1187859;5690
1187867;11037
1187876;15843
1187884;15709
1187892;14606
1187900;14232
1187908;13813
1187917;13668
1187926;13308
1187934;13378
1187942;13096
1187950;13147
1187959;12904
1187967;13009
1187975;12774
1187983;12875
1187991;12625
1187999;12741
1188008;12428
1188016;12454
1188024;12109
1188032;12084
1188040;11720
1188049;11678
1188057;11338
1188065;11436
1188073;11269
1188081;11492
1188090;11456
1188098;11801
1188109;12217
1188117;12909
1188125;13139
1188134;13672
1188142;13780
1188150;14138
1188158;14071
1188166;14358
1188175;14258
1188183;14417
1188191;14199
1188199;14358
1188207;14115
1188216;14257
1188224;14071
1188232;14219
1188240;14031
1188248;14198
1188258;14013
1188266;14135
1188274;13897
1188282;14067
1188290;13924
1188298;14068
1188307;13924
1188315;14053
1188323;13906
1188331;13990
1188339;13858
1188348;13981
1188356;13849
1188364;13878
1188372;13683
1188380;13586
1188392;13410
1188400;13703
1188408;13540
1188416;13671
1188424;13528
1188433;13809
1188441;13717
1188449;13979
1188457;13836
1188465;13999
1188474;13816
1188482;13999
1188490;13830
1188498;13940
1188506;13713
1188515;13901
1188523;13938
1188531;12363
1188539;8434
1188547;6382
1188556;9145
1188564;16284
1188572;16529
1188580;15797
1188589;14897
1188598;14723
1188606;14378
1188614;14192
1188622;13933
1188630;13942
1188638;13768
1188647;13708
1188655;13618
1188663;13687
1188674;13526
1188682;13651
1188691;13329
1188699;13324
1188707;12928
1188715;12917
1188723;12527
1188732;12416
1188740;11961
1188748;11827
1188756;11531
1188764;11664
1188773;11626
1188781;11920
1188789;12041
1188797;12498
1188805;12777
1188814;13303
1188822;13560
1188830;13943
1188838;14092
1188846;14342
1188855;14295
1188863;14339
1188871;14270
1188879;14366
1188887;14302
1188897;14347
1188905;14289
1188913;14298
1188921;14258
1188929;14295
1188937;14269
1188946;14235
1188957;14158
1188965;14334
1188973;14155
1188982;14250
1188990;14080
1188998;14191
1189006;14021
1189014;14082
1189022;13891
1189031;13813
1189039;13558
1189047;13682
1189055;13577
1189063;13690
1189072;13679
1189080;13746
1189088;13542
1189096;13539
1189104;13487
1189113;13549
1189121;13499
1189129;13619
1189137;13680
1189145;13717
1189154;13679
1189162;13667
1189170;13834
1189178;13743
1189186;11725
1189194;8210
1189203;6880
1189212;10958
1189220;16978
1189228;16684
1189236;15968
1189247;14979
1189255;14627
1189264;14414
1189272;14038
1189281;13988
1189289;13894
1189297;14082
1189305;14150
1189313;14363
1189321;14400
1189330;14447
1189338;14373
1189346;14349
1189354;14231
1189362;14132
1189371;13920
1189379;13735
1189387;13475
1189395;13206
1189403;13015
1189412;12895
1189420;12909
1189428;13014
1189436;13122
1189444;13366
1189453;13744
1189461;14189
1189469;14605
1189477;14943
1189485;15181
1189494;15275
1189502;15349
1189510;15321
1189518;15432
1189529;15442
1189538;15346
1189546;15328
1189554;15215
1189562;15184
1189570;15039
1189580;14959
1189588;14865
1189596;14753
1189604;14626
1189612;14596
1189620;14552
1189629;14429
1189637;14430
1189645;14359
1189653;14379
1189661;14324
1189670;14353
1189678;14222
1189686;14198
1189694;14006
1189702;13988
1189711;13726
1189719;13751
1189727;13577
1189735;13689
1189743;13582
1189752;13746
1189760;13633
1189768;13807
1189776;13676
1189784;13792
1189793;13599
1189801;13702
1189812;13572
1189820;13409
1189828;13344
1189837;13490
1189845;13538
1189853;11646
1189861;7943
1189869;5928
1189878;9089
1189886;15634
1189895;15869
1189903;15153
1189911;14309
1189919;14094
1189928;13670
1189936;13488
1189944;13250
1189952;13260
1189960;13122
1189969;13242
1189977;13043
1189985;13102
1189993;12884
1190001;12920
1190010;12654
1190018;12647
1190026;12388
1190034;12414
1190042;12054
1190051;11981
1190059;11571
1190067;11561
1190075;11234
1190083;11405
1190095;11440
1190103;11662
1190111;11876
1190119;12291
1190127;12686
1190136;13222
1190144;13468
1190152;13847
1190160;13974
1190168;14218
1190177;14191
1190185;14406
1190193;14321
1190201;14423
1190209;14244
1190218;14331
1190227;14136
1190235;14234
1190243;13978
1190251;14020
1190259;13779
1190268;13893
1190276;13695
1190284;13852
1190292;13626
1190300;13841
1190309;13619
1190317;13798
1190325;13597
1190333;13789
1190341;13598
1190350;13767
1190358;13542
1190366;13725
1190377;13546
1190385;13573
1190394;13249
1190402;13320
1190410;13112
1190418;13184
1190426;12934
1190435;13012
1190443;12881
1190451;13083
1190459;13036
1190467;13164
1190476;13003
1190484;13143
1190492;12984
1190500;13130
1190508;12857
1190516;12886
1190525;12638
1190533;12872
1190542;10949
1190550;7429
1190558;5006
1190567;7683
1190575;14275
1190583;15197
1190591;14243
1190599;13665
1190608;13183
1190616;12982
1190624;12570
1190632;12630
1190640;12380
1190649;12501
1190657;12322
1190668;12551
1190676;12391
1190684;12486
1190693;12268
1190701;12266
1190709;12016
1190717;11968
1190725;11789
1190734;11661
1190742;11278
1190750;11279
1190758;11053
1190766;11293
1190775;11259
1190783;11535
1190791;11552
1190799;11926
1190807;12087
1190815;12717
1190824;12939
1190832;13594
1190840;13743
1190848;14176
1190856;14234
1190865;14544
1190874;14443
1190882;14631
1190890;14404
1190898;14466
1190907;14209
1190915;14270
1190923;14012
1190931;14052
1190939;13808
1190951;14012
1190959;13867
1190967;13998
1190975;13836
1190983;13975
1190992;13833
1191000;13957
1191008;13768
1191016;13953
1191024;13811
1191033;14008
1191041;13889
1191049;14070
1191057;13879
1191065;13914
1191074;13599
1191082;13414
1191090;13157
1191098;13259
1191106;13077
1191114;13187
1191123;13000
1191131;13295
1191139;13251
1191147;13552
1191155;13405
1191164;13680
1191172;13633
1191181;13862
1191189;13794
1191197;14025
1191206;13926
1191214;14077
1191222;14322
1191233;13084
1191241;9444
1191250;7924
1191258;10183
1191266;17296
1191274;17816
1191282;16835
1191291;15406
1191299;15030
1191307;14619
1191315;14559
1191323;14190
1191332;14268
1191340;14026
1191348;14118
1191356;13893
1191364;13981
1191373;13739
1191381;13845
1191389;13600
1191397;13662
1191405;13344
1191414;13252
1191422;12823
1191430;12832
1191438;12388
1191446;12186
1191454;11843
1191463;11958
1191471;11928
1191479;12063
1191487;12050
1191496;12432
1191505;12594
1191515;13306
1191523;13606
1191531;14067
1191540;14172
1191549;14522
1191557;14511
1191565;14768
1191573;14573
1191581;14793
1191590;14601
1191598;14731
1191606;14520
1191614;14705
1191622;14485
1191631;14604
1191639;14475
1191647;14564
1191655;14376
1191663;14466
1191672;14316
1191680;14458
1191688;14387
1191696;14490
1191704;14305
1191713;14247
1191721;13959
1191729;14013
1191737;13948
1191745;14047
1191753;13987
1191762;14166
1191770;14194
1191778;14424
1191786;14410
1191798;14578
1191806;14440
1191814;14563
1191822;14387
1191830;14577
1191838;14444
1191847;14587
1191856;14317
1191864;14690
1191872;13929
1191880;11524
1191889;8617
1191897;8956
1191905;14644
1191913;18107
1191921;17202
1191930;16290
1191938;15214
1191946;15029
1191954;14729
1191962;14425
1191971;14147
1191979;14156
1191987;13977
1191995;13877
1192003;13665
1192012;13564
1192020;13297
1192028;13131
1192036;12977
1192044;12917
1192052;12721
1192061;12587
1192069;12403
1192077;12275
1192088;11960
1192097;11842
1192105;11649
1192113;11853
1192121;11826
1192129;12309
1192137;12625
1192146;13247
1192154;13548
1192162;14102
1192170;14577
1192179;14873
1192188;14842
1192196;14852
1192204;14840
1192212;14817
1192220;14828
1192229;14827
1192237;14785
1192245;14625
1192253;14671
1192261;14803
1192270;14842
1192278;14736
1192286;14654
1192294;14564
1192302;14526
1192311;14381
1192319;14349
1192327;14234
1192335;14347
1192343;14310
1192351;14422
1192360;14254
1192371;14174
1192379;14018
1192387;13737
1192396;13528
1192404;13444
1192412;13349
1192420;13305
1192428;13294
1192436;13408
1192445;13515
1192453;13555
1192461;13566
1192469;13582
1192477;13476
1192486;13503
1192495;13334
1192503;13284
1192511;13048
1192519;13379
1192528;12252
1192536;9238
1192544;5940
1192552;6630
1192560;12917
1192569;15705
1192577;14979
1192585;14087
1192593;13456
1192601;13353
1192610;12924
1192618;12928
1192626;12716
1192634;12860
1192642;12632
1192654;12730
1192662;12611
1192670;12576
1192678;12365
1192686;12346
1192695;12147
1192703;12186
1192711;11899
1192719;11842
1192727;11524
1192735;11363
1192744;11058
1192752;10997
1192760;11003
1192768;11173
1192776;11332
1192785;11573
1192793;11932
1192801;12471
1192809;12983
1192817;13436
1192827;13615
1192835;13876
1192843;14010
1192851;14282
1192859;14245
1192868;14383
1192876;14241
1192884;14344
1192892;14225
1192900;14360
1192909;14241
1192917;14367
1192925;14171
1192936;14221
1192944;14299
1192953;14256
1192961;14234
1192969;14205
1192977;14154
1192985;14143
1192994;14072
1193002;14123
1193010;14073
1193018;14155
1193026;14039
1193034;14067
1193043;13782
1193051;13793
1193059;13694
1193067;13919
1193075;13814
1193084;13940
1193092;13818
1193100;14093
1193108;14016
1193116;14214
1193125;14056
1193133;14208
1193141;13991
1193150;14128
1193158;13871
1193167;14003
1193175;13780
1193183;14199
1193191;13577
1193199;11774
1193208;8244
1193219;8990
1193227;15119
1193235;17098
1193243;16094
1193252;15148
1193260;14695
1193268;14493
1193276;14067
1193284;14020
1193293;13732
1193301;13742
1193309;13516
1193317;13554
1193325;13306
1193334;13404
1193342;13072
1193350;13169
1193358;12863
1193366;12901
1193374;12522
1193383;12552
1193391;12113
1193399;12044
1193407;11559
1193415;11600
1193424;11353
1193432;11589
1193440;11470
1193448;11806
1193456;11841
1193466;12462
1193474;12709
1193482;13375
1193490;13497
1193498;13979
1193509;14135
1193518;14435
1193526;14260
1193534;14452
1193542;14218
1193551;14357
1193559;14076
1193567;14278
1193575;14076
1193583;14243
1193592;14045
1193600;14298
1193608;14072
1193616;14293
1193624;14054
1193633;14328
1193641;14009
1193649;14307
1193657;14014
1193665;14413
1193673;14119
1193682;14481
1193690;14163
1193698;14525
1193706;14185
1193714;14370
1193723;13944
1193731;14313
1193739;14129
1193747;14530
1193755;14353
1193764;14739
1193772;14647
1193781;15168
1193791;15177
1193799;15327
1193808;14951
1193817;15035
1193825;14654
1193833;14764
1193841;14396
1193850;14437
1193858;14292
1193866;14084
1193874;11789
1193882;8570
1193891;7555
1193899;12407
1193907;16565
1193915;16348
1193923;14967
1193932;14537
1193940;14041
1193948;13876
1193956;13510
1193964;13619
1193972;13339
1193981;13460
1193989;13247
1193997;13375
1194005;13109
1194013;13198
1194022;12958
1194030;12992
1194038;12672
1194046;12628
1194054;12280
1194063;12221
1194074;11769
1194082;11815
1194090;11417
1194098;11531
1194107;11294
1194115;11599
1194123;11497
1194131;11956
1194140;12128
1194149;12773
1194157;12971
1194165;13567
1194173;13627
1194181;14013
1194190;13902
1194198;14108
1194206;13922
1194214;14086
1194222;13845
1194231;13941
1194239;13756
1194247;13892
1194255;13719
1194263;13861
1194271;13716
1194280;13858
1194288;13719
1194296;13859
1194304;13712
1194312;13831
1194321;13709
1194329;13810
1194337;13705
1194345;13783
1194356;13729
1194365;13968
1194373;13720
1194381;13854
1194389;13507
1194397;13543
1194406;13186
1194414;13372
1194422;13197
1194430;13415
1194438;13245
1194448;13490
1194456;13373
1194464;13671
1194472;13542
1194480;13724
1194489;13493
1194497;13682
1194505;13516
1194513;13625
1194521;13449
1194530;13522
1194538;13496
1194546;13242
1194554;11244
1194562;8128
1194570;7266
1194579;11956
1194587;16684
1194595;16271
1194603;15149
1194611;14407
1194620;14150
1194628;13855
1194639;13654
1194647;13855
1194655;13514
1194664;13657
1194672;13429
1194680;13569
1194688;13327
1194696;13423
1194705;13159
1194713;13193
1194721;12906
1194729;12898
1194737;12543
1194746;12408
1194754;12014
1194762;11884
1194771;11617
1194779;11650
1194788;11603
1194796;11799
1194804;11975
1194812;12266
1194820;12644
1194829;13040
1194837;13477
1194845;13897
1194853;14253
1194861;14361
1194870;14527
1194878;14505
1194886;14638
1194894;14528
1194902;14670
1194910;14540
1194919;14629
1194930;14660
1194938;14474
1194946;14546
1194954;14376
1194963;14467
1194971;14270
1194979;14336
1194987;14197
1194995;14218
1195004;14138
1195012;14167
1195020;14059
1195028;14069
1195036;13926
1195045;13807
1195053;13668
1195061;13636
1195069;13668
1195077;13671
1195086;13781
1195094;13797
1195103;13955
1195111;13856
1195119;13979
1195128;13842
1195136;13953
1195144;13787
1195152;13959
1195160;13761
1195169;13942
1195177;13641
1195185;14011
1195193;12887
1195201;10474
1195221;10695
1195229;17076
1195237;17100
1195245;16120
1195254;15012
1195262;14419
1195270;14090
1195278;13766
1195286;13621
1195294;13434
1195303;13554
1195311;13377
1195319;13018
1195327;12701
1195335;12793
1195344;12668
1195352;12773
1195360;12591
1195368;12637
1195376;12268
1195385;12258
1195393;11884
1195401;11908
1195409;11530
1195418;11698
1195427;11651
1195435;12150
1195443;12093
1195451;12558
1195459;12625
1195468;13383
1195476;13444
1195484;14041
1195492;14039
1195503;14557
1195512;14713
1195520;14775
1195528;14746
1195536;14812
1195544;14675
1195553;14728
1195561;14548
1195569;14623
1195577;14414
1195585;14402
1195593;14226
1195602;14335
1195610;14148
1195618;14282
1195626;14057
1195634;14286
1195643;14030
1195651;14147
1195659;13916
1195667;14136
1195675;13885
1195684;13986
1195692;13590
1195700;13669
1195708;13401
1195716;13652
1195725;13443
1195734;13744
1195742;13655
1195750;14057
1195758;13934
1195767;14293
1195775;14037
1195786;14322
1195794;14246
1195802;14289
1195811;14102
1195819;14129
1195827;14179
1195835;13702
1195843;11204
1195852;8318
1195860;7888
1195868;13450
1195876;17224
1195884;16981
1195892;15706
1195901;15092
1195909;14457
1195917;14429
1195925;14064
1195933;14150
1195942;13843
1195950;14008
1195958;13659
1195966;13990
1195974;13866
1195983;13662
1195991;12935
1195999;13061
1196007;12880
1196015;13011
1196024;12513
1196032;12570
1196040;12156
1196049;12265
1196057;11672
1196068;11749
1196076;11574
1196084;11908
1196092;11949
1196101;12456
1196110;12772
1196118;13346
1196126;13405
1196134;13868
1196142;13963
1196151;14313
1196159;14111
1196167;14411
1196175;14226
1196183;14454
1196191;14230
1196200;14443
1196208;14241
1196216;14498
1196224;14123
1196232;14364
1196241;14000
1196249;14102
1196257;13853
1196265;14063
1196273;13977
1196282;14088
1196290;13686
1196298;13865
1196306;13706
1196314;13908
1196323;13732
1196331;14066
1196339;13715
1196350;13697
1196358;13439
1196367;13590
1196375;13360
1196383;13516
1196391;13290
1196399;13524
1196408;13199
1196417;13567
1196425;13463
1196433;13655
1196441;13447
1196450;13726
1196458;13422
1196466;13557
1196474;13291
1196482;13473
1196490;13095
1196499;13569
1196507;12023
1196515;9052
1196523;6163
1196531;7861
1196540;14199
1196548;16095
1196556;15059
1196564;14562
1196572;13948
1196581;13654
1196589;13212
1196597;13436
1196605;13156
1196613;13337
1196622;13107
1196630;13197
1196641;12930
1196649;13137
1196657;12808
1196666;13002
1196674;12610
1196682;12785
1196690;12293
1196698;12344
1196707;11923
1196715;11994
1196723;11565
1196732;11736
1196740;11522
1196749;11804
1196757;11678
1196765;12159
1196773;12261
1196781;12916
1196790;13004
1196798;13515
1196806;13659
1196814;14047
1196822;14018
1196830;14320
1196839;14163
1196847;14358
1196855;14150
1196863;14286
1196871;14052
1196880;14136
1196888;13910
1196896;14032
1196904;13877
1196912;13987
1196924;13895
1196932;14161
1196940;13848
1196948;14139
1196956;13912
1196965;14151
1196973;13939
1196981;14028
1196989;13703
1196997;13980
1197006;13682
1197014;13736
1197022;13290
1197030;13403
1197038;13279
1197048;13496
1197056;13262
1197064;13496
1197072;13328
1197080;13623
1197089;13638
1197097;13772
1197105;13594
1197113;13727
1197121;13527
1197129;13669
1197138;13515
1197146;13516
1197154;13416
1197162;13457
1197170;11750
1197179;8477
1197187;6751
1197195;9927
1197206;16165
1197214;15958
1197223;14767
1197231;14495
1197239;13898
1197247;13809
1197255;13494
1197264;13513
1197272;13259
1197280;13387
1197288;13159
1197296;13250
1197305;13009
1197313;13098
1197321;12872
1197329;12952
1197337;12664
1197346;12626
1197354;12318
1197362;12231
1197370;11928
1197379;11847
1197388;11656
1197396;11714
1197404;11792
1197412;12043
1197420;12146
1197428;12450
1197437;12754
1197445;13187
1197453;13532
1197461;13870
1197469;14130
1197478;14274
1197489;14404
1197497;14669
1197505;14456
1197513;14561
1197522;14331
1197530;14412
1197538;14187
1197546;14320
1197554;14143
1197563;14280
1197571;14103
1197579;14183
1197587;14062
1197595;14164
1197604;14057
1197612;14117
1197620;14019
1197628;14064
1197636;14021
1197645;14024
1197653;13977
1197661;14074
1197669;13956
1197677;13793
1197686;13571
1197694;13488
1197703;13466
1197711;13405
1197719;13445
1197727;13361
1197736;13472
1197744;13527
1197752;13694
1197760;13603
1197772;13615
1197780;13792
1197788;13640
1197796;13729
1197804;13577
1197812;13586
1197821;13490
1197829;13194
1197837;11159
1197845;8129
1197853;7173
1197862;11799
1197870;16322
1197878;15953
1197886;14850
1197894;14244
1197903;13916
1197911;13593
1197919;13464
1197927;13364
1197935;13325
1197944;13198
1197952;13215
1197960;13116
1197968;13143
1197976;13037
1197985;13060
1197993;12839
1198001;12791
1198009;12536
1198017;12478
1198026;12142
1198035;12108
1198043;11746
1198051;11773
1198061;11794
1198070;11845
1198079;11988
1198087;12111
1198095;12370
1198103;12614
1198111;12978
1198120;13350
1198128;13654
1198136;13947
1198144;14120
1198152;14264
1198161;14293
1198169;14351
1198177;14237
1198185;14283
1198193;14153
1198202;14183
1198210;14008
1198218;14086
1198226;13944
1198234;14032
1198243;13923
1198251;14103
1198259;13981
1198267;14111
1198275;13941
1198284;14064
1198292;13908
1198300;14093
1198308;13892
1198316;14097
1198324;13905
1198333;13998
1198344;13785
1198352;13665
1198360;13609
1198369;13626
1198378;13612
1198386;13619
1198394;13627
1198402;13745
1198410;13809
1198419;13969
1198427;13853
1198435;13916
1198443;13837
1198451;13947
1198460;13794
1198468;13915
1198476;13681
1198484;14069
1198492;13241
1198501;10856
1198509;7569
1198517;7418
1198525;13627
1198533;17123
1198542;16128
1198550;15236
1198558;14479
1198566;14357
1198574;13870
1198583;13951
1198591;13645
1198599;13764
1198607;13438
1198615;13605
1198627;13380
1198635;13425
1198643;13262
1198651;13242
1198659;12963
1198668;12862
1198676;12588
1198684;12514
1198693;12154
1198701;12129
1198710;11834
1198718;11899
1198726;11800
1198734;12056
1198742;12024
1198750;12382
1198759;12365
1198767;12806
1198775;12924
1198783;13448
1198791;13560
1198800;13926
1198808;13846
1198816;14151
1198824;13986
1198832;14173
1198841;13872
1198849;14032
1198857;13754
1198865;13951
1198873;13726
1198882;13984
1198890;13755
1198898;13998
1198909;13905
1198917;14114
1198926;13978
1198934;14085
1198942;13924
1198950;14093
1198958;14009
1198967;14237
1198975;14040
1198983;14181
1198991;13857
1198999;13896
1199009;13621
1199017;13764
1199025;13543
1199033;13795
1199041;13676
1199049;13976
1199058;13793
1199066;14098
1199074;13880
1199082;14113
1199090;13907
1199099;14108
1199107;13823
1199115;14047
1199123;13821
1199131;14254
1199140;12454
1199148;9310
1199156;7275
1199164;10297
1199172;16979
1199181;17276
1199189;15964
1199200;15009
1199208;14551
1199216;14338
1199225;13883
1199233;13902
1199241;13669
1199249;13744
1199257;13491
1199266;13540
1199274;13244
1199282;13294
1199290;13028
1199298;13112
1199306;12876
1199315;12903
1199323;12572
1199331;12566
1199340;12177
1199348;12213
1199357;11915
1199365;12147
1199373;12029
1199381;12379
1199389;12313
1199398;12745
1199406;12775
1199414;13277
1199422;13450
1199430;13974
1199439;14028
1199447;14447
1199455;14426
1199463;14663
1199471;14465
1199483;14776
1199491;14536
1199499;14715
1199507;14398
1199515;14557
1199524;14228
1199532;14340
1199540;14064
1199548;14298
1199556;14100
1199565;14345
1199573;14181
1199581;14411
1199589;14135
1199597;14294
1199606;13864
1199614;13946
1199622;13738
1199630;13965
1199638;13802
1199646;14061
1199656;13960
1199664;14260
1199672;14143
1199680;14320
1199688;14091
1199697;14200
1199705;13961
1199713;14086
1199721;13824
1199729;13885
1199738;13631
1199746;13940
1199754;12520
1199765;8823
1199773;7952
1199782;11631
1199790;17183
1199798;16879
1199806;15571
1199814;14842
1199823;14111
1199831;14037
1199839;13526
1199847;13573
1199855;13201
1199864;13282
1199872;13028
1199880;13109
1199888;12824
1199896;12904
1199905;12600
1199913;12643
1199921;12328
1199929;12318
1199937;12023
1199945;11972
1199954;11653
1199962;11628
1199970;11372
1199978;11516
1199987;11495
1199996;11775
1200004;11863
1200012;12109
1200020;12315
1200028;12691
1200037;12993
1200048;13627
1200056;13686
1200064;14081
1200072;14032
1200081;14301
1200089;14125
1200097;14294
1200105;14024
1200113;14157
1200122;13937
1200130;14060
1200138;13863
1200146;13989
1200154;13839
1200163;13965
1200171;13780
1200179;13976
1200187;13841
1200195;13894
1200204;13754
1200212;13749
1200220;13551
1200228;13536
1200236;13433
1200244;13500
1200253;13524
1200261;13682
1200269;13741
1200277;13890
1200285;13899
1200295;13893
1200303;13845
1200311;13822
1200319;13796
1200329;13828
1200338;13616
1200347;13668
1200355;13566
1200363;12172
1200371;8914
1200380;7531
1200388;9508
1200396;16295
1200404;16505
1200412;15671
1200421;14648
1200429;14269
1200437;13982
1200445;13829
1200453;13654
1200462;13630
1200470;13485
1200478;13456
1200486;13321
1200494;13271
1200503;13142
1200511;13033
1200519;12954
1200527;12823
1200535;12641
1200543;12455
1200552;12278
1200560;11989
1200568;11812
1200576;11632
1200584;11641
1200593;11644
1200601;11855
1200609;11993
1200620;12342
1200628;12847
