Tempo (ms);Valor
120072;15543
120080;15433
120088;15228
120097;15041
120105;14973
120113;14823
120121;14780
120129;14701
120137;14670
120146;14632
120154;14591
120162;14486
120170;14552
120178;14487
120187;14524
120195;14385
120203;14246
120211;13982
120219;14026
120228;13883
120237;13954
120245;13919
120253;14068
120261;14037
120270;14186
120278;14062
120286;14169
120294;14107
120302;14226
120311;14124
120319;14175
120327;14033
120335;14080
120343;14601
120351;13476
120360;9358
120371;5074
120379;8150
120387;15239
120396;16111
120404;15677
120412;15037
120420;14859
120428;14430
120436;14396
120445;14241
120453;14309
120461;14180
120469;14224
120477;14067
120486;14074
120494;13868
120502;13851
120510;13668
120518;13654
120527;13409
120535;13334
120543;13006
120551;12836
120559;12514
120568;12486
120576;12305
120584;12417
120592;12375
120600;12632
120609;12804
120617;13278
120625;13609
120633;14042
120641;14265
120649;14548
120658;14566
120666;14661
120677;14644
120685;14779
120694;14662
120702;14678
120710;14530
120718;14549
120726;14383
120734;14480
120743;14331
120751;14360
120759;14276
120767;14348
120775;14260
120784;14366
120792;14268
120800;14350
120808;14252
120816;14362
120825;14219
120833;14272
120841;14180
120849;14293
120857;14159
120866;14097
120874;13862
120882;13787
120890;13730
120898;13767
120906;13744
120915;13731
120923;13739
120931;13872
120939;14007
120947;14066
120956;14051
120964;14090
120975;14137
120983;14259
120991;14108
121000;14154
121008;14377
121016;14584
121024;12037
121032;7558
121041;5084
121049;8846
121057;15319
121065;15926
121073;15231
121082;14732
121090;14405
121098;14128
121106;13931
121114;13886
121123;13835
121131;13819
121139;13787
121147;13724
121155;13682
121164;13622
121172;13575
121180;13444
121188;13396
121196;13193
121204;13023
121213;12735
121221;12570
121229;12260
121237;12130
121245;12059
121254;12204
121262;12310
121270;12555
121281;12979
121289;13468
121298;13917
121306;14306
121314;14622
121322;14779
121330;14888
121339;14974
121347;14998
121355;15061
121363;15082
121371;15103
121380;15070
121388;15092
121396;15028
121404;14957
121412;14907
121421;15002
121429;14930
121437;14934
121445;14865
121453;14946
121462;14942
121470;15037
121478;15037
121486;15191
121494;15183
121502;15257
121511;15164
121519;15157
121527;15004
121535;15080
121543;14976
121552;15103
121560;15141
121568;15351
121576;15378
121587;15640
121596;15686
121604;15658
121612;15553
121620;15535
121628;15343
121637;15341
121645;15195
121653;15284
121661;15657
121669;13936
121678;9640
121686;6781
121694;9285
121702;16924
121710;17455
121719;16911
121727;16153
121735;15821
121743;15511
121751;15238
121759;14969
121768;14793
121776;14457
121784;14245
121792;13828
121800;13578
121809;13212
121817;13043
121825;12899
121833;12906
121841;12784
121850;12765
121858;12589
121866;12418
121874;12111
121885;11890
121894;11715
121902;11726
121910;11733
121918;11978
121926;12099
121935;12449
121943;12768
121951;13149
121959;13328
121967;13512
121976;13550
121984;13654
121992;13655
122000;13708
122008;13697
122017;13777
122025;13723
122033;13795
122041;13704
122049;13741
122057;13723
122066;13797
122074;13818
122082;13870
122090;13925
122098;14082
122107;14171
122115;14287
122123;14271
122131;14296
122139;14151
122148;14092
122156;13982
122164;13961
122172;13931
122180;13987
122192;14063
122200;14337
122208;14186
122216;14269
122224;14100
122233;14213
122241;14073
122249;14227
122257;14055
122265;14111
122274;13968
122282;14277
122290;14322
122298;12073
122306;8109
122314;6713
122323;10553
122331;16934
122339;16745
122347;16068
122355;15308
122364;14787
122372;14454
122380;14118
122388;13939
122396;13828
122405;13753
122413;13637
122421;13645
122429;13553
122437;13490
122446;13296
122454;13204
122462;12981
122470;12873
122478;12528
122487;12316
122498;12055
122506;11828
122514;11683
122522;11600
122531;11751
122539;11897
122547;12159
122555;12502
122563;12979
122572;13489
122580;13895
122588;14190
122596;14348
122604;14524
122612;14537
122621;14614
122629;14565
122637;14584
122645;14482
122653;14486
122662;14304
122670;14300
122678;14146
122686;14184
122694;14047
122703;14106
122711;13966
122719;14103
122727;13999
122735;14166
122744;14092
122752;14235
122760;14115
122768;14219
122776;14061
122785;14039
122796;13868
122804;13911
122812;13853
122820;13906
122829;14003
122837;14223
122845;14303
122853;14497
122861;14480
122870;14580
122878;14524
122886;14598
122894;14449
122902;14487
122910;14298
122919;14277
122927;14669
122935;14197
122943;10857
122951;6870
122960;5695
122968;12280
122976;16416
122984;16330
122992;15503
123001;15074
123009;14683
123017;14479
123025;14143
123033;14157
123042;13964
123050;14000
123058;13809
123066;13826
123074;13646
123082;13695
123091;13556
123102;13628
123110;13474
123118;13376
123127;13016
123135;12904
123143;12534
123151;12487
123159;12287
123167;12468
123176;12450
123184;12747
123192;12866
123200;13349
123208;13665
123217;14199
123225;14436
123233;14829
123241;14861
123249;15046
123258;14910
123266;15006
123274;14842
123282;14861
123290;14730
123299;14815
123307;14651
123315;14664
123323;14537
123331;14523
123340;14367
123348;14392
123356;14260
123364;14273
123372;14184
123380;14226
123390;14230
123400;14417
123408;14429
123416;14562
123425;14528
123433;14665
123441;14510
123449;14495
123457;14133
123465;14128
123474;14050
123483;14183
123491;14100
123499;14249
123507;14177
123516;14358
123524;14306
123532;14343
123540;14238
123548;14277
123557;14185
123565;14275
123573;14230
123581;14266
123589;14908
123598;14337
123606;10916
123614;6209
123622;5121
123630;11702
123639;16253
123647;16286
123655;15613
123663;15271
123671;14967
123679;14615
123688;14409
123696;14198
123707;14032
123715;14093
123724;13846
123732;13806
123740;13577
123748;13532
123756;13334
123764;13265
123773;13070
123781;12937
123789;12665
123797;12387
123805;12072
123814;11885
123822;11763
123830;11755
123838;11833
123846;11992
123855;12327
123863;12779
123871;13294
123879;13751
123887;14173
123896;14367
123904;14556
123912;14594
123920;14699
123928;14551
123937;14568
123945;14433
123953;14471
123961;14311
123969;14353
123977;14189
123986;14259
123994;14012
124002;14034
124013;13938
124022;13959
124030;13889
124038;13859
124046;13835
124054;13887
124062;13859
124071;13906
124079;13885
124087;13897
124095;13842
124103;13934
124112;13948
124120;14077
124128;13895
124136;13872
124144;13679
124153;13846
124161;13751
124169;13832
124177;13666
124185;13823
124194;13794
124202;14047
124210;13943
124218;14087
124226;13915
124234;14056
124243;13901
124251;14017
124259;13779
124267;13835
124275;14052
124284;14020
124292;11289
124300;6953
124311;5545
124319;12900
124328;15922
124336;15715
124344;14995
124352;14958
124360;14587
124369;14507
124377;14280
124385;14419
124393;14238
124401;14322
124410;14046
124418;14153
124426;13923
124434;14015
124442;13786
124451;13863
124459;13532
124467;13540
124475;13194
124483;13111
124492;12662
124500;12589
124508;12253
124516;12410
124524;12289
124532;12518
124541;12582
124549;13032
124557;13316
124565;13917
124573;14191
124582;14579
124590;14631
124598;14884
124606;14824
124617;14987
124626;14840
124634;14996
124642;14790
124650;14935
124658;14785
124667;14941
124675;14780
124683;14959
124691;14757
124699;14881
124708;14669
124716;14814
124724;14624
124732;14773
124740;14625
124749;14742
124757;14593
124765;14755
124773;14630
124781;14674
124790;14499
124798;14556
124806;14402
124814;14469
124822;14376
124830;14411
124839;14315
124847;14386
124855;14241
124863;14143
124871;13947
124880;13893
124888;13847
124896;13920
124904;13970
124912;13942
124924;14060
124932;14344
124940;14266
124948;14369
124956;14247
124965;14304
124973;14201
124981;14226
124989;14046
124997;13981
125006;14191
125014;14242
125022;11850
125030;7571
125038;5395
125047;9734
125055;15775
125063;16122
125071;15366
125079;14911
125087;14752
125096;14464
125104;14325
125112;14202
125120;14195
125128;14049
125137;14077
125145;13966
125153;13971
125161;13804
125169;13781
125178;13567
125186;13556
125194;13307
125202;13196
125210;12842
125222;12587
125230;12434
125238;12235
125246;12166
125254;12157
125263;12269
125271;12465
125279;12718
125287;13104
125295;13484
125304;13960
125312;14306
125320;14589
125328;14664
125336;14795
125345;14720
125353;14791
125361;14681
125369;14699
125377;14489
125385;14564
125394;14460
125402;14526
125410;14392
125418;14545
125426;14479
125435;14578
125443;14384
125451;14532
125459;14362
125467;14452
125476;14288
125484;14438
125492;14260
125500;14367
125508;14185
125517;14272
125528;14196
125536;14308
125544;14251
125552;14270
125561;14126
125569;14198
125577;14105
125585;14184
125593;14132
125602;14121
125610;13879
125618;13809
125626;13624
125634;13723
125642;13613
125651;13720
125659;13596
125667;13823
125675;13772
125683;14020
125692;13934
125700;14058
125708;13854
125716;13991
125724;13833
125733;13911
125741;13670
125749;14250
125757;13760
125765;11166
125774;6891
125782;5611
125790;11335
125798;16138
125806;15797
125815;15182
125823;14747
125834;14728
125842;14444
125850;14426
125859;14181
125867;14269
125875;14104
125883;14159
125891;13970
125900;14030
125908;13821
125916;13842
125924;13590
125932;13625
125940;13288
125949;13240
125957;12799
125965;12650
125973;12235
125981;12228
125990;12042
125998;12277
126007;12262
126015;12602
126023;12749
126032;13247
126040;13511
126048;14002
126056;14190
126064;14478
126073;14531
126081;14729
126089;14711
126097;14827
126105;14774
126114;14783
126122;14627
126133;14736
126141;14589
126149;14682
126158;14497
126166;14595
126174;14378
126182;14456
126190;14237
126199;14369
126207;14161
126215;14296
126223;14188
126231;14375
126239;14301
126248;14485
126256;14384
126264;14520
126272;14452
126280;14643
126289;14586
126297;14696
126305;14593
126313;14559
126321;14346
126330;14111
126338;13874
126346;13844
126354;13833
126362;13888
126371;13885
126379;13963
126387;14062
126395;14128
126403;14200
126412;14157
126420;14143
126428;14086
126439;14127
126447;14260
126456;14094
126464;14405
126472;14195
126480;11919
126488;7735
126497;5809
126505;10464
126513;16228
126521;16055
126529;15334
126537;14772
126546;14642
126554;14318
126562;14178
126570;14123
126578;14018
126587;13898
126595;13748
126603;13673
126611;13527
126619;13450
126628;13297
126636;13268
126644;13093
126652;12993
126660;12713
126669;12578
126677;12230
126685;12137
126693;11860
126701;11890
126710;11782
126718;12015
126726;12072
126734;12413
126745;12889
126754;13367
126762;13680
126770;13995
126778;14209
126786;14427
126794;14499
126803;14617
126811;14605
126819;14671
126827;14580
126835;14607
126844;14495
126852;14494
126860;14326
126868;14323
126876;14148
126885;14239
126893;14079
126901;14121
126909;13972
126917;14117
126926;13998
126934;14119
126942;13965
126950;14070
126958;13969
126967;14123
126975;13984
126983;14099
126991;13865
126999;13916
127007;13602
127016;13618
127024;13443
127032;13573
127043;13565
127052;13801
127060;13781
127068;13879
127076;13813
127084;13891
127092;13699
127101;13856
127109;13777
127117;13921
127125;13770
127133;13830
127142;14315
127150;13658
127158;10188
127166;6664
127174;6095
127183;13692
127191;16448
127199;15965
127207;15090
127215;14759
127224;14472
127232;14343
127240;14023
127248;14092
127256;13921
127265;14050
127273;13869
127281;13928
127289;13699
127297;13732
127305;13469
127314;13437
127322;13186
127330;13177
127338;12849
127350;12748
127358;12408
127366;12333
127374;12036
127382;12216
127390;12191
127399;12529
127407;12640
127415;13121
127423;13374
127431;13982
127440;14233
127448;14689
127456;14788
127464;15094
127472;15060
127481;15288
127489;15223
127497;15333
127505;15176
127513;15299
127522;15123
127530;15135
127538;14956
127546;15013
127554;14928
127562;14969
127571;14843
127579;14866
127587;14867
127595;14988
127603;14893
127612;14852
127620;14670
127628;14540
127636;14436
127647;14570
127656;14440
127664;14665
127672;14588
127680;14800
127688;14735
127697;14899
127705;14745
127713;14809
127721;14647
127729;14685
127738;14535
127746;14511
127754;14349
127762;14341
127770;14755
127779;13446
127787;9610
127795;7140
127803;8063
127811;15594
127820;17339
127828;16637
127836;15897
127844;15140
127852;14870
127860;14584
127869;14363
127878;14245
127886;14200
127894;14077
127902;14080
127911;13942
127919;13842
127927;13687
127935;13657
127943;13407
127954;13267
127962;13215
127970;12880
127978;12619
127986;12302
127995;12173
128004;12092
128012;12183
128020;12306
128028;12474
128037;12682
128045;13044
128053;13480
128061;13813
128069;14140
128078;14363
128086;14611
128094;14693
128102;14860
128110;14900
128119;14971
128127;14894
128135;14920
128143;14739
128151;14759
128159;14593
128168;14593
128176;14455
128184;14528
128192;14344
128200;14496
128209;14349
128217;14388
128225;14101
128233;14054
128241;13831
128250;13927
128261;13881
128269;14010
128277;14013
128285;14141
128294;14216
128302;14413
128310;14453
128318;14541
128326;14449
128335;14521
128343;14433
128351;14503
128359;14352
128367;14336
128376;14577
128384;13913
128392;10647
128400;7329
128408;6616
128417;13245
128425;16734
128433;16219
128441;15269
128449;14706
128457;14156
128466;13969
128474;13533
128482;13513
128490;13207
128498;13288
128507;13047
128515;13097
128523;12850
128531;12937
128539;12687
128548;12776
128559;12548
128567;12565
128575;12250
128583;12135
128592;11744
128600;11750
128608;11524
128616;11695
128624;11644
128633;12000
128641;12103
128649;12690
128657;12966
128665;13586
128674;13874
128682;14294
128690;14349
128698;14648
128706;14569
128714;14704
128723;14571
128731;14768
128739;14644
128747;14773
128755;14591
128764;14757
128772;14613
128780;14729
128788;14521
128796;14581
128805;14431
128813;14559
128821;14453
128829;14491
128837;14281
128846;14272
128854;14101
128865;14217
128873;14015
128881;14120
128890;14043
128898;14277
128906;14246
128914;14506
128922;14380
128931;14491
128939;14350
128947;14520
128955;14326
128963;14392
128972;14150
128980;14172
128988;14591
128996;13747
129004;10043
129012;5515
129021;5306
129029;12788
129037;15850
129045;15699
129053;15012
129062;14811
129070;14433
129078;14258
129086;14059
129094;13979
129103;13955
129111;13899
129119;13765
129127;13680
129135;13649
129144;13526
129152;13435
129160;13294
129171;13134
129179;13141
129188;12854
129196;12677
129204;12345
129212;12246
129220;12081
129229;12250
129237;12233
129245;12440
129253;12653
129261;13024
129270;13392
129278;13840
129286;14165
129294;14424
129302;14605
129310;14711
129319;14784
129327;14756
129335;14796
129343;14729
129351;14762
129360;14698
129368;14758
129376;14642
129384;14672
129392;14530
129401;14605
129409;14468
129417;14559
129425;14406
129433;14511
129442;14359
129450;14443
129458;14142
129469;14025
129477;13999
129486;13991
129494;13968
129502;14038
129510;14052
129518;14199
129527;14220
129535;14344
129543;14357
129551;14378
129559;14257
129567;14341
129576;14261
129584;14336
129592;14145
129600;14141
129608;14566
129617;13707
129625;10116
129633;5907
129641;5567
129649;12974
129658;16021
129666;15898
129674;15148
129682;15131
129690;14704
129699;14645
129707;14352
129715;14457
129723;14183
129731;14314
129740;14107
129748;14287
129756;14053
129764;14147
129775;13965
129784;14050
129792;13729
129800;13665
129808;13320
129816;13188
129825;12774
129833;12724
129841;12456
129849;12568
129857;12476
129865;12731
129874;12771
129882;13325
129890;13617
129898;14126
129906;14288
129915;14725
129923;14699
129931;14945
129939;14862
129947;15018
129956;14837
129964;14998
129972;14821
129980;14962
129988;14797
129997;14861
130005;14670
130013;14855
130021;14663
130029;14766
130038;14679
130046;14843
130054;14794
130062;14902
130070;14775
130082;15011
130090;14711
130098;14680
130106;14438
130114;14589
130122;14429
130131;14620
130139;14536
130147;14792
130155;14714
130163;14956
130172;14799
130180;14932
130188;14749
130196;14795
130204;14628
130213;14692
130221;14471
130229;14402
130237;14700
130245;14364
130254;11507
130262;7768
130270;6101
130278;12053
130286;16782
130295;16522
130303;15824
130311;15237
130319;14889
130327;14612
130335;14303
130344;14194
130352;14091
130360;13961
130368;13834
130380;13850
130388;13706
130396;13680
130404;13430
130412;13475
130420;13196
130429;13074
130437;12728
130445;12506
130453;12111
130461;12004
130470;11823
130478;11919
130486;11922
130494;12161
130502;12383
130511;12752
130519;13131
130527;13580
130535;13947
130543;14221
130552;14349
130560;14404
130568;14462
130576;14452
130584;14523
130593;14440
130601;14519
130609;14398
130617;14401
130625;14263
130633;14276
130642;14098
130650;14129
130658;13973
130666;14073
130674;13926
130686;13957
130694;13962
130702;13733
130710;13720
130718;13650
130727;13572
130735;13559
130743;13608
130751;13637
130759;13647
130768;13786
130776;13811
130784;13892
130792;13868
130800;13940
130809;13868
130817;13955
130825;13796
130833;13819
130841;13710
130850;14335
130858;13164
130866;9815
130874;6977
130882;7148
130890;14024
130899;16853
130907;16035
130916;15557
130924;14710
130932;14481
130941;14098
130949;13981
130957;13709
130965;13836
130973;13648
130982;13723
130992;13658
131000;13756
131008;13611
131016;13595
131025;13431
131034;13388
131042;13103
131050;12964
131058;12623
131067;12506
131075;12252
131083;12177
131091;12256
131099;12563
131108;12624
131116;12960
131124;13081
131132;13674
131140;13808
131149;14189
131157;14164
131165;14478
131173;14424
131181;14688
131190;14583
131198;14721
131206;14616
131214;14735
131222;14456
131230;14620
131239;14415
131247;14525
131255;14312
131263;14430
131271;14290
131280;14405
131291;14304
131299;14442
131307;14169
131315;14240
131324;14181
131332;14229
131340;14122
131348;14282
131356;14207
131365;14334
131373;14266
131381;14358
131389;14193
131397;14267
131406;14096
131414;14096
131422;13961
131430;14134
131438;14048
131447;14336
131455;13991
131463;11599
131471;8427
131479;8133
131487;11672
131496;16471
131504;16273
131512;15749
131520;14968
131528;14642
131537;14348
131545;14141
131553;13973
131561;14000
131569;13919
131578;14013
131586;13884
131597;13985
131605;13980
131613;13951
131622;13700
131630;13625
131638;13366
131646;13125
131654;12910
131663;12726
131671;12510
131679;12492
131687;12395
131695;12580
131704;12690
131712;12850
131720;13144
131728;13608
131736;13938
131745;14152
131753;14388
131761;14518
131769;14618
131777;14469
131785;14536
131794;14491
131802;14416
131810;14407
131818;14283
131826;14332
131835;14272
131843;14299
131851;14274
131859;14161
131867;14271
131876;14018
131884;14079
131892;14078
131903;14011
131911;14219
131920;14160
131928;14157
131936;14131
131944;14244
131952;14144
131961;14044
131969;14096
131977;13988
131985;13966
131993;13778
132002;13856
132010;13816
132018;13809
132026;13943
132034;13955
132042;13996
132051;13903
132059;14119
132067;14190
132075;14126
132083;14198
132092;14170
132100;14230
132108;14321
132116;13881
132124;11949
132133;10146
132141;10523
132149;13735
132157;16802
132165;16467
132174;15782
132182;15086
132190;14657
132201;14449
132209;14252
132218;14260
132226;14201
132234;14153
132242;14068
132250;14135
132259;14106
132267;14036
132275;13919
132283;13801
132291;13613
132300;13456
132308;13206
132316;13101
132324;12732
132332;12582
132340;12419
132349;12477
132357;12412
132365;12582
132373;12693
132381;13042
132390;13364
132398;13691
132406;13927
132414;14247
132422;14308
132431;14523
132439;14471
132447;14508
132455;14465
132463;14506
132472;14414
132480;14502
132488;14402
132496;14422
132507;14387
132516;14535
132524;14386
132532;14373
132540;14313
132548;14409
132557;14288
132565;14365
132573;14231
132581;14285
132589;14133
132598;14240
132606;14210
132614;14324
132622;14213
132630;14288
132638;14204
132647;14289
132655;14149
132663;14153
132671;14069
132679;14156
132688;14104
132696;14143
132704;14064
132712;14133
132720;14051
132729;14070
132737;13986
132745;14008
132753;13884
132761;13904
132770;13783
132778;13849
132786;13828
132794;13878
132805;13909
132814;14058
132822;13920
132830;14042
132838;13856
132846;13906
132855;13722
132863;13826
132871;13588
132879;13663
132887;13472
132895;13550
132904;13421
132912;13560
132920;13374
132928;13455
132936;13332
132945;13421
132953;13303
132961;13355
132969;13299
132977;13314
132986;13230
132994;13253
133002;13218
133010;13315
133018;13244
133027;13259
133035;13238
133043;13222
133051;13283
133059;13236
133068;13229
133076;13154
133084;13193
133092;13099
133100;13173
133112;13184
133120;13109
133128;13220
133136;13111
133144;13177
133153;13103
133161;13179
133169;13179
133177;13227
133185;13183
133193;13231
133202;13214
133210;13256
133218;13222
133226;13258
133234;13332
133243;13322
133251;13272
133259;13260
133267;13184
133275;13099
133284;13166
133292;13118
133300;13191
133308;13153
133316;13333
133325;13322
133333;13518
133341;13527
133349;13658
133357;13520
133366;13676
133374;13468
133382;13962
133390;13253
133398;10938
133410;6887
133418;7392
133426;13471
133434;15731
133442;15469
133450;15015
133459;14706
133467;14566
133475;14270
133483;14216
133491;14099
133500;14177
133508;14006
133516;14071
133524;13929
133532;13975
133541;13696
133549;13699
133557;13472
133565;13472
133573;13220
133582;13214
133590;12822
133598;12704
133606;12247
133614;12215
133623;12005
133631;12209
133639;12128
133647;12446
133655;12459
133663;12879
133672;13048
133680;13578
133688;13715
133696;14120
133704;14162
133716;14555
133724;14548
133732;14675
133740;14519
133748;14659
133757;14496
133765;14654
133773;14460
133781;14618
133789;14373
133798;14496
133806;14362
133814;14531
133822;14336
133830;14487
133839;14311
133847;14452
133855;14251
133863;14401
133871;14210
133880;14357
133888;14146
133896;14286
133904;14117
133912;14254
133921;14119
133929;14261
133937;14097
133945;14189
133953;14049
133961;14116
133970;13979
133978;14064
133986;13884
133994;13942
134002;13805
134011;13852
134022;13791
134030;13986
134038;13747
134046;13912
134055;13702
134063;13803
134071;13601
134079;13776
134087;13600
134096;13724
134104;13578
134112;13765
134120;13637
134128;13755
134137;13637
134145;13738
134153;13604
134161;13730
134169;13614
134178;13717
134186;13667
134194;13711
134202;13546
134210;13479
134218;13369
134227;13419
134235;13452
134243;13515
134251;13539
134259;13574
134268;13592
134276;13646
134284;13760
134292;13824
134300;13874
134309;13795
134320;13747
134328;14145
134336;13915
134344;12168
134353;7957
134361;5701
134369;8573
134377;14941
134385;15894
134394;15556
134402;15112
134410;14980
134418;14772
134426;14656
134435;14493
134443;14444
134451;14332
134459;14285
134467;14240
134476;14167
134484;14119
134492;14003
134500;13939
134508;13793
134516;13732
134525;13464
134533;13288
134541;12971
134549;12774
134557;12407
134566;12245
134574;12078
134582;12212
134590;12235
134598;12488
134607;12661
134615;13193
134626;13851
134634;14283
134642;14626
134651;14819
134659;14936
134667;15051
134675;15041
134683;15007
134692;14963
134700;14998
134708;14964
134716;14987
134724;14938
134733;14991
134741;14870
134749;14903
134757;14773
134765;14844
134775;14733
134783;14795
134791;14620
134799;14661
134807;14497
134815;14606
134824;14447
134832;14550
134840;14364
134848;14480
134856;14282
134865;14381
134873;14201
134881;14342
134889;14157
134897;14290
134906;14138
134914;14284
134922;14086
134933;14180
134941;14104
134950;14146
134958;14024
134966;14090
134974;13943
134982;14048
134991;13887
134999;13975
135007;13814
135015;13918
135023;13772
135032;13877
135040;13690
135048;13815
135056;13546
135064;13609
135073;13372
135081;13565
135089;13481
135097;13716
135105;13577
135113;13743
135122;13603
135130;13791
135138;13685
135146;13945
135154;13726
135163;13844
135171;13646
135179;13742
135187;13487
135195;14038
135204;13255
135212;10821
135220;6770
135231;7028
135239;13625
135248;15615
135256;15037
135264;14684
135272;14393
135280;14400
135289;14061
135297;14139
135305;13889
135313;13964
135321;13736
135330;13831
135338;13607
135346;13699
135354;13482
135362;13611
135370;13396
135379;13410
135387;13093
135395;13005
135403;12623
135411;12421
135420;11983
135428;11811
135436;11580
135444;11616
135452;11571
135461;11812
135469;12040
135477;12534
135485;12950
135493;13480
135502;13854
135510;14226
135518;14417
135526;14585
135537;14580
135546;14762
135554;14555
135562;14620
135570;14417
135578;14499
135587;14349
135595;14458
135603;14316
135611;14395
135619;14186
135628;14226
135636;14123
135644;14234
135652;14113
135660;14153
135668;14100
135677;14160
135685;14090
135693;14138
135701;14085
135709;14098
135718;14054
135726;14048
135734;14020
135742;13985
135750;13957
135759;13879
135767;13935
135775;13907
135783;13931
135791;13887
135800;13928
135808;13796
135816;13797
135824;13662
135835;13757
135844;13860
135852;13722
135860;13758
135868;13694
135876;13570
135885;13349
135893;13241
135901;13199
135909;13157
135917;13145
135926;13103
135934;13149
135942;13215
135950;13348
135958;13396
135966;13526
135975;13505
135983;13553
135991;13476
135999;13538
136007;13419
136016;13735
136024;12420
136032;9136
136040;5984
136048;7094
136057;13802
136065;15644
136073;14976
136081;14589
136089;14281
136098;14188
136106;13913
136114;14003
136122;13814
136130;13923
136142;13857
136150;13999
136158;13872
136166;13892
136174;13786
136183;13792
136191;13570
136199;13540
136207;13289
136215;13195
136223;12808
136232;12719
136240;12324
136248;12157
136256;11924
136264;12056
136273;12019
136281;12383
136289;12596
136297;13242
136305;13578
136314;14248
136322;14473
136330;14918
136338;14943
136346;15190
136355;15081
136363;15243
136371;15071
136379;15205
136387;14993
136396;15083
136404;14860
136412;14935
136420;14750
136428;14876
136436;14702
136448;14974
136456;14883
136464;14999
136472;14743
136481;14828
136489;14674
136497;14792
136505;14581
136513;14692
136521;14523
136530;14661
136538;14470
136546;14616
136554;14354
136562;14425
136571;14250
136579;14368
136587;14177
136595;14279
136603;14095
136612;14181
136620;13995
136628;13997
136636;13743
136644;13727
136653;13533
136661;13656
136669;13543
136677;13611
136685;13589
136694;13722
136702;13679
136710;13790
136718;13730
136726;13768
136734;13702
136746;13793
136754;13627
136762;13649
136770;13875
136778;12999
136787;9732
136795;6652
136803;6969
136811;14024
136819;16040
136828;15563
136836;14722
136844;14552
136852;14184
136860;14060
136869;13895
136877;13932
136885;13808
136893;13794
136901;13693
136910;13725
136918;13614
136926;13566
136934;13491
136942;13427
136951;13308
136959;13153
136967;12934
136975;12651
136983;12388
136991;12088
137000;11929
137008;11770
137016;11844
137024;11879
137032;12122
137041;12308
137052;12896
137060;13522
137068;13861
137076;14263
137085;14474
137093;14648
137101;14702
137109;14792
137117;14812
137126;14771
137134;14697
137142;14641
137150;14597
137158;14556
137167;14566
137175;14464
137183;14454
137191;14356
137199;14343
137208;14283
137216;14328
137224;14237
137232;14305
137240;14180
137249;14319
137257;14206
137265;14294
137273;14174
137281;14282
137289;14141
137298;14316
137306;14197
137314;14272
137322;14003
137330;13951
137339;13682
137347;13786
137358;13741
137366;13918
137374;13929
137383;14070
137391;14051
137399;14183
137407;14083
137415;14166
137424;14057
137432;14107
137440;13953
137448;13985
137456;13831
137465;14307
137473;12802
137481;9443
137489;6268
137497;7709
137506;14892
137514;16344
137522;15472
137530;14933
137538;14579
137546;14495
137555;14125
137563;14141
137571;13910
137579;14032
137587;13829
137596;13863
137604;13612
137612;13678
137620;13444
137628;13479
137637;13244
137645;13228
137653;12884
137664;12900
137672;12598
137681;12461
137689;12093
137697;12082
137705;11862
137713;12080
137722;12054
137730;12452
137738;12656
137746;13207
137754;13466
137763;13999
137771;14151
137779;14488
137787;14523
137795;14787
137804;14667
137812;14841
137820;14654
137828;14733
137836;14564
137844;14663
137853;14505
137861;14637
137869;14477
137877;14554
137885;14398
137894;14515
137902;14408
137910;14498
137918;14396
137926;14467
137935;14387
137943;14481
137951;14402
137962;14591
137970;14517
137979;14619
137987;14427
137995;14466
138003;14121
138011;14115
138020;13899
138028;13983
138036;13860
138044;14004
138052;13941
138061;14110
138069;14013
138077;14141
138085;14010
138093;14115
138102;14008
138110;14060
138118;13888
138126;13904
138134;14040
138142;14113
138152;11952
138160;8110
138168;5903
138176;10197
138184;16026
138193;16030
138201;15199
138209;14611
138217;14361
138225;14079
138234;13943
138242;13820
138250;13780
138258;13671
138268;13646
138277;13779
138285;13607
138293;13599
138302;13426
138310;13424
138319;13238
138327;13117
138335;12877
138343;12727
138351;12445
138360;12231
138368;12037
138376;11995
138384;12024
138392;12168
138401;12312
138409;12561
138417;12922
138425;13314
138433;13744
138441;14028
138450;14349
138458;14422
138466;14592
138474;14574
138482;14646
138491;14523
138499;14553
138507;14393
138515;14468
138523;14346
138532;14429
138540;14282
138548;14473
138556;14323
138567;14477
138576;14527
138584;14525
138592;14467
138600;14445
138608;14367
138617;14360
138625;14350
138633;14389
138641;14256
138649;14185
138658;13957
138666;13951
138674;13892
138682;13999
138690;13977
138698;14136
138707;14080
138715;14279
138723;14183
138731;14296
138739;14202
138748;14311
138756;14155
138764;14256
138772;14068
138780;14147
138789;14214
138797;14293
138805;11874
138813;8146
138821;6065
138830;11244
138838;16576
138846;16478
138854;15532
138862;15085
138874;14738
138882;14624
138890;14332
138898;14359
138906;14171
138915;14237
138923;14025
138931;14067
138939;13840
138947;13859
138956;13560
138964;13581
138972;13274
138980;13263
138988;12889
138996;12772
139005;12342
139013;12253
139021;11933
139029;12088
139037;12020
139046;12313
139054;12329
139062;12764
139070;12958
139078;13499
139087;13744
139095;14197
139103;14314
139111;14585
139119;14551
139128;14726
139136;14642
139144;14739
139152;14573
139160;14649
139169;14536
139180;14675
139188;14548
139196;14614
139204;14487
139213;14658
139221;14512
139229;14662
139237;14479
139245;14616
139254;14456
139262;14594
139270;14368
139278;14398
139286;14096
139294;14036
139303;13749
139311;13852
139319;13702
139327;13820
139335;13758
139344;13933
139352;13937
139360;14041
139368;13957
139376;13990
139385;13860
139393;13921
139401;13838
139409;13811
139417;13652
139426;13614
139434;14053
139442;12731
139450;9040
139458;5635
139466;7037
139486;16264
139494;15693
139502;14996
139511;14851
139519;14426
139527;14330
139535;14139
139543;14173
139551;13994
139560;13972
139568;13806
139576;13811
139584;13719
139592;13658
139601;13508
139609;13379
139617;13181
139625;13004
139633;12816
139642;12591
139650;12366
139658;12145
139666;12063
139674;12075
139683;12250
139691;12378
139699;12681
139707;12932
139715;13337
139724;13600
139732;14003
139740;14178
139748;14448
139756;14442
139764;14579
139773;14505
139781;14607
139792;14551
139800;14544
139809;14513
139817;14472
139825;14445
139833;14422
139841;14403
139849;14387
139858;14298
139866;14331
139874;14266
139882;14318
139890;14268
139899;14344
139907;14270
139915;14306
139923;14092
139931;14015
139940;13789
139948;13829
139956;13669
139964;13760
139972;13699
139981;13903
139989;13919
139997;14137
140005;14036
140013;14137
140023;13949
140031;14067
140039;13857
140047;13928
140055;13685
140063;13771
140072;14095
140080;12938
140088;9150
140098;5345
140106;9559
140115;15833
140123;15869
140131;15255
140139;14708
140147;14610
140156;14247
140165;14256
140173;14055
140181;14084
140189;13877
140198;13940
140206;13759
140214;13819
140222;13555
140230;13602
140239;13321
140247;13289
140255;12956
140263;12893
140271;12536
140280;12410
140288;11993
140296;11993
140304;11823
140312;12121
140321;12107
140329;12434
140337;12525
140345;13034
140353;13310
140361;13821
140370;14000
140378;14387
140386;14387
140397;14714
140406;14640
140414;14781
140422;14580
140430;14668
140438;14400
140446;14519
140455;14327
140463;14425
140471;14212
140479;14360
140487;14207
140496;14384
140504;14249
140512;14363
140520;14210
140528;14380
140537;14227
140545;14379
140553;14197
140561;14275
140569;14000
140578;13983
140586;13747
140594;13818
140602;13720
140610;13910
140618;13930
140627;14053
140635;14078
140643;14176
140651;14056
140659;14093
140668;14017
140676;14073
140684;13980
140692;13927
140703;13829
140712;14590
140720;13533
140728;10366
140736;6292
140744;6276
140753;13561
140761;16237
140769;15585
140777;14994
140785;14586
140794;14407
140802;14083
140810;14075
140818;13945
140826;13932
140835;13831
140843;13842
140851;13753
140859;13740
140867;13604
140876;13515
140884;13404
140892;13282
140900;13099
140908;12932
140916;12710
140925;12454
140933;12295
140941;12204
140949;12283
140957;12348
140966;12529
140974;12633
140982;12932
140990;13165
140998;13565
141010;14085
141018;14329
141026;14519
141034;14536
141042;14637
141051;14620
141059;14597
141067;14514
141075;14453
141083;14420
141092;14403
141100;14400
141108;14323
141116;14334
141124;14283
141133;14355
141141;14299
141149;14348
141157;14341
141165;14464
141174;14377
141182;14459
141190;14350
141198;14431
141206;14314
141214;14394
141223;14214
141231;14326
141239;14070
141247;14045
141255;13845
141264;13940
141272;13770
141280;13979
141288;13891
141296;14144
141308;14250
141316;14357
141324;14252
141332;14227
141340;14100
141349;14134
141357;13995
141365;14047
141373;14009
141381;14436
141390;12592
141398;8846
141406;5847
141414;8666
141422;15394
141431;16116
141439;15267
141447;14749
141455;14368
141463;14221
141471;13916
141480;14043
141488;13796
141496;13876
141504;13695
141512;13823
141521;13572
141529;13599
141537;13382
141545;13473
141553;13211
141562;13217
141570;12913
141578;12807
141586;12435
141594;12366
141603;12009
141614;12141
141622;12177
141630;12459
141638;12435
141647;12751
141655;12862
141663;13357
141671;13497
141679;13905
141688;13948
141696;14253
141704;14177
141712;14400
141720;14254
141729;14367
141737;14163
141745;14241
141753;14027
141761;14153
141769;13981
141778;14072
141786;13923
141794;14069
141802;13940
141810;14043
141819;13907
141827;14005
141835;13882
141843;14023
141851;13906
141860;14033
141868;13968
141876;14038
141884;13959
141892;14054
141901;14018
141909;14078
141920;13964
141928;14113
141936;13787
141945;13810
141953;13650
141961;13790
141969;13649
141977;13778
141986;13720
141994;13928
142002;13898
142010;14033
142018;13955
142026;14069
142035;13986
142043;14065
142051;13964
142059;13988
142067;13868
142076;14344
142084;12870
142092;9281
142100;6203
142108;7899
142117;15070
142125;16198
142133;15551
142141;14863
142149;14623
142158;14324
142166;14118
142174;13947
142182;13918
142190;13790
142199;13747
142207;13628
142218;13670
142226;13786
142234;13594
142243;13532
142251;13335
142259;13204
142267;12965
142275;12747
142284;12477
142292;12274
142300;12113
142308;12097
142316;12181
142324;12225
142333;12406
142341;12588
142349;12899
142357;13195
142365;13574
142374;13824
142382;14111
142390;14196
142398;14381
142406;14341
142415;14453
142423;14363
142431;14489
142439;14364
142447;14458
142456;14331
142464;14399
142472;14249
142480;14325
142488;14176
142497;14326
142505;14201
142513;14348
142524;14276
142532;14313
142541;14219
142549;14211
142557;14101
142565;14147
142573;14066
142582;14127
142590;14077
142598;14149
142606;14058
142614;14056
142622;13859
142631;13780
142639;13584
142647;13713
142655;13610
142663;13711
142672;13612
142680;13829
142688;13810
142696;13988
142704;13785
142713;13954
142722;13818
142730;13979
142738;13802
142746;13942
142755;13739
142763;14105
142771;13918
142779;11870
142787;7765
142796;6007
142804;10490
142812;16208
142820;16043
142830;15282
142839;14919
142847;14811
142855;14436
142864;14418
142872;14188
142881;14231
142889;14000
142897;14051
142905;13837
142913;13929
142921;13696
142930;13728
142938;13464
142946;13463
142954;13134
142962;13084
142971;12643
142979;12552
142987;12224
142995;12272
143003;12099
143012;12343
143020;12313
143028;12656
143036;12811
143044;13280
143053;13519
143061;14003
143069;14153
143077;14522
143085;14595
143094;14822
143102;14736
143110;14804
143118;14720
143129;14898
143138;14783
143146;14859
143154;14642
143162;14749
143170;14516
143178;14589
143187;14427
143195;14578
143203;14375
143211;14482
143219;14328
143228;14486
143236;14359
143244;14503
143252;14371
143260;14486
143269;14355
143277;14439
143285;14327
143293;14440
143301;14343
143310;14397
143318;14281
143326;14291
143334;14098
143342;13954
143351;13883
143359;13974
143367;13932
143375;13969
143383;13934
143391;14001
143400;14078
143408;14106
143416;14096
143424;14072
143436;14085
143444;14226
143452;14051
143460;14053
143468;13786
143476;14308
143485;13443
143493;10574
143501;6853
143509;6496
143517;12981
143526;16174
143534;15641
143542;14868
143550;14441
143558;14230
143567;13927
143575;13786
143583;13729
143591;13673
143599;13609
143608;13489
143616;13464
143624;13340
143632;13293
143640;13166
143649;13103
143657;12890
143665;12830
143673;12572
143681;12415
143689;12133
143698;12035
143706;11813
143714;11910
143722;11909
143730;12162
143742;12439
143750;12761
143758;13098
143766;13459
143774;13748
143783;14041
143791;14223
143799;14391
143807;14425
143815;14524
143824;14502
143832;14535
143840;14397
143848;14448
143856;14314
143865;14337
143873;14175
143881;14254
143889;14115
143897;14232
143906;14092
143914;14195
143922;14050
143930;14167
143938;14061
143946;14222
143955;14078
143963;14247
143971;14113
143979;14288
143987;14204
143996;14347
144004;14146
144012;14306
144020;14155
144028;14295
144040;14200
144048;14254
144056;13979
144064;13877
144072;13724
144081;13798
144089;13729
144097;13825
144105;13760
144113;13981
144122;13949
144130;14136
144138;13990
144146;14120
144154;13971
144163;14109
144171;13895
144179;13992
144187;13789
144195;14435
144204;13053
144212;9683
144220;6461
144228;7810
144236;14834
144244;16358
144253;15516
144261;14920
144269;14546
144277;14463
144285;14120
144294;14142
144302;14013
144310;14094
144318;13909
144326;14023
144335;13864
144346;13968
144354;13746
144362;13758
144370;13450
144379;13382
144387;12985
144395;12947
144403;12536
144411;12419
144420;12093
144428;12146
144436;12051
144444;12309
144452;12280
144461;12674
144469;12805
144477;13301
144485;13542
144493;13993
144502;14174
144510;14501
144518;14581
144526;14783
144534;14749
144542;14823
144551;14687
144559;14707
144567;14587
144575;14600
144583;14499
144592;14539
144600;14474
144608;14469
144616;14382
144624;14308
144633;14217
144644;14305
144652;14207
144660;14295
144668;14102
144677;14178
144685;14026
144693;14128
144701;13969
144709;14058
144718;13970
144726;14092
144734;14014
144742;14014
144750;13798
144759;13688
144767;13514
144775;13502
144783;13412
144791;13520
144799;13562
144808;13671
144816;13710
144824;13755
144832;13745
144840;13752
144849;13804
144857;13772
144865;13779
144873;13742
144881;13725
144890;13832
144898;13953
144906;11837
144914;8093
144922;5927
144931;10204
144939;15977
144950;15847
144958;15178
144966;14757
144975;14566
144983;14242
144991;14097
144999;13979
145007;13900
145016;13818
145024;13699
145032;13663
145040;13548
145048;13497
145057;13419
145065;13414
145073;13215
145081;13074
145089;12784
145097;12625
145106;12294
145114;12167
145123;11935
145131;12003
145139;11941
145148;12205
145156;12289
145164;12657
145172;12875
145180;13371
145189;13583
145197;14037
145205;14154
145213;14480
145221;14446
145230;14634
145238;14531
145246;14714
145256;14635
145265;14711
145274;14600
145282;14609
145290;14455
145298;14434
145306;14296
145315;14363
145323;14212
145331;14269
145339;14110
145347;14190
145356;14041
145364;14111
145372;13965
145380;14095
145388;13952
145396;14084
145405;13956
145413;14118
145421;13929
145429;14075
145437;13908
145446;14065
145454;13791
145462;13805
145470;13533
145478;13664
145487;13499
145495;13693
145503;13646
145511;13909
145519;13876
145528;14027
145536;13884
145544;14025
145555;13954
145563;14182
145572;14022
145580;14123
145588;13930
145596;14589
145604;13208
145613;9818
145621;6499
145629;7896
145637;15032
145645;16564
145654;15743
145662;15133
145670;14636
145678;14496
145686;14119
145694;14109
145703;13905
145711;13947
145719;13741
145727;13825
145735;13612
145744;13667
145752;13447
145760;13457
145768;13261
145776;13256
145785;12992
145793;12895
145801;12579
145809;12393
145817;12140
145826;12169
145834;12112
145842;12219
145850;12280
145861;12736
145870;12897
145878;13365
145886;13546
145894;13993
145902;14125
145911;14483
145919;14442
145927;14648
145935;14558
145943;14667
145951;14533
145960;14628
145968;14480
145976;14545
145984;14392
145992;14431
146001;14321
146009;14358
146017;14253
146025;14246
146033;14140
146042;14128
146050;14047
146058;14069
146066;14018
146074;13966
146083;13971
146091;13950
146099;13965
146107;13947
146115;13994
146124;13921
146132;13917
146140;13756
146148;13703
146156;13555
146168;13605
146176;13729
146184;13712
146192;13899
146200;13916
146209;14023
146217;13982
146225;14021
146233;13964
146241;13964
146249;13922
146258;13941
146266;13889
146274;13797
146282;14307
146290;13775
146299;10994
146307;7112
146315;6208
146323;12594
146331;16348
146340;15873
146348;15163
146356;14667
146364;14536
146372;14192
146381;14178
146389;13982
146397;14016
146405;13831
146413;13888
146422;13715
146430;13789
146438;13556
146446;13593
146454;13324
146466;13345
146474;13218
146482;13080
146490;12774
146498;12596
146506;12383
146515;12381
146523;12364
146531;12538
146539;12596
146547;12896
146556;13076
146564;13550
146572;13808
146580;14271
146588;14401
146597;14657
146605;14638
146613;14839
146621;14729
146629;14785
146638;14566
146646;14672
146654;14467
146662;14556
146670;14351
146679;14473
146687;14256
146695;14344
146703;14189
146711;14262
146719;14036
146728;14119
146736;13893
146744;14057
146752;13895
146760;14077
146772;13991
146780;14140
146788;14004
146796;14166
146804;14051
146813;14184
146821;13928
146829;13914
146837;13588
146845;13651
146854;13487
146862;13704
146870;13585
146878;13822
146886;13783
146895;13951
146903;13771
146911;13866
146919;13681
146927;13832
146936;13641
146944;13757
146952;13546
146960;14125
146968;13505
146977;10864
146985;6870
146993;5948
147001;12211
147009;16064
147018;15441
147027;14743
147035;14218
147043;14077
147051;13712
147059;13684
147068;13483
147078;13614
147086;13366
147094;13386
147102;13142
147111;13229
147119;12997
147128;13045
147136;12738
147144;12728
147153;12417
147161;12368
147169;12008
147177;11931
147185;11586
147194;11591
147202;11465
147210;11647
147218;11660
147226;11969
147235;12143
147243;12645
147251;12919
147259;13324
147267;13539
147276;13835
147284;13827
147292;13915
147300;13889
147308;13964
147316;13906
147325;13860
147333;13726
147341;13671
147349;13662
147357;13686
147366;13725
147377;13942
147385;13919
147393;14054
147401;13963
147410;14118
147418;14065
147426;14212
147434;14235
147442;14455
147451;14334
147459;14333
147467;14154
147475;14071
147483;13930
147492;13997
147500;14039
147508;14176
147516;14264
147524;14334
147533;14492
147541;14591
147549;14624
147557;14612
147565;14608
147574;14604
147582;14670
147590;14612
147598;14636
147606;14477
147614;15046
147623;13624
147631;9946
147639;6337
147647;7834
147655;15486
147664;16907
147672;16170
147683;15551
147691;15424
147699;15043
147708;14866
147716;14708
147724;14609
147732;14534
147740;14374
147749;14299
147757;14202
147765;14170
147773;14046
147781;13951
147790;13808
147798;13760
147806;13522
147814;13505
147822;13162
147831;12948
147839;12761
147847;12847
147855;12762
147863;12956
147871;13026
147880;13309
147888;13480
147896;14012
147904;14264
147912;14700
147921;14759
147929;15011
147937;14925
147945;15092
147953;14940
147962;15059
147970;14871
147978;14988
147989;14882
147997;14972
148006;14764
148014;14743
148022;14512
148030;14496
148038;14315
148047;14362
148055;14216
148063;14326
148071;14209
148079;14362
148088;14275
148096;14391
148104;14176
148112;14222
148120;14065
148129;14238
148137;14131
148145;14307
148153;14246
148161;14429
148169;14421
148178;14590
148186;14445
148194;14590
148202;14457
148210;14563
148219;14412
148227;14516
148235;14314
148243;14373
148251;14778
148260;13882
148268;10462
148276;7326
148287;9149
148295;16808
148304;17161
148312;16488
148320;15606
148328;15239
148336;14737
148345;14547
148353;14224
148361;14216
148369;13955
148377;14007
148386;13746
148394;13758
148402;13508
148410;13513
148418;13250
148426;13224
148435;13024
148443;13002
148451;12724
148459;12541
148467;12228
148476;12187
148484;12079
148492;12234
148500;12250
148508;12521
148517;12626
148525;12951
148533;13272
148541;13638
148549;13911
148558;14219
148566;14386
148574;14488
148582;14521
148593;14627
148602;14540
148610;14614
148618;14506
148626;14552
148634;14344
148643;14381
148651;14222
148659;14270
148667;14140
148675;14135
148684;13978
148692;14027
148700;13927
148708;13991
148716;13925
148724;13997
148733;13863
148741;13825
148749;13630
148757;13550
148765;13477
148774;13450
148782;13480
148790;13552
148798;13587
148807;13639
148816;13706
148824;13736
148832;13755
148840;13693
148848;13700
148857;13637
148865;13671
148873;13591
148881;13611
148891;14307
148900;13129
148908;9386
148916;5936
148924;6645
148932;14283
148941;16241
148949;15650
148958;14967
148966;14542
148974;14288
148983;13991
148991;13814
148999;13719
149007;13580
149015;13512
149023;13401
149032;13377
149040;13242
149048;13204
149056;13063
149064;12996
149073;12796
149081;12707
149089;12371
149097;12228
149105;11924
149114;11845
149122;11717
149130;11905
149138;11895
149146;12165
149155;12297
149163;12755
149171;13011
149179;13524
149187;13727
149199;14223
149207;14400
149215;14429
149223;14423
149231;14473
149240;14395
149248;14467
149256;14316
149264;14328
149272;14174
149281;14213
149289;14045
149297;14114
149305;13991
149313;14082
149321;13919
149330;14044
149338;13910
149346;14003
149354;13895
149362;14056
149371;13959
149379;14137
149387;13971
149395;14130
149403;13888
149412;13927
149420;13630
149428;13756
149436;13613
149444;13798
149453;13740
149461;14029
149469;13991
149477;14169
149485;14102
149494;14257
149505;14192
149513;14379
149521;14226
149529;14308
149538;14046
149546;14735
149554;13911
149562;10743
149570;6443
149578;5815
149587;12235
149595;16244
149603;15884
149611;15348
149619;14837
149628;14724
149636;14322
149644;14357
149652;14124
149660;14210
149669;14007
149677;14087
149685;13902
149693;13947
149701;13750
149710;13837
149718;13603
149726;13582
149734;13300
149742;13181
149751;12839
149759;12725
149767;12404
149775;12377
149783;12291
149791;12436
149800;12476
149811;12921
149819;13156
149827;13655
149836;13891
149844;14260
149852;14375
149860;14673
149868;14631
149876;14783
149885;14672
149893;14788
149901;14598
149909;14638
149917;14490
149926;14523
149934;14393
149942;14441
149950;14274
149958;14308
149967;14218
149975;14276
149983;14232
149991;14261
149999;14224
150008;14264
150016;14201
150024;14172
150032;14138
150040;14134
150049;14115
150057;14100
150065;14071
150073;13889
150081;13862
150089;13719
150098;13718
150109;13808
150117;13813
150125;13942
150134;13915
150142;14012
150150;13970
150158;14050
150166;13969
150174;14011
150183;13956
150191;13996
150199;13930
150207;13790
150215;14152
150224;13840
150232;11006
150240;6763
150248;5351
150256;10691
150265;15808
150273;15826
150281;15209
150289;14779
150297;14648
150306;14316
150314;14230
150322;14048
150330;14093
150338;13938
150346;13998
150355;13898
150363;13897
150371;13694
150379;13735
150387;13528
150396;13527
150404;13242
150415;13122
150423;12877
150431;12613
150440;12326
150448;12235
150456;12188
150464;12252
150472;12287
150481;12547
150489;12736
150497;13166
150505;13457
150513;13862
150522;14005
150530;14322
150538;14290
150546;14430
150554;14283
150563;14395
150571;14234
150579;14326
150587;14163
150595;14280
150604;14122
150612;14270
150620;14083
150628;14150
150636;14003
150644;14117
150653;13980
150661;14149
150669;13988
150677;14163
150685;14037
150694;14264
150702;14150
150713;14341
150721;14260
150729;14280
150738;14143
150746;14312
150754;14197
150762;14413
150770;14181
150779;14154
150787;13825
150795;13937
150803;13809
150811;14009
150820;13822
150828;13985
150836;13866
150844;14106
150852;14012
150861;14217
150869;14059
150877;14179
150885;13972
150893;14080
150902;13852
150910;13959
150918;13732
150926;14263
150934;12710
150942;9153
150951;5875
150959;7365
150967;14523
150975;16156
150983;15414
150992;14849
151000;14530
151008;14315
151019;13991
151027;14130
151036;13859
151044;13898
151052;13669
151060;13766
151068;13568
151077;13658
151085;13451
151093;13477
151101;13221
151109;13216
151118;12903
151126;12809
151134;12444
151142;12356
151150;12109
151159;12143
151167;12102
151175;12318
151183;12340
151191;12682
151199;12937
151208;13405
151216;13715
151224;14035
151232;14203
151240;14430
151249;14497
151257;14592
151265;14617
151273;14642
151281;14609
151290;14539
151298;14509
151306;14447
151314;14408
151325;14421
151334;14328
151342;14315
151350;14096
151358;14149
151366;14054
151375;14094
151383;13938
151391;13970
151399;13869
151407;13889
151416;13813
151424;13840
151432;13780
151440;13806
151448;13816
151457;13770
151465;13722
151473;13731
151481;13738
151489;13746
151497;13791
151507;13692
151515;13620
151523;13532
151531;13629
151539;13665
151548;13856
151556;13858
151564;14074
151572;14142
151580;14379
151589;14362
151597;14474
151605;14351
151613;14442
151623;14456
151632;14409
151641;14360
151649;14278
151657;14722
151665;13379
151674;9649
151682;6521
151690;7725
151698;14902
151706;16415
151715;15917
151723;15212
151731;15035
151739;14751
151747;14613
151756;14428
151764;14416
151772;14236
151780;14252
151788;14123
151796;14207
151805;14012
151813;14017
151821;13755
151829;13767
151837;13467
151846;13392
151854;13039
151862;12979
151870;12621
151878;12556
151887;12231
151895;12317
151903;12239
151911;12473
151919;12494
151931;13162
151939;13594
151947;14043
151955;14247
151963;14540
151972;14593
151980;14795
151988;14662
151996;14746
152004;14579
152013;14644
152021;14462
152029;14500
152037;14353
152045;14422
152054;14237
152062;14289
152070;14030
152078;14120
152086;13993
152094;14107
152103;13951
152111;14043
152119;13915
152127;14049
152135;13912
152144;13980
152152;13850
152160;13947
152168;13799
152176;13852
152185;13732
152193;13752
152201;13665
152209;13793
152217;13700
152226;13680
152237;13402
152245;13473
152253;13316
152261;13414
152270;13250
152278;13327
152286;13350
152294;13706
152302;13922
152311;14237
152319;14226
152327;14352
152335;14282
152343;14379
152351;14196
152360;14131
152368;14131
152376;14138
152384;11812
152392;7988
152401;6066
152409;10302
152417;16409
152425;16438
152433;15623
152442;14981
152450;14620
152458;14474
152466;14183
152474;14125
152483;14021
152491;13934
152499;13813
152507;13710
152515;13594
152524;13497
152535;13351
152543;13404
152551;13121
152559;12999
152568;12633
152576;12469
152584;12139
152592;11935
152600;11647
152609;11633
152617;11561
152625;11687
152633;11784
152641;12070
152649;12361
152658;12790
152666;13137
152674;13515
152682;13770
152690;13954
152699;14086
152707;14037
152715;14036
152723;13977
152731;13953
152740;13882
152748;13958
152756;13930
152764;13979
152772;13970
152781;14085
152789;14132
152797;14259
152805;14205
152813;14294
152822;14266
152830;14383
152841;14465
152849;14506
152857;14475
152866;14413
152874;14394
152882;14295
152890;14176
152898;14024
152906;13843
152915;13790
152923;13756
152931;13722
152939;13705
152947;13767
152956;13799
152964;13865
152972;13790
152980;13799
152988;13706
152997;13788
153005;13664
153013;13673
153021;13522
153029;13500
153038;13554
153046;13954
153054;12013
153062;8242
153070;5373
153079;8590
153087;15681
153095;16356
153103;15590
153111;15147
153119;14890
153128;14754
153136;14466
153147;14508
153155;14463
153164;14466
153172;14316
153180;14389
153188;14273
153196;14311
153204;14062
153213;13947
153221;13611
153229;13440
153237;13100
153245;12928
153254;12560
153262;12473
153270;12261
153278;12269
153286;12197
153295;12316
153303;12327
153311;12591
153319;12842
153327;13346
153336;13701
153344;14092
153352;14237
153360;14512
153368;14565
153377;14722
153385;14679
153393;14766
153401;14652
153409;14675
153417;14552
153426;14595
153434;14483
153445;14560
153453;14532
153462;14599
153470;14530
153478;14645
153486;14557
153494;14633
153502;14521
153511;14598
153519;14496
153527;14585
153535;14569
153543;14620
153552;14554
153560;14653
153568;14471
153576;14492
153584;14335
153593;14404
153601;14308
153609;14260
153617;14032
153625;13917
153634;13811
153642;13863
153650;13807
153658;13795
153666;13770
153674;13898
153683;13930
153691;13990
153699;13987
153707;14017
153715;13968
153724;13956
153732;13898
153740;13838
153751;13902
153759;14360
153768;12563
153776;8794
153784;6096
153792;8554
153800;15716
153809;16294
153817;15552
153825;14879
153833;14572
153841;14442
153850;14186
153858;14002
153866;13848
153874;13737
153882;13673
153891;13611
153899;13515
153907;13480
153915;13425
153923;13319
153932;13157
153940;12947
153948;12777
153956;12540
153964;12278
153972;12027
153981;11891
153989;11772
153997;11790
154005;11882
154013;12155
154022;12371
154030;12813
154038;13213
154046;13708
154057;14273
154066;14569
154074;14670
154082;14703
154090;14739
154098;14751
154107;14773
154115;14767
154123;14745
154131;14713
154139;14622
154148;14580
154156;14472
154164;14419
154172;14345
154180;14307
154189;14231
154197;14273
154205;14332
154213;14448
154221;14497
154230;14606
154238;14583
154246;14620
154254;14462
154262;14344
154270;14180
154279;14168
154287;14040
154295;14033
154303;13964
154312;14058
154321;14012
154329;14058
154337;13929
154345;13915
154355;13923
154364;13983
154372;13857
154380;13806
154388;13729
154396;13666
154405;14213
154413;13389
154421;10047
154429;6933
154437;6767
154447;14240
154455;16907
154463;16192
154471;15380
154479;14739
154488;14397
154496;14178
154504;13829
154512;13735
154520;13549
154529;13485
154537;13295
154545;13247
154553;13105
154561;13021
154569;12840
154578;12804
154586;12622
154594;12527
154602;12261
154610;12130
154619;11860
154627;11773
154635;11604
154643;11650
154651;11680
154663;12045
154671;12307
154679;12719
154687;13130
154695;13689
154704;14033
154712;14395
154720;14531
154728;14706
154736;14677
154745;14756
154753;14693
154761;14712
154769;14566
154777;14539
154786;14370
154794;14386
154802;14202
154810;14176
154818;14056
154826;14112
154835;14032
154843;14039
154851;13959
154859;14003
154867;13966
154876;14031
154884;14014
154892;14051
154900;13999
154908;14010
154917;13955
154925;14024
154933;13970
154941;14013
154949;13903
154958;13784
154969;13685
154977;13723
154985;13586
154993;13604
155002;13572
155010;13696
155018;13680
155026;13853
155034;13863
155043;13984
155051;13951
155059;14007
155067;13947
155075;13978
155084;13826
155092;13874
155100;14380
155108;12860
155116;8792
155124;5175
155133;6502
155141;14254
155149;16067
155157;15715
155165;15123
155174;14940
155182;14677
155190;14473
155198;14332
155206;14281
155215;14262
155223;14189
155231;14123
155239;14003
155247;13879
155256;13708
155267;13585
155275;13506
155283;13228
155291;13060
155300;12717
155308;12448
155316;12092
155324;11893
155332;11697
155341;11651
155349;11677
155357;11885
155365;12091
155373;12450
155382;12862
155390;13271
155398;13614
155406;13864
155414;14065
155422;14178
155431;14281
155439;14328
155447;14388
155455;14335
155463;14334
155472;14244
155480;14185
155488;14089
155496;14083
155504;13960
155513;13965
155521;13880
155529;13929
155537;13869
155545;13954
155554;13908
155562;13992
155573;14090
155581;14185
155589;14215
155598;14263
155606;14299
155614;14317
155622;14217
155630;14211
155639;14036
155647;13913
155655;13806
155663;13824
155671;13754
155679;13823
155688;13841
155696;13989
155704;14004
155712;14069
155720;13950
155729;13971
155737;13865
155745;13908
155753;13797
155761;13768
155770;13600
155778;13909
155786;14123
155794;12024
155802;7617
155811;4824
155819;8202
155827;15336
155835;15909
155843;15355
155852;14755
155860;14640
155868;14307
155879;14257
155887;14193
155896;14123
155904;13998
155912;14007
155920;13858
155928;13858
155937;13705
155945;13687
155953;13499
155961;13443
155969;13206
155977;13057
155986;12729
155994;12530
156002;12170
156010;12070
156018;11953
156027;12075
156035;12133
156043;12396
156051;12570
156059;13035
156068;13399
156076;13889
156084;14201
156092;14528
156100;14611
156109;14766
156117;14721
156125;14742
156133;14677
156141;14705
156150;14624
156158;14631
156166;14512
156177;14581
156185;14541
156194;14569
156202;14451
156210;14460
156218;14398
156226;14486
156234;14437
156243;14544
156251;14459
156259;14451
156267;14309
156275;14321
156284;14257
156292;14325
156300;14264
156308;14255
156316;14187
156325;14272
156333;14154
156342;14081
156350;13825
156358;13773
156367;13745
156375;13814
156383;13732
156391;13820
156399;13864
156408;13998
156416;14016
156424;14065
156432;14026
156440;14039
156449;14022
156457;14040
156465;14020
156473;13998
156484;14482
156493;14290
156501;11529
156509;7564
156517;5956
156525;11692
156534;16600
156542;16355
156550;15579
156558;15116
156566;14909
156574;14657
156583;14471
156591;14405
156599;14328
156607;14278
156615;14203
156624;14128
156632;14037
156640;13945
156648;13843
156656;13749
156665;13564
156673;13414
156681;13253
156689;13067
156697;12798
156706;12566
156714;12404
156722;12310
156730;12354
156738;12357
156746;12554
156755;12785
156763;13141
156771;13501
156779;13962
156791;14463
156799;14742
156807;14906
156815;14902
156823;14931
156831;14912
156840;14868
156848;14782
156856;14767
156864;14740
156872;14692
156881;14653
156889;14558
156897;14482
156905;14401
156913;14379
156922;14348
156930;14394
156938;14381
156946;14382
156954;14357
156963;14406
156971;14339
156979;14323
156987;14219
156995;14086
157004;13893
157012;13828
157020;13766
157028;13794
157036;13798
157044;13925
157053;13911
157061;14063
157069;14013
157077;14075
157089;14126
157097;14210
157105;14180
157113;14175
157121;14092
157129;14031
157138;13881
157146;14455
157154;13670
157162;10491
157170;6982
157179;6599
157187;13578
157195;16933
157203;16190
157211;15451
157220;14713
157228;14481
157236;14126
157244;13968
157252;13790
157261;13737
157269;13599
157277;13578
157285;13437
157293;13409
157302;13263
157310;13216
157318;13009
157326;12915
157334;12693
157342;12528
157351;12212
157359;12026
157367;11714
157375;11595
157383;11480
157395;11690
157403;11824
157411;12064
157419;12306
157427;12770
157436;13174
157444;13598
157452;13820
157460;14099
157468;14157
157477;14232
157485;14138
157493;14162
157501;14118
157509;14166
157518;14119
157526;14177
157534;14070
157542;14089
157550;13967
157559;13972
157567;13906
157575;13930
157583;13876
157591;13917
157599;13873
157608;13937
157616;13892
157624;13890
157632;13832
157640;13868
157649;13841
157657;13857
157665;13808
157673;13866
157681;13853
157693;13972
157701;13867
157709;13714
157717;13542
157725;13571
157734;13541
157742;13600
157750;13528
157758;13626
157766;13603
157775;13786
157783;13806
157791;13835
157799;13789
157807;13836
157816;13772
157824;13736
157832;13587
157840;13623
157848;14126
157857;12582
157865;8480
157873;4898
157881;6295
157889;13978
157897;15754
157906;15277
157914;14706
157922;14484
157930;14201
157938;14009
157947;13943
157955;13877
157963;13814
157971;13685
157979;13643
157988;13578
157999;13624
158007;13632
158015;13459
158023;13294
158032;13120
158040;12955
158048;12710
158056;12483
158064;12225
158073;12035
158081;11917
158089;11941
158097;12021
158105;12150
158114;12352
158122;12648
158130;13023
158138;13400
158146;13814
158154;14095
158163;14341
158171;14416
158179;14487
158187;14422
158195;14433
158204;14361
158212;14363
158220;14283
158228;14300
158236;14214
158245;14234
158253;14153
158261;14245
158269;14217
158277;14268
158286;14180
158294;14273
158305;14264
158313;14281
158321;14184
158330;14176
158338;14143
158346;14151
158354;14093
158362;14082
158371;13973
158379;13862
158387;13727
158395;13769
158403;13649
158412;13702
158420;13770
158428;13968
158436;14050
158444;14220
158452;14235
158461;14322
158469;14227
158477;14286
158485;14216
158493;14253
158502;14152
158510;14148
158518;14206
158526;14764
158534;12878
158543;8676
158551;5078
158559;7285
158567;14928
158576;16295
158585;15633
158593;15162
158601;14895
158611;14669
158619;14555
158628;14495
158636;14336
158644;14308
158652;14190
158660;14170
158669;14011
158677;13989
158685;13802
158693;13755
158701;13562
158710;13502
158718;13235
158726;13074
158734;12732
158742;12513
158751;12179
158760;12143
158768;12072
158776;12235
158784;12259
158792;12523
158801;12768
158809;13247
158817;13573
158825;13997
158833;14251
158842;14491
158850;14568
158858;14701
158866;14712
158874;14798
158883;14682
158891;14661
158899;14489
158918;14871
158927;14947
158935;14750
158943;14721
158951;14567
158959;14586
158968;14452
158976;14483
158984;14373
158992;14377
159000;14243
159009;14221
159017;14089
159025;14144
159033;14066
159041;14116
159049;14076
159058;14137
159066;14055
159074;14143
159082;14107
159090;14033
159099;13770
159107;13674
159115;13618
159123;13661
159131;13630
159140;13663
159148;13687
159156;13780
159164;13844
159172;13917
159181;13918
159189;13915
159197;13891
159205;13838
159213;13794
159225;13856
159233;13797
159241;14386
159249;13177
159257;9589
159266;5645
159274;5954
159282;13415
159290;15988
159298;15455
159306;14772
159315;14533
159323;14317
159331;14011
159339;13865
159347;13734
159356;13670
159364;13585
159372;13534
159380;13445
159388;13330
159397;13227
159405;13126
159413;13077
159421;12910
159429;12747
159438;12508
159446;12259
159454;11947
159462;11709
159470;11503
159479;11509
159487;11569
159495;11760
159503;11884
159511;12223
159523;12818
159531;13265
159539;13644
159547;13932
159555;14152
159564;14300
159572;14355
159580;14386
159588;14356
159596;14340
159604;14314
159613;14276
159621;14222
159629;14207
159637;14123
159645;14089
159654;14043
159662;14068
159670;14012
159678;14023
159686;13953
159695;14029
159703;13933
159711;13995
159719;13956
159727;14046
159736;14007
159744;14095
159752;14022
159760;14120
159768;14029
159777;14123
159785;13990
159793;13952
159801;13675
159809;13649
159817;13644
159829;13867
159837;13912
159845;14037
159853;14072
159862;14251
159870;14279
159878;14331
159886;14276
159894;14303
159902;14251
159911;14331
159919;14253
159927;14273
159935;14130
159943;14798
159952;13473
159960;9824
159968;6173
159976;7015
159984;14654
159993;16517
160001;15846
160009;15214
160017;14934
160025;14837
160034;14514
160042;14478
160050;14343
160058;14359
160066;14249
160074;14240
160083;14121
160091;14084
160099;13898
160107;13801
160115;13619
160124;13495
160135;13174
160143;13098
160151;12761
160159;12548
160168;12254
160176;12195
160184;12091
160192;12209
160200;12334
160209;12650
160217;12928
160225;13432
160233;13856
160241;14321
160250;14550
160258;14804
160266;14909
160274;15036
160282;15006
160291;15108
160299;15005
160307;15017
160315;14918
160323;14905
160332;14796
160340;14761
160348;14694
160356;14689
160364;14620
160372;14602
160381;14553
160389;14586
160397;14584
160405;14574
160413;14563
160422;14527
160433;14503
160441;14574
160449;14308
160457;14227
160466;14081
160474;14121
160482;14031
160490;14120
160498;14111
160507;14332
160515;14370
160523;14453
160531;14459
160539;14465
160548;14400
160556;14428
160564;14355
160572;14282
160580;14162
160589;14093
160597;14336
160605;14116
160613;11470
160621;7761
160630;6662
160638;12103
160646;17087
160654;16532
160662;15776
160670;14987
160679;14631
160687;14330
160695;14058
160703;13849
160711;13859
160720;13808
160728;13788
160739;13749
160747;13706
160755;13600
160764;13453
160772;13321
160780;13156
160788;12963
160796;12741
160805;12485
160813;12267
160821;12027
160829;11884
160837;11795
160846;11867
160854;11965
160862;12192
160870;12437
160878;12872
160887;13206
160895;13580
160903;13814
160911;14116
160919;14287
160927;14412
160936;14424
160944;14506
160952;14479
160960;14519
160968;14411
160977;14380
160985;14275
160993;14269
161001;14134
161009;14177
161018;14063
161026;14090
161034;13993
161045;14092
161053;14110
161062;14157
161070;14081
161078;14107
161086;14061
161094;14121
161103;14084
161111;14104
161119;14027
161127;14036
161135;13854
161144;13773
161152;13604
161160;13633
161168;13533
161176;13636
161185;13651
161193;13826
161201;13801
161209;13874
161217;13801
161225;13900
161234;13797
161242;13850
161250;13777
161258;13799
161266;13621
161275;14337
161283;13614
161291;10394
161299;6149
161307;5493
161316;12158
161324;15977
161332;15587
161343;14828
161351;14561
161360;14321
161368;13968
161376;13954
161384;13805
161392;13798
161401;13635
161409;13624
161417;13474
161425;13497
161433;13360
161442;13346
161450;13151
161458;13072
161466;12796
161474;12661
161482;12311
161491;12155
161500;11870
161508;11820
161516;11739
161524;11901
161533;11953
161541;12201
161549;12415
161557;12850
161565;13166
161574;13627
161582;13908
161590;14194
161598;14282
161606;14436
161615;14427
161623;14487
161631;14437
161639;14456
161650;14435
161659;14529
161667;14410
161675;14488
161683;14392
161691;14413
161700;14312
161708;14412
161716;14338
161724;14338
161732;14223
161741;14278
161749;14231
161757;14314
161765;14277
161773;14349
161782;14302
161790;14341
161798;14309
161806;14340
161814;14287
161822;14259
161831;14121
161839;13962
161847;13799
161855;13839
161863;13871
161872;13953
161880;13942
161888;14006
161896;14073
161904;14170
161913;14221
161921;14201
161929;14185
161937;14118
161945;14090
161957;14121
161965;14070
161973;13979
161981;14424
161989;13930
161998;10807
162006;6479
162014;5317
162022;11450
162030;15912
162039;15841
162047;15134
162055;14859
162063;14615
162071;14345
162079;14240
162088;14187
162096;14091
162104;13951
162112;13899
162120;13795
162129;13712
162137;13562
162145;13482
162153;13310
162161;13184
162170;12959
162178;12784
162186;12490
162194;12323
162202;12006
162211;11898
162219;11765
162227;11878
162235;11873
162243;12104
162255;12497
162263;12927
162271;13254
162279;13593
162287;13943
162296;14210
162304;14302
162312;14359
162320;14320
162328;14347
162337;14317
162345;14297
162353;14202
162361;14231
162369;14121
162377;14086
162386;13948
162394;13950
162402;13845
162410;13901
162418;13802
162427;13846
162435;13734
162443;13795
162451;13686
162459;13752
162468;13661
162476;13710
162484;13616
162492;13701
162500;13616
162509;13673
162517;13602
162525;13640
162533;13492
162541;13409
162550;13247
162561;13383
162569;13440
162577;13482
162585;13474
162594;13570
162602;13606
162610;13707
162618;13645
162626;13707
162634;13628
162643;13635
162651;13531
162659;13586
162667;13453
162675;13536
162684;14038
162692;13801
162700;10800
162708;6573
162716;4989
162725;11117
162733;15878
162741;15785
162749;14987
162757;14732
162766;14506
162774;14310
162782;14100
162790;14106
162798;13993
162807;14006
162815;13845
162823;13809
162831;13689
162839;13683
162847;13540
162856;13466
162867;13325
162875;13318
162883;13000
162892;12798
162900;12466
162908;12304
162916;12065
162924;12091
162932;12073
162941;12260
162949;12293
162957;12612
162965;12899
162973;13377
162982;13720
162990;14082
162998;14256
163006;14491
163014;14499
163023;14606
163031;14615
163039;14651
163047;14540
163055;14520
163064;14488
163072;14516
163080;14428
163088;14443
163096;14400
163105;14385
163113;14366
163121;14359
163129;14307
163137;14257
163145;14254
163154;14237
163165;14291
163173;14475
163181;14406
163190;14409
163198;14205
163206;14093
163214;13895
163222;13885
163230;13780
163239;13876
163247;13903
163255;14037
163263;14131
163271;14202
163280;14157
163288;14137
163296;14099
163304;14086
163312;14004
163321;13935
163329;13896
163337;13826
163345;13764
163353;14408
163362;13424
163370;9768
163378;5765
163386;5828
163394;13662
163402;16156
163411;15669
163419;14871
163427;14653
163435;14393
163443;14195
163452;14029
163460;13993
163471;13925
163479;13881
163487;13798
163496;13673
163504;13616
163512;13545
163520;13468
163528;13353
163537;13165
163545;13020
163553;12793
163561;12571
163569;12317
163578;12176
163586;12061
163594;12128
163602;12189
163610;12400
163619;12548
163627;12855
163635;13208
163643;13691
163651;14047
163660;14367
163668;14503
163676;14715
163684;14705
163692;14780
163700;14722
163709;14772
163717;14687
163725;14745
163733;14625
163741;14656
163750;14551
163758;14560
163769;14537
163777;14604
163785;14555
163794;14567
163802;14503
163810;14540
163818;14460
163826;14462
163835;14375
163843;14288
163851;14092
163859;14058
163867;13965
163876;14009
163884;13987
163892;14098
163900;14124
163908;14289
163917;14309
163925;14456
163933;14383
163941;14426
163949;14394
163958;14474
163966;14422
163974;14482
163982;14362
163990;14358
163998;14821
164007;13453
164015;9505
164023;6812
164031;7921
164039;15827
164048;17174
164056;16467
164064;15636
164075;15126
164083;14883
164092;14640
164100;14409
164108;14393
164116;14235
164124;14176
164133;13954
164141;13858
164149;13647
164157;13612
164165;13439
164174;13404
164182;13206
164190;13096
164198;12782
164206;12631
164215;12374
164223;12228
164231;12085
164239;12169
164247;12235
164255;12414
164264;12571
164272;12925
164280;13272
164288;13709
164296;14005
164305;14332
164313;14495
164321;14632
164329;14674
164337;14708
164346;14725
164354;14716
164362;14736
164370;14720
164381;14657
164390;14723
164398;14580
164406;14576
164414;14484
164422;14517
164431;14443
164439;14545
164447;14518
164455;14525
164463;14424
164472;14289
164480;14171
164488;14187
164496;14141
164504;14158
164513;14180
164521;14312
164529;14387
164537;14450
164545;14422
164553;14407
164562;14387
164570;14352
164578;14321
164586;14273
164594;14241
164603;14173
164611;14104
164619;14161
164627;14508
164635;12627
164644;8707
164652;6638
164660;8976
164668;16332
164676;17061
164688;16199
164696;15493
164704;15020
164712;14647
164720;14362
164729;14155
164737;14079
164745;13959
164753;13882
164761;13795
164770;13675
164778;13622
164786;13514
164794;13415
164802;13232
164810;13015
164819;12766
164827;12502
164835;12219
164843;11999
164851;11783
164860;11695
164868;11648
164876;11752
164884;11867
164892;12191
164901;12551
164909;12983
164917;13384
164926;13783
164934;13965
164943;14190
164951;14214
164959;14295
164967;14282
164975;14382
164986;14349
164994;14401
165002;14351
165010;14244
165018;14116
165027;14099
165035;14022
165043;13980
165051;13921
165059;13951
165068;13891
165077;13866
165085;13800
165093;13768
165101;13587
165110;13546
165118;13463
165126;13452
165134;13394
165142;13549
165150;13615
165159;13771
165167;13788
165175;13827
165183;13745
165191;13791
165200;13765
165208;13809
165216;13683
165224;13733
165232;13732
165241;13731
165249;14189
165257;13616
165265;10499
165273;7448
165282;6870
165293;15616
165301;16985
165309;16375
165317;15557
165326;14953
165334;14580
165342;14293
165350;14048
165358;14003
165367;13838
165375;13802
165383;13624
165391;13615
165399;13532
165407;13459
165416;13280
165424;13222
165432;13025
165440;12891
165448;12566
165457;12331
165465;11981
165473;11819
165481;11655
165489;11720
165498;11773
165506;11941
165514;12080
165522;12451
165530;12822
165539;13306
165547;13643
165555;13984
165563;14178
165571;14327
165580;14391
165591;14605
165599;14615
165607;14673
165615;14589
165624;14571
165632;14426
165640;14369
165648;14222
165656;14259
165665;14172
165673;14159
165681;14047
165689;14086
165697;13979
165705;13971
165714;13882
165722;13881
165730;13721
165738;13666
165746;13656
165755;13731
165763;13737
165771;13845
165779;13867
165787;13977
165796;14056
165804;14119
165812;14093
165820;14089
165828;14032
165837;14046
165845;14018
165853;13973
165861;13933
165869;13855
165878;14483
165886;13323
165897;8045
165905;5420
165913;8208
165922;15406
165930;16257
165938;15874
165946;15161
165954;14903
165962;14637
165971;14405
165979;14265
165987;14185
165995;14068
166003;14025
166012;13940
166020;13830
166028;13755
166036;13666
166044;13586
166053;13488
166061;13345
166069;13119
166077;12915
166085;12686
166094;12451
166102;12184
166110;12075
166118;12001
166126;12121
166135;12195
166143;12526
166151;12843
166159;13325
166167;13689
166175;14074
166184;14254
166192;14472
166203;14544
166211;14619
166220;14634
166228;14597
166236;14533
166244;14527
166252;14470
166260;14411
166269;14363
166277;14352
166285;14285
166293;14258
166301;14202
166310;14215
166318;14139
166326;14130
166334;14030
166342;14047
166351;14046
166359;14095
166367;14038
166375;14011
166383;13897
166392;13966
166400;13932
166408;14041
166416;13944
166424;13904
166433;13670
166441;13673
166449;13644
166457;13743
166465;13691
166473;13764
166482;13710
166490;13828
166501;13987
166509;14169
166518;14127
166526;14200
166534;14173
166542;14217
166550;14092
166558;14085
166567;14000
166575;14524
166583;13234
166591;9608
166599;5789
166608;6501
166616;13608
166624;16203
166632;15905
166640;15427
166649;15128
166657;14839
166665;14513
166673;14447
166681;14301
166690;14257
166698;14101
166706;14089
166714;13935
166722;13939
166730;13806
166739;13728
166747;13534
166755;13491
166763;13280
166771;13094
166780;12767
166788;12572
166796;12298
166807;12177
166815;12156
166824;12279
166832;12287
166840;12581
166848;12860
166856;13402
166865;13772
166873;14205
166881;14432
166889;14681
166897;14722
166906;14878
166914;14814
166922;14897
166930;14784
166938;14807
166947;14715
166955;14766
166963;14651
166971;14680
166979;14608
166988;14632
166996;14512
167004;14513
167012;14369
167020;14366
167028;14251
167037;14294
167045;14208
167053;14182
167061;14079
167069;14066
167078;14017
167086;14006
167094;13993
167102;13967
167113;13972
167122;14146
167130;14069
167138;14137
167146;13993
167154;14060
167163;13952
167171;14049
167179;13980
167187;14092
167195;13967
167204;13922
167212;13741
167220;13753
167228;13638
167236;13740
167245;13685
167253;13793
167261;13826
167269;13904
167277;13988
167286;14054
167294;14065
167302;14049
167310;14031
167318;13967
167326;13939
167335;13825
167343;13888
167351;14114
167359;12948
167367;9108
167376;5711
167384;6655
167392;13698
167400;15517
167408;15195
167420;14752
167428;14546
167436;14259
167444;14053
167452;13936
167461;13809
167469;13767
167477;13726
167485;13606
167493;13587
167502;13453
167510;13406
167518;13267
167526;13218
167534;13049
167543;12975
167551;12693
167559;12505
167567;12109
167575;11976
167583;11753
167592;11852
167600;11809
167608;12072
167616;12147
167624;12576
167633;12887
167641;13465
167649;13751
167657;14204
167665;14268
167674;14493
167682;14424
167690;14606
167698;14452
167706;14535
167718;14501
167726;14646
167734;14525
167742;14522
167750;14375
167759;14386
167767;14290
167775;14363
167783;14270
167791;14333
167800;14240
167808;14320
167816;14200
167824;14312
167832;14237
167841;14386
167849;14245
167857;14313
167865;14128
167873;14212
167881;14098
167890;14189
167898;14056
167906;14192
167914;14026
167922;14105
167931;13962
167939;14073
167947;13955
167955;14004
167963;13806
167972;13914
167980;13767
167988;13859
167996;13752
168004;13849
168013;13644
168024;13614
168032;13538
168040;13589
168048;13419
168057;13492
168065;13337
168073;13413
168081;13355
168089;13532
168098;13534
168106;13694
168114;13546
168122;13602
168130;13459
168138;13530
168147;13427
168155;13463
168164;13883
168172;13269
168180;10233
168189;6307
168197;5492
168205;11881
168213;15174
168221;15092
168230;14434
168238;14271
168246;13929
168254;13747
168262;13548
168271;13536
168279;13428
168287;13442
168295;13336
168303;13333
168312;13254
168323;13343
168331;13232
168339;13262
168347;13067
168356;13026
168364;12737
168372;12623
168380;12285
168388;12122
168397;11813
168405;11856
168413;11819
168421;11989
168429;12067
168438;12394
168446;12696
168454;13195
168462;13515
168470;13853
168478;14087
168487;14368
168495;14463
168503;14569
168511;14553
168519;14542
168528;14464
168536;14480
168544;14448
168552;14432
168560;14414
168569;14391
168577;14359
168585;14333
168593;14351
168601;14316
168610;14383
168618;14341
168629;14350
168637;14482
168645;14425
168654;14457
168662;14350
168670;14350
168678;14328
168686;14363
168695;14279
168703;14258
168711;14201
168719;14189
168727;14123
168735;14090
168744;14091
168752;14080
168760;14030
168768;13990
168776;14029
168785;13968
168793;13918
168801;13787
168809;13813
168817;13731
168826;13740
168834;13667
168842;13711
168850;13669
168858;13715
168867;13532
168875;13456
168883;13248
168891;13288
168899;13190
168908;13270
168916;13168
168924;13296
168935;13445
168943;13637
168952;13668
168960;13692
168968;13634
168976;13676
168984;13666
168993;13668
169001;13508
169009;13975
169017;13438
169025;10919
169033;7037
169042;5794
169050;11241
169058;15454
169066;15379
169074;14851
169083;14482
169091;14360
169099;14016
169107;13990
169115;13807
169124;13799
169132;13629
169140;13654
169148;13459
169156;13509
169165;13358
169173;13419
169181;13223
169189;13223
169197;13008
169206;12926
169214;12645
169222;12532
169233;12222
169241;12139
169250;11937
169258;12005
169266;11965
169274;12214
169282;12380
169290;12784
169299;13093
169307;13588
169315;13805
169323;14189
169331;14335
169340;14569
169348;14535
169356;14681
169364;14618
169372;14696
169381;14538
169389;14558
169397;14421
169405;14486
169413;14344
169422;14391
169430;14318
169438;14435
169446;14385
169454;14467
169463;14330
169471;14392
169479;14280
169487;14329
169495;14241
169503;14274
169512;14211
169520;14265
169528;14176
169539;14301
169548;14226
169556;14278
169564;14153
169572;14175
169580;14033
169588;14106
169597;13964
169605;14021
169613;13904
169621;13952
169629;13878
169638;13953
169646;13868
169654;13932
169662;13862
169670;13943
169679;13826
169687;13876
169695;13735
169703;13696
169711;13583
169720;13635
169728;13651
169736;13754
169744;13725
169752;13752
169761;13826
169769;13901
169777;13917
169785;13939
169793;13940
169801;13915
169810;13891
169818;13822
169826;13818
169837;14470
169846;13445
169854;10343
169862;7057
169870;7281
169878;14023
169886;16095
169895;15575
169903;14903
169911;14582
169919;14351
169927;14061
169936;13928
169944;13822
169952;13757
169960;13652
169968;13584
169977;13490
169985;13449
169993;13395
170001;13295
170009;13210
170018;13064
170026;12940
170034;12734
170042;12546
170050;12242
170058;12035
170067;11777
170075;11758
170083;11733
170091;11921
170099;12019
170108;12325
170116;12547
170124;12983
170132;13277
170143;13833
170152;14118
170160;14270
170168;14329
170176;14415
170184;14422
170193;14398
170201;14342
170209;14301
170217;14219
170225;14207
170234;14114
170242;14106
170250;14006
170258;14108
170266;14082
170275;14160
170283;14063
170291;14118
170299;14001
170307;14096
170316;13985
170324;14052
170332;13972
170340;14040
170348;13955
170356;14052
170365;13952
170373;14039
170381;13907
170389;13971
170397;13843
170406;13893
170414;13796
170422;13858
170430;13737
170438;13788
170450;13773
170458;13895
170466;13764
170474;13715
170482;13510
170491;13493
170499;13377
170507;13507
170515;13470
170523;13573
170532;13521
170540;13685
170548;13658
170556;13817
170564;13753
170573;13842
170581;13691
170589;13754
170597;13612
170605;13617
170614;13881
170622;13508
170630;10940
170638;7582
170646;6469
170654;12342
170663;15946
170671;15658
170679;14769
170687;14462
170695;14135
170704;13953
170712;13750
170720;13734
170728;13583
170736;13618
170748;13588
170756;13701
170764;13545
170772;13559
170780;13372
170789;13402
170797;13157
170805;13074
170813;12786
170821;12661
170830;12365
170838;12229
170846;12021
170854;12107
170862;12085
170871;12271
170879;12396
170887;12728
170895;12937
170903;13360
170911;13644
170920;14043
170928;14253
170936;14477
170944;14537
170952;14670
170961;14680
170970;14764
170978;14710
170986;14756
170994;14663
171003;14714
171011;14681
171019;14661
171027;14582
171035;14547
171044;14520
171054;14584
171062;14531
171070;14563
171078;14477
171087;14465
171096;14347
171104;14426
171112;14353
171120;14378
171129;14278
171137;14313
171145;14267
171153;14301
171161;14266
171170;14285
171178;14191
171186;14166
171194;14015
171202;13921
171210;13802
171219;13786
171227;13753
171235;13742
171243;13809
171251;13845
171260;13942
171268;13999
171276;13967
171284;13930
171292;13896
171301;13857
171309;13899
171317;13810
171325;13784
171333;13989
171342;13057
171350;10047
171361;7338
171369;9703
171377;16527
171386;16812
171394;15898
171402;15058
171410;14430
171418;14085
171427;13749
171435;13536
171443;13459
171451;13366
171459;13328
171468;13218
171476;13194
171484;13079
171492;13061
171500;12945
171508;12898
171517;12697
171525;12608
171533;12337
171541;12175
171549;11884
171558;11738
171566;11538
171574;11598
171582;11605
171590;11861
171599;11918
171607;12213
171615;12468
171623;12960
171631;13209
171640;13655
171648;13849
171659;14219
171667;14341
171675;14450
171684;14429
171692;14445
171700;14323
171708;14295
171716;14194
171725;14193
171733;14069
171741;14149
171749;14087
171757;14178
171766;14045
171774;14079
171782;13948
171790;14077
171798;14003
171806;14131
171815;13990
171823;14079
171831;13936
171839;14064
171847;13954
171856;14122
171864;13989
171872;14066
171880;13855
171888;13830
171897;13608
171905;13673
171913;13500
171921;13584
171929;13478
171938;13692
171946;13678
171954;13810
171965;13768
171973;13916
171982;13741
171990;13817
171998;13637
172006;13738
172014;13504
172023;13852
172031;13762
172039;11632
172047;7612
172055;5866
172063;10395
172072;16212
172080;15918
172088;15196
172096;14329
172104;14136
172113;13706
172121;13591
172129;13387
172137;13409
172145;13245
172154;13282
172162;13111
172170;13129
172178;13024
172186;13006
172195;12869
172203;12781
172211;12579
172219;12474
172227;12252
172236;12085
172244;11803
172252;11667
172260;11547
172271;11698
172280;11746
172288;12025
172296;12212
172304;12585
172312;12833
172321;13317
172329;13591
172337;13966
172345;14055
172353;14237
172361;14253
172370;14372
172378;14265
172386;14279
172394;14199
172402;14235
172411;14158
172419;14145
172427;14104
172435;14116
172443;14079
172452;14087
172460;14066
172468;14053
172476;14072
172484;14065
172493;14115
172501;14113
172509;14177
172517;14202
172525;14246
172534;14128
172542;14029
172550;13847
172558;13765
172569;13817
172578;13821
172586;13864
172594;13861
172602;13955
172610;14040
172618;14121
172627;14083
172635;14073
172643;14074
172651;14099
172659;14134
172668;14133
172676;14087
172684;14235
172692;14593
172700;12585
172709;8431
172717;5553
172725;9155
172733;16146
172741;16528
172750;15764
172758;15182
172766;14876
172774;14685
172782;14333
172791;14296
172799;14064
172807;14079
172815;13889
172823;13875
172831;13656
172840;13710
172848;13530
172856;13604
172864;13423
172876;13385
172884;13285
172892;13128
172900;12819
172908;12577
172916;12296
172925;12307
172933;12288
172941;12405
172949;12463
172957;12759
172966;12998
172974;13479
172982;13721
172990;14113
172998;14281
173007;14577
173015;14620
173023;14792
173031;14717
173039;14849
173048;14775
173056;14854
173064;14681
173072;14777
173080;14610
173089;14600
173097;14434
173105;14428
173113;14290
173121;14353
173129;14225
173138;14288
173146;14160
173154;14262
173162;14192
173174;14343
173182;14223
173190;14122
173198;13881
173206;13955
173214;13808
173223;13982
173231;14029
173239;14217
173247;14167
173255;14292
173264;14231
173272;14333
173280;14199
173288;14269
173296;14206
173305;14289
173313;14142
173321;14221
173329;14357
173337;14599
173346;12294
173354;8325
173362;6214
173370;10355
173378;16741
173386;16771
173395;15984
173403;15350
173411;14947
173419;14764
173427;14398
173436;14296
173444;14143
173452;14113
173460;14029
173468;13940
173480;13842
173488;13862
173496;13609
173504;13532
173512;13255
173521;13149
173529;12853
173537;12723
173545;12432
173553;12283
173562;12046
173570;12053
173578;12053
173586;12262
173594;12376
173603;12703
173611;12941
173619;13389
173627;13730
173636;14067
173645;14263
173653;14437
173661;14545
173669;14657
173677;14650
173686;14671
173694;14623
173702;14582
173710;14521
173718;14421
173726;14379
173735;14335
173743;14305
173751;14240
173759;14233
173767;14205
173776;14236
173787;14342
173795;14314
173803;14374
173811;14174
173820;14106
173828;14049
173836;14044
173844;14042
173852;14124
173861;14123
173869;14189
173877;14225
173885;14251
173893;14213
173902;14153
173910;14085
173918;14047
173926;14012
173934;13955
173943;13933
173951;13856
173959;14199
173967;14107
173975;11727
173983;7601
173992;5605
174000;10391
174008;16340
174016;16178
174024;15626
174033;14963
174041;14760
174049;14422
174057;14256
174065;14040
174074;14012
174085;13948
174093;13911
174101;13781
174109;13648
174118;13469
174126;13336
174134;13169
174142;13069
174150;12848
174159;12665
174167;12329
174175;12129
174183;11844
174191;11794
174200;11719
174208;11842
174216;11892
174224;12178
174232;12439
174241;12874
174249;13194
174257;13629
174265;13808
174273;14068
174281;14082
174290;14250
174298;14246
174306;14353
174314;14337
174322;14487
174331;14422
174339;14522
174347;14441
174355;14496
174363;14395
174372;14423
174380;14301
174391;14471
174399;14453
174407;14457
174416;14366
174424;14470
174432;14412
174440;14485
174448;14397
174457;14458
174465;14277
174473;14260
174481;14060
174489;14111
174498;14000
174506;14097
174514;14057
174522;14197
174530;14216
174538;14382
174547;14290
174555;14356
174563;14247
174571;14306
174579;14139
174588;14111
174596;13890
174604;13801
174612;14310
174620;13411
174629;9828
174637;5396
174645;4728
174653;12181
174661;15520
174670;15362
174678;14714
174686;14503
174697;14137
174705;14087
174714;13886
174722;13879
174730;13697
174738;13689
174746;13524
174755;13522
174763;13368
174771;13361
174779;13201
174787;13186
174796;12942
174804;12835
174812;12531
174820;12390
174828;12090
174836;11959
174845;11822
174853;11908
174861;11940
174869;12165
174877;12332
174886;12703
174894;13101
174902;13544
174910;13874
174918;14197
174927;14357
174935;14515
174943;14620
174951;14632
174959;14599
174968;14598
174976;14544
174984;14448
174995;14518
175003;14575
175012;14367
175020;14402
175028;14315
175036;14347
175044;14276
175053;14335
175061;14260
175069;14282
175077;14299
175085;14404
175094;14367
175102;14433
175110;14289
175118;14187
175126;14054
175134;14024
175143;13980
175151;13979
175159;13958
175167;13960
175175;14092
175184;14149
175192;14188
175200;14215
175208;14232
175216;14113
175225;14098
175233;14037
175242;14046
175250;13898
175258;14281
175267;14295
175275;11980
175283;7349
175291;4583
175301;12092
175310;15926
175318;15733
175326;15160
175334;14917
175342;14677
175351;14408
175359;14348
175368;14272
175376;14218
175384;14097
175393;14061
175401;13974
175409;13938
175417;13785
175425;13753
175433;13593
175442;13489
175450;13216
175458;13078
175466;12816
175474;12625
175483;12297
175491;12190
175499;12006
175507;12147
175515;12144
175524;12389
175532;12517
175540;12947
175548;13265
175556;13701
175565;13931
175573;14276
175581;14352
175589;14535
175597;14529
175609;14643
175617;14633
175625;14667
175633;14603
175641;14620
175650;14547
175658;14567
175666;14437
175674;14401
175682;14276
175690;14287
175699;14157
175707;14167
175715;14140
175723;14268
175731;14198
175740;14234
175748;14133
175756;14114
175764;14063
175772;14031
175781;13852
175789;13860
175797;13796
175805;13799
175813;13824
175822;13974
175830;14019
175838;14097
175846;14027
175854;14060
175863;13934
175871;13898
175879;13823
175887;13848
175895;13754
175907;13786
175915;13780
175923;14514
175931;13384
175939;9735
175948;6332
175956;6125
175964;13794
175972;16552
175980;15960
175988;15401
175997;14808
176005;14530
176013;14182
176021;13959
176029;13752
176038;13712
176046;13551
176054;13533
176062;13419
176070;13382
176079;13273
176087;13235
176095;13132
176103;12968
176111;12720
176120;12585
176128;12365
176136;12197
176144;11983
176152;11858
176161;11837
176169;11913
176177;12012
176185;12202
176193;12457
176201;12841
176213;13466
176221;13987
176229;14254
176237;14486
176246;14612
176254;14723
176262;14709
176270;14728
176278;14709
176286;14695
176295;14619
176303;14600
176311;14522
176319;14446
176327;14389
176336;14376
176344;14386
176352;14391
176360;14330
176368;14292
176377;14282
176385;14275
176393;14276
176401;14246
176409;14219
176418;14106
176426;13986
176434;13933
176442;13930
176450;13881
176458;13931
176467;13960
176475;14042
176483;14121
176491;14168
176499;14128
176508;14159
176519;14238
176527;14318
176535;14306
176543;14284
176552;14275
176560;14208
176568;14793
176576;14346
176584;11090
176593;7042
176601;5505
176609;11789
176617;16323
176625;16181
176634;15638
176642;15102
176650;14738
176658;14410
176666;14131
176675;13999
176683;13885
176691;13777
176699;13647
176707;13591
176716;13439
176724;13426
176732;13321
176740;13278
176748;13142
176756;13049
176765;12854
176773;12632
176781;12320
176789;12084
176797;11839
176806;11820
176817;11955
176825;12220
176833;12333
176841;12627
176850;12985
176858;13452
176866;13797
176874;14115
176882;14236
176891;14349
176899;14359
176907;14425
176915;14363
176923;14402
176932;14344
176940;14389
176948;14333
176956;14358
176964;14258
176973;14251
176981;14155
176989;14135
176997;14073
177005;14091
177014;14032
177022;14031
177030;13956
177038;14013
177046;13973
177054;14027
177063;14024
177071;14109
177079;14102
177087;14151
177095;14100
177104;14154
177112;14162
177123;14317
177131;14320
177139;14248
177148;14022
177156;13955
177164;13934
177172;13953
177180;13886
177189;13885
177197;13834
177205;13939
177213;13943
177221;14016
177230;13936
177238;13960
177246;13886
177254;13895
177262;13840
177271;13847
177279;13779
177287;14371
177295;13118
177303;9347
177311;5271
177320;5421
177328;12581
177336;15533
177344;15305
177352;14823
177361;14586
177369;14348
177378;14106
177386;13979
177394;13828
177403;13725
177411;13619
177419;13574
177429;13564
177437;13643
177446;13522
177454;13409
177462;13253
177470;13165
177478;12934
177487;12742
177495;12483
177504;12294
177512;12089
177520;12058
177529;12113
177537;12296
177545;12491
177553;12714
177561;12970
177570;13346
177578;13774
177586;14119
177594;14373
177602;14525
177610;14604
177619;14609
177627;14567
177635;14478
177643;14435
177651;14327
177660;14287
177668;14220
177676;14175
177684;14068
177692;13973
177701;13846
177709;13800
177717;13706
177728;13758
177736;13761
177745;13649
177753;13647
177761;13636
177769;13646
177777;13620
177786;13566
177794;13498
177802;13433
177810;13401
177818;13394
177827;13393
177835;13411
177843;13460
177851;13409
177859;13332
177868;13163
177876;13097
177884;13059
177892;13095
177900;13057
177908;13091
177917;13106
177925;13193
177933;13269
177941;13386
177949;13350
177958;13390
177966;13360
177974;13401
177982;13333
177990;13351
177999;13220
178007;13701
178015;13285
178023;10516
178034;5138
178043;5130
178051;12759
178059;15581
178067;15300
178075;14656
178084;14252
178092;14036
178100;13774
178108;13700
178116;13585
178125;13561
178133;13518
178141;13567
178149;13435
178157;13478
178166;13387
178174;13384
178182;13282
178190;13263
178198;13069
178206;12949
178215;12704
178223;12501
178231;12168
178239;11999
178247;11872
178256;11957
178264;12056
178272;12288
178280;12515
178288;12914
178297;13290
178305;13799
178313;14101
178321;14379
178329;14545
178349;15181
178357;15305
178365;15162
178373;15129
178382;14989
178390;14955
178398;14848
178406;14810
178414;14697
178423;14705
178431;14650
178439;14670
178447;14612
178455;14656
178463;14639
178472;14712
178480;14646
178488;14685
178496;14624
178504;14615
178513;14533
178521;14530
178529;14450
178537;14413
178545;14230
178554;14138
178562;14040
178570;14024
178578;13983
178586;14050
178595;14146
178603;14268
178611;14352
178619;14394
178627;14404
178636;14375
178647;14416
178655;14498
178663;14420
178671;14408
178680;14309
178688;14283
178696;14491
178704;14614
178712;12395
178721;8429
178729;6051
178737;9977
178745;16305
178753;16600
178761;15845
178770;15137
178778;14820
178786;14473
178794;14148
178802;13986
178811;13815
178819;13720
178827;13661
178835;13634
178843;13598
178852;13501
178860;13393
178868;13298
178876;13181
178884;12959
178893;12756
178901;12484
178909;12235
178917;11911
178925;11698
178934;11552
178942;11532
178953;11694
178961;11934
178969;12185
178978;12536
178986;12957
178994;13346
179002;13739
179010;13958
179018;14100
179027;14148
179035;14115
179043;14109
179051;14046
179059;14013
179068;13934
179076;13869
179084;13803
179092;13827
179100;13817
179109;13868
179117;13878
179125;13937
179133;13962
179141;13999
179150;14028
179158;14071
179166;14043
179174;14100
179182;14103
179191;14074
179199;13987
179207;14004
179215;13960
179223;13951
179231;13902
179240;13887
179251;13969
179259;14027
179267;14013
179276;14044
179284;14006
179292;13973
179300;13923
179308;13966
179316;13977
179325;13984
179333;13861
179341;13723
179349;13512
179357;13436
179366;13405
179374;13505
179382;13411
179390;13456
179398;13489
179407;13574
179415;13718
179424;13877
179432;13919
179440;14005
179449;14015
179457;14015
179465;13938
179473;13827
179481;14322
179490;13668
179498;10605
179506;6444
179514;5397
179522;11774
179530;15679
179539;15595
179547;14967
179557;14805
179565;14613
179574;14406
179583;14222
179591;14138
179599;14046
179607;13994
179615;13865
179624;13826
179632;13747
179640;13709
179648;13568
179656;13450
179665;13348
179673;13211
179681;12997
179689;12789
179697;12539
179706;12306
179714;12134
179722;12082
179730;12077
179738;12200
179747;12299
179755;12522
179763;12796
179771;13137
179779;13499
179788;13842
179796;14029
179804;14217
179812;14289
179820;14349
179828;14321
179837;14274
179845;14199
179853;14137
179864;14129
179873;14178
179881;14106
179889;14043
179897;13972
179905;13974
179913;13934
179922;13947
179930;13921
179938;13946
179946;13873
179954;13887
179963;13863
179971;13903
179979;13888
179987;13961
179995;13924
180004;13929
180012;13890
180020;13889
180028;13857
180036;13830
180045;13781
180053;13828
180061;13793
180069;13840
