Tempo (ms);Valor
1741001;14498
1741010;14408
1741019;14084
1741027;14555
1741035;13931
1741043;10896
1741052;6478
1741060;4945
1741068;11321
1741076;15760
1741084;15478
1741093;14802
1741101;14482
1741109;14266
1741117;13974
1741125;13809
1741134;13730
1741142;13618
1741150;13594
1741158;13503
1741166;13460
1741175;13375
1741183;13369
1741191;13249
1741199;13193
1741207;13013
1741215;12958
1741224;12752
1741232;12610
1741240;12328
1741248;12144
1741256;11809
1741265;11734
1741273;11601
1741284;11712
1741292;11864
1741300;11970
1741309;12253
1741317;12639
1741325;13062
1741334;13441
1741342;13769
1741351;14012
1741359;14181
1741367;14295
1741375;14247
1741383;14263
1741392;14191
1741400;14195
1741408;14107
1741416;14109
1741424;14006
1741433;14044
1741441;13930
1741449;13966
1741457;13875
1741465;13905
1741474;13790
1741482;13893
1741490;13834
1741498;13867
1741506;13722
1741514;13815
1741523;13737
1741531;13797
1741539;13691
1741547;13786
1741555;13691
1741567;13819
1741575;13846
1741583;13737
1741591;13497
1741599;13456
1741608;13399
1741616;13460
1741624;13414
1741632;13482
1741640;13482
1741650;13638
1741658;13656
1741666;13712
1741674;13639
1741682;13684
1741691;13622
1741699;13723
1741707;13659
1741715;13708
1741723;13561
1741732;14018
1741740;13871
1741748;11457
1741756;6939
1741764;4579
1741773;9238
1741781;15432
1741789;15506
1741797;14941
1741805;14477
1741814;14419
1741822;14022
1741830;14001
1741838;13799
1741849;13855
1741858;13807
1741866;13761
1741874;13644
1741882;13662
1741890;13524
1741898;13464
1741907;13266
1741915;13205
1741923;13019
1741931;12960
1741939;12715
1741948;12565
1741956;12224
1741964;12087
1741972;11836
1741981;11899
1741990;11827
1741998;11987
1742006;12045
1742014;12442
1742022;12768
1742031;13355
1742039;13730
1742047;14169
1742055;14265
1742063;14512
1742072;14496
1742080;14627
1742088;14476
1742096;14566
1742104;14440
1742113;14534
1742121;14364
1742161;16248
1742169;15842
1742177;15431
1742185;15064
1742193;14875
1742202;14547
1742210;14386
1742218;14163
1742226;14089
1742234;13912
1742243;13821
1742251;13668
1742259;13633
1742267;13533
1742275;13500
1742284;13443
1742292;13391
1742300;13326
1742309;13313
1742317;13288
1742326;13237
1742334;13271
1742342;13165
1742350;13117
1742358;12977
1742366;12971
1742375;12957
1742383;13087
1742391;13063
1742399;13148
1742407;13171
1742416;13300
1742424;13313
1742432;13448
1742443;13459
1742451;13455
1742460;13443
1742468;13368
1742476;13281
1742484;13175
1742492;13176
1742501;13683
1742509;12397
1742517;8718
1742525;5243
1742533;6355
1742542;13881
1742550;15322
1742558;14702
1742566;14163
1742574;14013
1742583;13827
1742591;13598
1742599;13587
1742607;13528
1742615;13516
1742623;13382
1742632;13396
1742640;13311
1742649;13353
1742657;13216
1742665;13224
1742674;13072
1742682;13093
1742690;12886
1742698;12776
1742706;12501
1742715;12347
1742723;12001
1742734;11867
1742742;11838
1742750;11835
1742759;11891
1742767;11994
1742775;12181
1742783;12477
1742791;12865
1742800;13334
1742808;13690
1742816;14047
1742824;14251
1742832;14465
1742841;14519
1742849;14643
1742857;14558
1742865;14582
1742873;14430
1742882;14444
1742890;14334
1742898;14394
1742906;14276
1742914;14294
1742922;14159
1742931;14194
1742939;14103
1742947;14169
1742955;14059
1742963;14140
1742973;13996
1742981;14080
1742989;13938
1742997;13997
1743005;13855
1743016;13996
1743025;13982
1743033;13951
1743041;13857
1743049;13876
1743058;13800
1743066;13861
1743074;13756
1743082;13781
1743090;13722
1743099;13765
1743107;13710
1743115;13792
1743123;13728
1743131;13714
1743140;13514
1743148;13513
1743156;13436
1743164;13567
1743172;13498
1743181;13592
1743189;13488
1743197;13645
1743205;13618
1743213;13808
1743222;13690
1743230;13785
1743238;13694
1743246;13818
1743254;13701
1743262;13742
1743271;13558
1743279;13830
1743288;13914
1743298;11029
1743306;7412
1743315;6230
1743323;12397
1743331;16232
1743340;15622
1743348;14929
1743357;14397
1743365;14379
1743373;14079
1743381;14027
1743389;13853
1743398;13881
1743406;13668
1743414;13685
1743422;13516
1743430;13537
1743439;13341
1743447;13372
1743455;13177
1743463;13178
1743471;12934
1743480;12864
1743488;12568
1743496;12453
1743504;12120
1743512;12034
1743521;11733
1743529;11760
1743537;11678
1743545;11845
1743553;11871
1743561;12234
1743570;12486
1743581;13210
1743589;13595
1743597;14041
1743606;14209
1743614;14516
1743622;14565
1743630;14723
1743638;14653
1743647;14754
1743656;14647
1743664;14704
1743672;14563
1743680;14593
1743688;14420
1743697;14447
1743705;14254
1743713;14271
1743721;14090
1743729;14160
1743738;13956
1743746;14080
1743754;13931
1743762;13997
1743770;13811
1743779;13868
1743787;13777
1743795;13882
1743803;13761
1743811;13823
1743820;13683
1743828;13794
1743836;13686
1743844;13778
1743852;13647
1743864;13684
1743872;13494
1743880;13514
1743888;13372
1743896;13500
1743905;13398
1743913;13543
1743921;13497
1743929;13680
1743937;13669
1743945;13820
1743954;13707
1743962;13814
1743971;13681
1743979;13775
1743987;13655
1743996;13703
1744004;13469
1744012;14156
1744020;13315
1744028;10377
1744037;6677
1744045;6022
1744053;12902
1744061;16075
1744069;15397
1744078;14742
1744086;14238
1744094;14168
1744102;13830
1744110;13765
1744119;13581
1744127;13535
1744135;13356
1744143;13347
1744154;13208
1744163;13275
1744171;13082
1744179;13085
1744187;12860
1744195;12878
1744204;12624
1744212;12591
1744220;12254
1744228;12100
1744236;11679
1744244;11526
1744253;11308
1744261;11377
1744269;11326
1744277;11541
1744285;11644
1744294;12054
1744303;12449
1744311;13078
1744319;13428
1744327;13862
1744336;14058
1744344;14287
1744352;14298
1744360;14421
1744368;14367
1744377;14425
1744385;14381
1744393;14399
1744401;14324
1744409;14330
1744418;14253
1744426;14244
1744437;14155
1744445;14256
1744453;14073
1744462;14139
1744470;14007
1744478;14067
1744486;13929
1744494;14000
1744503;13871
1744511;13931
1744519;13806
1744527;13912
1744535;13820
1744543;13972
1744552;13918
1744560;13951
1744568;13790
1744576;13696
1744584;13496
1744593;13534
1744601;13466
1744609;13551
1744617;13582
1744625;13693
1744635;13720
1744643;13814
1744651;13822
1744659;13812
1744667;13783
1744676;13802
1744684;13766
1744692;13741
1744700;13680
1744708;13561
1744720;14187
1744728;12897
1744736;8915
1744744;5325
1744752;6598
1744761;14480
1744769;15769
1744777;15216
1744785;14603
1744793;14471
1744802;14188
1744810;14058
1744818;13895
1744826;13873
1744834;13784
1744842;13777
1744851;13685
1744859;13650
1744867;13576
1744875;13515
1744883;13400
1744892;13259
1744900;13107
1744908;12930
1744916;12754
1744924;12527
1744933;12280
1744941;12000
1744949;11761
1744957;11598
1744966;11599
1744975;11595
1744983;11721
1744991;11833
1745001;12349
1745009;12970
1745019;13359
1745027;13813
1745035;14074
1745043;14329
1745051;14400
1745060;14504
1745068;14505
1745076;14520
1745084;14454
1745092;14471
1745101;14415
1745109;14400
1745117;14339
1745125;14268
1745133;14212
1745142;14161
1745150;14158
1745158;14112
1745166;14083
1745174;14043
1745182;14058
1745191;13961
1745199;13946
1745207;13904
1745215;13932
1745223;13837
1745232;13896
1745240;13818
1745248;13872
1745256;13781
1745264;13846
1745273;13774
1745284;13838
1745292;13972
1745300;13949
1745308;13896
1745317;13719
1745326;13554
1745334;13471
1745342;13402
1745350;13401
1745359;13400
1745367;13392
1745375;13446
1745383;13533
1745391;13601
1745400;13647
1745408;13620
1745416;13622
1745424;13614
1745432;13701
1745441;13616
1745449;13619
1745457;13441
1745465;14105
1745473;13398
1745481;10365
1745490;6160
1745498;5139
1745506;11852
1745514;15656
1745522;15178
1745531;14612
1745539;14273
1745547;14204
1745555;13885
1745563;13909
1745575;13855
1745583;13843
1745591;13739
1745599;13710
1745607;13643
1745616;13598
1745624;13538
1745632;13476
1745641;13341
1745649;13279
1745658;13124
1745666;13022
1745674;12759
1745682;12569
1745690;12262
1745699;12122
1745707;11932
1745715;11957
1745723;11929
1745731;12119
1745740;12151
1745748;12514
1745756;12801
1745764;13349
1745772;13684
1745780;14129
1745789;14250
1745797;14481
1745805;14415
1745813;14553
1745821;14518
1745830;14640
1745838;14502
1745846;14579
1745857;14504
1745865;14569
1745874;14463
1745882;14420
1745890;14294
1745898;14277
1745906;14150
1745915;14118
1745923;14007
1745931;14043
1745939;13936
1745948;13990
1745957;13880
1745965;13957
1745973;13857
1745981;13951
1745989;13841
1745998;13918
1746006;13781
1746014;13891
1746022;13768
1746030;13829
1746039;13731
1746047;13813
1746055;13675
1746063;13775
1746071;13561
1746079;13597
1746088;13364
1746096;13446
1746104;13366
1746112;13491
1746120;13329
1746129;13503
1746140;13594
1746148;13792
1746156;13740
1746164;13750
1746173;13632
1746181;13674
1746189;13569
1746197;13607
1746205;13472
1746214;13466
1746222;13918
1746230;13437
1746238;10362
1746246;6555
1746255;5477
1746263;12386
1746272;15752
1746280;15397
1746288;14587
1746297;14395
1746305;14127
1746313;13967
1746321;13697
1746329;13700
1746338;13532
1746346;13597
1746354;13462
1746362;13532
1746370;13358
1746378;13410
1746387;13218
1746395;13213
1746403;12998
1746411;12984
1746423;12786
1746431;12740
1746439;12394
1746447;12243
1746455;11879
1746463;11835
1746472;11696
1746480;11839
1746488;11825
1746496;12067
1746504;12231
1746513;12795
1746521;13155
1746529;13695
1746537;13934
1746545;14304
1746554;14335
1746562;14574
1746570;14554
1746578;14669
1746586;14515
1746595;14575
1746604;14414
1746612;14484
1746620;14313
1746628;14321
1746637;14171
1746645;14234
1746653;14098
1746661;14149
1746669;14009
1746678;14074
1746686;13930
1746694;14002
1746705;13953
1746713;14083
1746722;13909
1746730;13990
1746738;13876
1746746;13976
1746754;13881
1746762;13978
1746771;13859
1746779;13963
1746787;13862
1746795;13951
1746803;13773
1746812;13707
1746820;13413
1746828;13449
1746836;13381
1746844;13595
1746853;13525
1746861;13644
1746869;13595
1746877;13746
1746885;13717
1746894;13810
1746902;13713
1746910;13783
1746918;13666
1746927;13763
1746936;13642
1746944;13606
1746952;13446
1746960;14022
1746968;13285
1746977;10429
1746988;6249
1746996;7713
1747004;15021
1747012;16086
1747021;15238
1747029;14649
1747037;14235
1747045;14167
1747053;13869
1747062;13819
1747070;13625
1747078;13642
1747086;13489
1747094;13530
1747102;13419
1747111;13434
1747119;13240
1747127;13219
1747135;13016
1747143;12971
1747152;12714
1747160;12603
1747168;12306
1747176;12111
1747184;11817
1747193;11641
1747201;11450
1747209;11458
1747217;11408
1747225;11578
1747234;11721
1747242;12038
1747251;12412
1747259;12936
1747267;13382
1747278;13965
1747286;14094
1747294;14303
1747303;14256
1747311;14352
1747320;14270
1747328;14314
1747336;14164
1747344;14222
1747352;14100
1747361;14112
1747369;13980
1747377;13993
1747385;13867
1747393;13966
1747401;13861
1747410;13893
1747418;13832
1747426;13935
1747434;13906
1747442;13955
1747451;13901
1747459;13921
1747467;13877
1747475;13882
1747483;13865
1747492;13879
1747500;13844
1747508;13844
1747516;13843
1747524;13838
1747533;13822
1747541;13789
1747549;13717
1747560;13648
1747568;13546
1747577;13571
1747585;13494
1747593;13547
1747601;13471
1747609;13603
1747619;13607
1747627;13757
1747635;13743
1747643;13783
1747651;13698
1747660;13741
1747668;13653
1747676;13673
1747684;13607
1747692;13570
1747700;14195
1747709;13332
1747717;9947
1747725;6198
1747733;5921
1747741;13305
1747750;15811
1747758;15251
1747766;14602
1747774;14329
1747782;14179
1747791;13923
1747799;13851
1747807;13722
1747815;13714
1747823;13603
1747832;13559
1747843;13539
1747851;13442
1747859;13371
1747867;13219
1747876;13141
1747884;12967
1747892;12864
1747900;12655
1747908;12531
1747917;12267
1747925;12056
1747933;11828
1747942;11711
1747950;11630
1747959;11679
1747967;11801
1747975;11961
1747983;12260
1747991;12688
1747999;13161
1748008;13555
1748016;13925
1748024;14151
1748032;14344
1748040;14377
1748049;14494
1748057;14506
1748065;14589
1748073;14496
1748081;14504
1748090;14397
1748098;14372
1748106;14251
1748114;14287
1748125;14287
1748134;14259
1748142;14206
1748150;14156
1748158;14137
1748166;14084
1748175;14056
1748183;14050
1748191;14017
1748199;13985
1748207;13957
1748216;13936
1748224;13914
1748232;13918
1748240;13867
1748249;13883
1748258;13831
1748266;13930
1748274;13883
1748282;13879
1748290;13816
1748298;13791
1748307;13585
1748315;13524
1748323;13431
1748331;13578
1748339;13478
1748348;13542
1748356;13539
1748364;13715
1748372;13676
1748380;13817
1748389;13714
1748397;13794
1748408;13826
1748416;13859
1748424;13760
1748433;13708
1748441;13581
1748449;14222
1748457;13345
1748465;10104
1748474;6162
1748482;5708
1748490;12982
1748498;15930
1748506;15400
1748515;14789
1748523;14466
1748531;14319
1748539;13991
1748547;13897
1748556;13728
1748564;13755
1748572;13614
1748580;13647
1748589;13498
1748598;13522
1748606;13343
1748614;13298
1748622;13067
1748630;13047
1748638;12830
1748647;12773
1748655;12490
1748663;12391
1748671;12054
1748679;11939
1748688;11641
1748699;11692
1748707;11740
1748715;11838
1748723;11928
1748732;12278
1748740;12662
1748748;13201
1748756;13572
1748764;13974
1748773;14166
1748781;14359
1748789;14356
1748797;14470
1748805;14400
1748814;14469
1748822;14320
1748830;14376
1748838;14242
1748846;14304
1748855;14190
1748863;14260
1748871;14149
1748879;14242
1748887;14094
1748895;14153
1748904;13975
1748913;14068
1748921;13935
1748929;14077
1748937;13933
1748946;14039
1748954;13957
1748962;14059
1748970;13928
1748982;14058
1748990;14018
1748998;14048
1749006;13901
1749014;13970
1749022;13826
1749031;13863
1749039;13754
1749047;13806
1749055;13654
1749063;13725
1749072;13587
1749080;13564
1749088;13291
1749096;13372
1749104;13214
1749113;13307
1749121;13191
1749129;13330
1749137;13308
1749145;13523
1749154;13450
1749162;13573
1749170;13425
1749178;13531
1749186;13412
1749194;13499
1749203;13311
1749211;13385
1749219;13238
1749228;14008
1749236;12885
1749245;9568
1749253;5749
1749263;8373
1749271;15179
1749279;15619
1749289;14813
1749297;14428
1749305;14195
1749313;14067
1749321;13762
1749330;13762
1749338;13589
1749346;13639
1749354;13484
1749362;13536
1749371;13335
1749379;13374
1749387;13180
1749395;13167
1749403;12936
1749412;12960
1749420;12743
1749428;12702
1749436;12396
1749444;12285
1749453;11937
1749461;11849
1749469;11608
1749477;11672
1749485;11655
1749494;11822
1749502;11888
1749510;12267
1749518;12563
1749526;13118
1749534;13498
1749546;14124
1749554;14282
1749562;14483
1749570;14454
1749578;14614
1749587;14522
1749595;14612
1749603;14489
1749612;14595
1749620;14452
1749629;14537
1749637;14390
1749645;14441
1749653;14307
1749661;14345
1749670;14202
1749678;14261
1749686;14153
1749694;14227
1749702;14116
1749711;14192
1749719;14102
1749727;14196
1749735;14095
1749743;14166
1749752;14086
1749760;14151
1749768;14028
1749776;14067
1749784;13948
1749793;13956
1749801;13896
1749809;13925
1749817;13826
1749828;13931
1749837;13893
1749845;13966
1749853;13784
1749861;13757
1749869;13510
1749878;13511
1749886;13374
1749894;13469
1749902;13333
1749910;13446
1749919;13357
1749928;13544
1749936;13519
1749944;13668
1749952;13586
1749960;13658
1749969;13557
1749977;13597
1749985;13488
1749993;13534
1750001;13410
1750010;14104
1750018;13293
1750026;10292
1750034;6779
1750042;6282
1750051;13280
1750059;16034
1750067;15333
1750075;14618
1750083;14227
1750092;14089
1750100;13853
1750108;13704
1750119;13635
1750127;13717
1750136;13522
1750144;13532
1750152;13364
1750160;13390
1750168;13209
1750177;13221
1750185;13027
1750193;12999
1750201;12807
1750209;12711
1750217;12455
1750226;12303
1750234;12029
1750242;11838
1750250;11628
1750259;11638
1750268;11635
1750276;11768
1750284;11875
1750292;12189
1750300;12564
1750309;13042
1750317;13466
1750325;13851
1750333;14152
1750341;14353
1750350;14488
1750358;14610
1750366;14690
1750374;14704
1750382;14707
1750391;14612
1750402;14590
1750410;14638
1750418;14488
1750426;14468
1750435;14356
1750443;14385
1750451;14293
1750459;14302
1750467;14169
1750476;14154
1750484;14051
1750492;14077
1750500;14024
1750508;14035
1750516;14018
1750525;14042
1750533;14033
1750541;14078
1750549;14064
1750557;14044
1750567;13996
1750575;13921
1750583;13944
1750591;13910
1750599;13848
1750608;13676
1750616;13586
1750624;13528
1750632;13608
1750640;13585
1750649;13646
1750657;13655
1750665;13765
1750673;13809
1750684;13890
1750693;13962
1750701;13886
1750709;13878
1750717;13777
1750725;13758
1750734;13672
1750742;13566
1750750;14021
1750758;13617
1750766;10869
1750775;7140
1750783;5726
1750791;11837
1750799;15977
1750807;15373
1750815;14625
1750824;14077
1750832;13956
1750840;13709
1750848;13575
1750856;13444
1750865;13404
1750873;13304
1750881;13275
1750890;13130
1750898;13090
1750907;12936
1750915;12937
1750923;12809
1750931;12781
1750939;12566
1750948;12534
1750956;12289
1750967;12102
1750975;11921
1750983;11670
1750992;11503
1751000;11453
1751008;11453
1751016;11529
1751024;11707
1751033;12023
1751041;12443
1751049;12969
1751057;13367
1751065;13802
1751074;14045
1751082;14272
1751090;14279
1751098;14367
1751106;14285
1751114;14303
1751123;14223
1751131;14241
1751139;14134
1751147;14177
1751155;14061
1751164;14094
1751172;13940
1751180;13985
1751188;13840
1751196;13929
1751205;13850
1751214;13949
1751222;13828
1751230;13928
1751238;13803
1751249;13954
1751257;13979
1751266;13972
1751274;13907
1751282;13966
1751291;13897
1751299;13930
1751307;13874
1751315;13934
1751323;13838
1751332;13879
1751340;13746
1751348;13805
1751356;13695
1751364;13728
1751373;13552
1751381;13558
1751389;13323
1751397;13381
1751405;13292
1751414;13447
1751422;13333
1751430;13481
1751438;13436
1751446;13642
1751454;13611
1751463;13768
1751471;13682
1751479;13769
1751487;13681
1751495;13801
1751504;13633
1751512;13669
1751520;13826
1751531;13561
1751539;10479
1751548;6511
1751556;5470
1751564;12387
1751572;15738
1751580;15398
1751590;14626
1751598;14522
1751606;14370
1751614;14290
1751622;14083
1751631;14130
1751639;13981
1751647;14064
1751655;13926
1751663;13947
1751672;13726
1751680;13750
1751688;13531
1751696;13543
1751704;13282
1751713;13298
1751721;13000
1751729;12879
1751737;12550
1751745;12446
1751753;12072
1751762;12006
1751770;11806
1751778;11928
1751786;11907
1751794;12129
1751803;12223
1751811;12670
1751822;13255
1751830;13829
1751838;14078
1751847;14479
1751855;14577
1751863;14770
1751871;14711
1751879;14849
1751888;14768
1751897;14834
1751905;14724
1751913;14790
1751921;14642
1751930;14682
1751938;14434
1751946;14483
1751954;14277
1751962;14321
1751971;14109
1751979;14142
1751987;13997
1751995;14083
1752003;13916
1752012;13975
1752020;13772
1752028;13826
1752036;13709
1752044;13785
1752052;13660
1752061;13758
1752069;13610
1752077;13640
1752085;13378
1752093;13391
1752105;13348
1752113;13558
1752121;13489
1752129;13709
1752137;13609
1752146;13819
1752154;13672
1752162;13820
1752170;13675
1752178;13813
1752187;13655
1752196;13764
1752204;13563
1752212;13603
1752220;13632
1752229;14131
1752237;12246
1752245;8353
1752253;5209
1752261;8308
1752270;15215
1752278;15752
1752286;14924
1752294;14460
1752302;14168
1752311;14030
1752319;13802
1752327;13785
1752335;13680
1752343;13676
1752351;13561
1752360;13610
1752368;13514
1752376;13548
1752416;15008
1752424;14521
1752432;13975
1752441;13379
1752449;12860
1752457;12363
1752465;12110
1752473;11907
1752482;11900
1752490;11864
1752498;12039
1752506;12204
1752515;12658
1752524;13011
1752532;13520
1752540;13749
1752548;14046
1752556;14056
1752564;14186
1752573;14189
1752581;14315
1752589;14251
1752597;14322
1752605;14214
1752614;14277
1752622;14123
1752630;14098
1752638;13921
1752646;13949
1752655;13794
1752663;13826
1752671;13712
1752679;13815
1752687;13677
1752699;13825
1752707;13896
1752715;13922
1752723;13901
1752731;13905
1752740;13825
1752748;13770
1752756;13617
1752764;13638
1752772;13575
1752781;13625
1752789;13624
1752797;13781
1752805;13757
1752813;13892
1752823;13867
1752831;13982
1752839;13872
1752847;13939
1752855;13830
1752863;13898
1752872;13771
1752880;13812
1752888;13629
1752896;14222
1752904;13571
1752913;10836
1752921;7198
1752929;6209
1752937;12724
1752945;16370
1752954;15634
1752962;14974
1752970;14344
1752978;14246
1752989;13934
1752998;13882
1753006;13720
1753014;13656
1753022;13527
1753030;13440
1753039;13295
1753047;13238
1753055;13070
1753063;13028
1753071;12873
1753080;12798
1753088;12604
1753096;12495
1753104;12288
1753112;12122
1753121;11781
1753129;11648
1753137;11462
1753145;11478
1753154;11405
1753162;11568
1753171;11681
1753179;12123
1753187;12515
1753195;13103
1753203;13485
1753212;13958
1753220;14138
1753228;14399
1753236;14414
1753244;14534
1753253;14424
1753261;14497
1753272;14442
1753280;14529
1753288;14391
1753297;14392
1753305;14265
1753313;14275
1753321;14101
1753329;14146
1753338;14027
1753346;14112
1753354;14050
1753362;14193
1753370;14083
1753379;14156
1753387;13971
1753395;13958
1753403;13792
1753411;13863
1753420;13719
1753428;13846
1753436;13742
1753444;13885
1753452;13890
1753460;14115
1753470;14067
1753478;14158
1753486;14043
1753494;14117
1753502;14047
1753511;14120
1753519;13975
1753527;13952
1753535;14058
1753543;14115
1753555;10675
1753563;7530
1753571;6601
1753579;13408
1753587;16435
1753596;15916
1753604;15069
1753612;14607
1753620;14228
1753628;14033
1753637;13699
1753645;13716
1753653;13547
1753661;13648
1753669;13499
1753678;13527
1753686;13340
1753694;13334
1753702;13108
1753710;13088
1753719;12871
1753727;12839
1753735;12584
1753743;12442
1753751;12114
1753759;11903
1753768;11577
1753776;11480
1753785;11401
1753793;11520
1753801;11596
1753810;11861
1753818;12177
1753826;12726
1753837;13515
1753846;14133
1753854;14337
1753862;14640
1753870;14634
1753878;14818
1753886;14748
1753895;14832
1753903;14715
1753911;14736
1753919;14558
1753927;14562
1753936;14353
1753944;14335
1753952;14234
1753960;14210
1753968;14045
1753977;14057
1753985;13953
1753993;13927
1754001;13843
1754009;13862
1754018;13783
1754026;13732
1754034;13650
1754042;13521
1754050;13419
1754058;13372
1754067;13353
1754075;13378
1754083;13441
1754091;13475
1754100;13579
1754109;13638
1754119;13693
1754127;13790
1754135;13643
1754143;13694
1754153;13601
1754161;13620
1754169;13509
1754177;13521
1754185;14050
1754194;13078
1754202;9697
1754210;6041
1754218;5899
1754226;13440
1754235;15735
1754243;15322
1754251;14697
1754259;14463
1754267;14236
1754276;14007
1754284;13875
1754292;13831
1754300;13762
1754308;13728
1754317;13669
1754325;13574
1754333;13467
1754341;13303
1754349;13204
1754358;13069
1754366;12973
1754374;12800
1754382;12696
1754390;12447
1754398;12274
1754410;12041
1754418;11839
1754426;11763
1754434;11717
1754442;11822
1754451;11871
1754459;12196
1754467;12613
1754476;13161
1754484;13603
1754493;13981
1754501;14200
1754509;14367
1754517;14404
1754525;14350
1754534;14323
1754542;14283
1754550;14258
1754558;14195
1754566;14209
1754575;14118
1754583;14122
1754591;14006
1754599;13991
1754607;13864
1754616;13922
1754624;13810
1754632;13878
1754640;13779
1754648;13823
1754657;13726
1754665;13816
1754673;13713
1754681;13753
1754692;13668
1754701;13494
1754709;13320
1754717;13199
1754725;13190
1754733;13178
1754742;13199
1754750;13310
1754758;13385
1754766;13511
1754774;13529
1754783;13608
1754792;13569
1754800;13634
1754808;13561
1754816;13598
1754824;13508
1754833;13533
1754841;13653
1754849;14088
1754857;11989
1754865;7816
1754874;4382
1754882;7376
1754890;14654
1754898;15565
1754906;14881
1754915;14491
1754923;14261
1754931;14148
1754939;13824
1754947;13869
1754956;13669
1754964;13721
1754975;13706
1754983;13785
1754991;13637
1755000;13556
1755008;13402
1755016;13373
1755024;13207
1755032;13160
1755041;12927
1755049;12831
1755057;12505
1755065;12368
1755073;12067
1755081;12003
1755090;11833
1755098;11942
1755106;11869
1755114;12149
1755123;12359
1755132;12934
1755140;13349
1755148;13934
1755156;14176
1755164;14579
1755173;14624
1755181;14819
1755189;14692
1755197;14816
1755205;14649
1755214;14747
1755222;14548
1755230;14646
1755238;14457
1755246;14555
1755258;14438
1755266;14518
1755274;14331
1755282;14277
1755290;14114
1755299;14171
1755307;13964
1755315;14020
1755323;13885
1755331;13934
1755340;13779
1755348;13892
1755356;13759
1755364;13838
1755372;13697
1755380;13845
1755389;13706
1755397;13819
1755405;13664
1755413;13750
1755421;13516
1755430;13540
1755438;13378
1755446;13544
1755455;13404
1755463;13602
1755472;13563
1755480;13796
1755488;13719
1755496;13914
1755504;13753
1755513;13893
1755521;13739
1755529;13864
1755540;13760
1755548;13877
1755557;13625
1755565;14259
1755573;13689
1755581;11000
1755589;6594
1755598;4989
1755606;10817
1755614;15701
1755622;15425
1755630;14889
1755639;14438
1755647;14403
1755655;14013
1755663;14054
1755671;13849
1755679;13960
1755688;13774
1755696;13853
1755704;13624
1755712;13693
1755720;13460
1755729;13524
1755737;13283
1755745;13320
1755753;13001
1755761;12981
1755771;12636
1755779;12498
1755787;12125
1755795;11982
1755803;11644
1755812;11668
1755820;11578
1755831;11859
1755839;11934
1755847;12417
1755856;12729
1755864;13389
1755872;13706
1755880;14211
1755888;14318
1755897;14645
1755905;14601
1755913;14752
1755921;14585
1755929;14704
1755938;14510
1755946;14577
1755954;14401
1755962;14471
1755970;14268
1755978;14332
1755987;14144
1755995;14256
1756003;14087
1756011;14180
1756019;14061
1756028;14109
1756036;13961
1756044;14013
1756052;13893
1756060;13966
1756069;13848
1756078;13944
1756086;13860
1756094;13971
1756102;13885
1756113;13985
1756122;13926
1756130;14058
1756138;13875
1756146;13966
1756155;13712
1756163;13675
1756171;13404
1756179;13544
1756187;13448
1756196;13537
1756204;13453
1756212;13639
1756220;13582
1756228;13770
1756237;13703
1756245;13800
1756253;13669
1756261;13713
1756269;13582
1756278;13635
1756286;13515
1756294;13538
1756302;13913
1756310;13601
1756318;11034
1756327;7502
1756335;5992
1756343;11720
1756351;15919
1756359;15583
1756368;14814
1756376;14327
1756384;14115
1756395;13935
1756403;13694
1756412;13719
1756420;13530
1756428;13586
1756436;13381
1756445;13425
1756454;13262
1756462;13320
1756470;13118
1756478;13123
1756486;12915
1756495;12885
1756503;12653
1756511;12524
1756519;12176
1756527;12006
1756536;11702
1756544;11585
1756552;11480
1756560;11582
1756568;11647
1756577;11890
1756585;12199
1756593;12696
1756601;13188
1756609;13666
1756617;14020
1756626;14266
1756634;14442
1756642;14570
1756650;14621
1756658;14624
1756667;14623
1756678;14748
1756686;14641
1756694;14683
1756702;14506
1756711;14534
1756719;14369
1756727;14399
1756735;14269
1756744;14295
1756753;14210
1756761;14255
1756769;14162
1756777;14176
1756785;14063
1756794;14074
1756802;13995
1756810;14006
1756818;13939
1756826;13981
1756835;13994
1756843;14046
1756851;14059
1756859;14042
1756867;13992
1756876;13836
1756884;13731
1756892;13680
1756900;13732
1756908;13663
1756916;13718
1756925;13735
1756933;13858
1756941;13856
1756949;13977
1756961;14062
1756969;13989
1756977;13979
1756985;13845
1756993;13885
1757001;13732
1757010;13720
1757018;13752
1757026;14124
1757034;12415
1757042;8708
1757051;5927
1757059;8109
1757068;15143
1757076;15776
1757084;15092
1757093;14410
1757101;14194
1757109;13985
1757117;13774
1757125;13604
1757134;13560
1757142;13451
1757150;13471
1757158;13343
1757166;13344
1757175;13235
1757183;13240
1757191;13108
1757199;13106
1757207;12914
1757215;12887
1757224;12599
1757232;12502
1757240;12149
1757251;11909
1757260;11807
1757268;11662
1757276;11614
1757284;11605
1757292;11691
1757300;11982
1757309;12420
1757317;12951
1757325;13376
1757333;13783
1757341;14031
1757350;14278
1757358;14315
1757366;14402
1757374;14351
1757383;14385
1757392;14284
1757400;14333
1757408;14230
1757416;14298
1757424;14168
1757433;14215
1757441;14058
1757449;14089
1757457;13949
1757465;14029
1757474;13878
1757482;13969
1757490;13842
1757498;13967
1757506;13817
1757514;13969
1757523;13848
1757534;13941
1757542;13936
1757550;13968
1757559;13873
1757567;13902
1757575;13853
1757583;13887
1757591;13817
1757599;13855
1757608;13782
1757616;13881
1757624;13803
1757632;13891
1757640;13732
1757649;13732
1757657;13481
1757665;13514
1757673;13367
1757681;13469
1757690;13339
1757699;13440
1757707;13322
1757715;13498
1757723;13436
1757732;13605
1757740;13482
1757748;13600
1757756;13467
1757764;13606
1757773;13428
1757781;13574
1757789;13401
1757797;14027
1757805;12596
1757817;7722
1757825;5267
1757833;8962
1757841;15059
1757849;15444
1757858;14698
1757866;14403
1757874;14207
1757882;14083
1757890;13839
1757898;13857
1757907;13644
1757915;13684
1757923;13469
1757931;13538
1757939;13359
1757948;13455
1757956;13281
1757964;13334
1757972;13117
1757980;13159
1757989;12872
1757997;12851
1758005;12509
1758013;12407
1758021;12035
1758031;11966
1758039;11629
1758047;11695
1758055;11572
1758063;11804
1758072;11830
1758080;12354
1758088;12768
1758099;13605
1758107;13975
1758116;14347
1758124;14360
1758132;14560
1758140;14450
1758148;14553
1758157;14403
1758165;14501
1758173;14330
1758181;14403
1758189;14229
1758198;14352
1758206;14170
1758214;14291
1758222;14120
1758230;14229
1758238;14069
1758247;14181
1758255;14048
1758263;14213
1758271;14045
1758279;14143
1758288;13999
1758296;14126
1758304;13985
1758312;14108
1758320;13937
1758329;14082
1758338;13920
1758346;14040
1758354;13888
1758362;13980
1758371;13840
1758381;14041
1758390;13928
1758398;14014
1758406;13829
1758415;13926
1758423;13718
1758431;13810
1758439;13663
1758447;13764
1758456;13576
1758464;13669
1758472;13484
1758480;13613
1758488;13482
1758497;13527
1758505;13279
1758513;13333
1758521;13180
1758529;13343
1758537;13219
1758546;13379
1758554;13256
1758562;13411
1758570;13329
1758578;13593
1758587;13522
1758595;13581
1758603;13414
1758611;13507
1758619;13364
1758628;13429
1758636;13250
1758645;13548
1758653;13601
1758663;10677
1758672;6433
1758680;5131
1758688;10882
1758696;15219
1758705;14929
1758714;14480
1758722;14089
1758730;14069
1758738;13683
1758746;13715
1758755;13511
1758763;13599
1758771;13422
1758779;13475
1758787;13274
1758796;13359
1758804;13195
1758812;13267
1758820;13108
1758828;13134
1758836;12954
1758845;12918
1758853;12653
1758861;12554
1758869;12233
1758877;12071
1758886;11731
1758894;11635
1758902;11580
1758910;11723
1758918;11767
1758927;12012
1758935;12317
1758943;12859
1758954;13491
1758962;14067
1758971;14206
1758979;14531
1758987;14482
1758995;14701
1759003;14570
1759013;14676
1759021;14528
1759029;14593
1759037;14420
1759045;14495
1759054;14345
1759062;14390
1759070;14262
1759078;14320
1759086;14219
1759095;14303
1759103;14189
1759111;14249
1759119;14173
1759127;14243
1759135;14173
1759144;14180
1759152;14067
1759160;14087
1759168;14013
1759176;14034
1759185;14017
1759193;14049
1759201;14022
1759209;14007
1759217;13985
1759226;13961
1759245;14274
1759253;14174
1759261;14119
1759270;13927
1759278;13977
1759286;13834
1759294;13912
1759302;13806
1759311;13848
1759320;13717
1759328;13758
1759336;13658
1759344;13690
1759353;13593
1759361;13582
1759369;13519
1759377;13543
1759385;13444
1759394;13479
1759402;13379
1759410;13302
1759418;13135
1759426;13122
1759434;13142
1759443;13196
1759451;13161
1759459;13142
1759467;13219
1759475;13265
1759484;13404
1759492;13441
1759500;13472
1759508;13416
1759516;13424
1759528;13456
1759536;13364
1759544;13376
1759552;13900
1759560;12903
1759569;9552
1759577;6167
1759585;6339
1759593;13594
1759601;15444
1759610;14996
1759618;14409
1759626;14233
1759634;14040
1759643;13889
1759652;13750
1759660;13639
1759668;13569
1759676;13485
1759684;13472
1759693;13383
1759701;13343
1759709;13242
1759717;13206
1759725;13071
1759734;13044
1759742;12883
1759750;12825
1759758;12619
1759766;12479
1759774;12143
1759783;11995
1759791;11720
1759799;11723
1759810;11735
1759818;11830
1759827;12003
1759835;12215
1759843;12603
1759851;13031
1759859;13481
1759868;13852
1759876;14145
1759884;14351
1759892;14447
1759900;14515
1759909;14506
1759917;14505
1759925;14438
1759933;14451
1759941;14377
1759950;14397
1759958;14315
1759967;14316
1759975;14189
1759983;14214
1759992;14077
1760000;14097
1760008;13957
1760016;14006
1760024;13867
1760033;13924
1760041;13829
1760049;13903
1760057;13763
1760065;13881
1760073;13757
1760082;13861
1760093;13850
1760101;13882
1760109;13840
1760118;13816
1760126;13777
1760134;13804
1760142;13792
1760150;13789
1760158;13746
1760167;13795
1760175;13756
1760183;13803
1760191;13739
1760199;13776
1760208;13693
1760216;13744
1760224;13665
1760232;13768
1760240;13648
1760249;13727
1760257;13623
1760265;13709
1760273;13564
1760282;13640
1760291;13515
1760299;13621
1760307;13433
1760315;13457
1760323;13181
1760332;13267
1760340;13159
1760348;13301
1760356;13150
1760364;13314
1760372;13233
1760384;13524
1760392;13601
1760400;13654
1760408;13526
1760417;13532
1760425;13443
1760433;13482
1760441;13297
1760449;13783
1760457;13244
1760466;11006
1760474;7528
1760482;6139
1760490;11435
1760498;15784
1760507;15280
1760515;14680
1760523;14080
1760531;14055
1760539;13717
1760548;13726
1760556;13498
1760564;13539
1760572;13355
1760580;13456
1760589;13262
1760597;13317
1760606;13100
1760614;13187
1760622;12950
1760631;12995
1760639;12694
1760647;12676
1760655;12360
1760666;12245
1760675;11915
1760683;11723
1760691;11405
1760699;11350
1760707;11186
1760716;11361
1760724;11341
1760732;11666
1760740;11881
1760748;12497
1760756;12900
1760765;13486
1760773;13654
1760781;13995
1760789;14008
1760797;14240
1760806;14147
1760814;14290
1760822;14150
1760830;14270
1760838;14052
1760847;14173
1760855;14017
1760863;14105
1760871;13920
1760879;14013
1760888;13858
1760896;13944
1760904;13793
1760912;13918
1760921;13756
1760930;13894
1760938;13754
1760948;13976
1760956;13949
1760965;14058
1760974;13920
1760982;14044
1760990;13920
1760998;14042
1761006;13881
1761015;13932
1761023;13771
1761031;13889
1761039;13697
1761047;13805
1761055;13623
1761064;13716
1761072;13579
1761080;13718
1761088;13547
1761096;13674
1761105;13528
1761113;13662
1761121;13506
1761129;13611
1761137;13483
1761146;13600
1761154;13441
1761162;13578
1761170;13403
1761178;13424
1761187;13184
1761195;13221
1761203;13135
1761211;13281
1761219;13173
1761231;13311
1761239;13259
1761247;13464
1761255;13439
1761263;13607
1761272;13465
1761280;13636
1761289;13528
1761297;13650
1761305;13436
1761314;13611
1761322;13842
1761330;12557
1761338;8866
1761346;5954
1761354;7479
1761363;14637
1761371;15354
1761379;14862
1761387;14194
1761395;14215
1761404;13901
1761412;13836
1761420;13656
1761428;13717
1761436;13577
1761445;13637
1761453;13523
1761461;13607
1761469;13482
1761477;13497
1761486;13374
1761494;13369
1761502;13198
1761513;13232
1761521;12969
1761530;12882
1761538;12469
1761546;12362
1761554;11983
1761562;11934
1761571;11744
1761579;11872
1761587;11786
1761595;12017
1761604;12175
1761613;12730
1761621;13111
1761629;13644
1761637;13889
1761645;14305
1761654;14376
1761662;14540
1761670;14501
1761678;14643
1761686;14525
1761694;14589
1761703;14489
1761711;14477
1761719;14375
1761727;14403
1761735;14298
1761744;14320
1761752;14227
1761760;14185
1761768;14155
1761776;14181
1761785;14159
1761793;14141
1761804;14083
1761812;14226
1761820;14019
1761829;14076
1761837;13934
1761845;14021
1761853;13883
1761861;13967
1761870;13882
1761878;13990
1761886;13900
1761894;13975
1761902;13858
1761911;13878
1761920;13747
1761928;13799
1761936;13674
1761944;13710
1761953;13636
1761961;13685
1761969;13651
1761977;13680
1761985;13613
1761993;13644
1762002;13565
1762010;13536
1762018;13541
1762026;13527
1762034;13442
1762043;13313
1762051;13277
1762059;13217
1762067;13232
1762075;13218
1762115;15541
1762124;15101
1762132;14818
1762140;14389
1762148;14247
1762156;13898
1762164;13799
1762173;13931
1762181;13669
1762189;11104
1762197;7401
1762205;5433
1762214;10611
1762222;15191
1762230;15071
1762238;14197
1762246;13944
1762255;13699
1762263;13595
1762271;13279
1762279;13288
1762287;13089
1762296;13138
1762304;12949
1762312;13032
1762320;12857
1762328;12920
1762337;12724
1762345;12755
1762353;12577
1762361;12602
1762369;12415
1762378;12380
1762387;12102
1762397;12030
1762405;11707
1762413;11603
1762422;11320
1762431;11417
1762439;11330
1762447;11615
1762455;11695
1762463;12225
1762472;12584
1762480;13227
1762488;13542
1762496;14044
1762504;14165
1762513;14476
1762521;14435
1762529;14591
1762537;14508
1762545;14626
1762554;14489
1762562;14568
1762570;14443
1762578;14512
1762586;14382
1762595;14478
1762603;14324
1762611;14345
1762619;14229
1762627;14270
1762636;14179
1762644;14242
1762652;14199
1762660;14251
1762668;14215
1762680;14332
1762688;14218
1762696;14294
1762704;14123
1762712;14186
1762721;14059
1762729;14192
1762738;14041
1762746;14133
1762754;13986
1762762;14062
1762771;13904
1762779;14011
1762787;13843
1762795;13900
1762803;13779
1762812;13883
1762820;13808
1762828;13898
1762836;13815
1762844;13883
1762853;13706
1762861;13684
1762869;13477
1762877;13477
1762885;13419
1762894;13482
1762902;13424
1762910;13445
1762918;13473
1762926;13593
1762935;13650
1762943;13695
1762951;13691
1762962;13824
1762970;13721
1762979;13764
1762987;13581
1762995;14014
1763003;13657
1763011;11610
1763020;8035
1763028;6545
1763036;11201
1763045;16048
1763053;15542
1763062;14822
1763070;14196
1763078;14087
1763086;13807
1763094;13705
1763102;13545
1763111;13529
1763119;13415
1763127;13401
1763135;13333
1763143;13344
1763152;13240
1763160;13204
1763168;13108
1763176;13013
1763184;12906
1763193;12765
1763201;12617
1763209;12398
1763217;12161
1763225;11936
1763234;11740
1763242;11570
1763253;11522
1763261;11706
1763269;11705
1763278;11957
1763286;12201
1763294;12716
1763302;13114
1763310;13601
1763319;13887
1763327;14183
1763335;14311
1763343;14429
1763351;14468
1763361;14499
1763369;14449
1763377;14432
1763385;14408
1763393;14362
1763401;14294
1763410;14232
1763418;14198
1763426;14130
1763434;14105
1763442;14023
1763451;14011
1763459;13954
1763467;14009
1763475;13965
1763483;13973
1763492;13922
1763500;13965
1763508;13884
1763516;13926
1763524;13835
1763536;13915
1763544;14027
1763552;13958
1763560;14000
1763568;13952
1763577;13947
1763585;13853
1763593;13820
1763601;13634
1763609;13491
1763618;13455
1763626;13441
1763634;13441
1763642;13496
1763650;13580
1763658;13617
1763667;13743
1763675;13727
1763683;13741
1763692;13704
1763700;13736
1763709;13665
1763717;13699
1763725;13589
1763733;13583
1763741;14127
1763750;13387
1763758;10253
1763766;7025
1763774;6454
1763782;13500
1763791;16062
1763799;15472
1763807;14572
1763818;14221
1763826;14122
1763835;13926
1763843;13819
1763851;13742
1763859;13681
1763867;13611
1763876;13472
1763884;13406
1763892;13279
1763900;13222
1763908;13075
1763917;12991
1763925;12820
1763933;12760
1763941;12499
1763949;12351
1763958;12056
1763966;11876
1763974;11522
1763982;11434
1763990;11297
1763998;11409
1764007;11368
1764016;11591
1764024;11777
1764032;12327
1764040;12750
1764049;13365
1764057;13630
1764065;14051
1764073;14108
1764081;14325
1764090;14226
1764101;14407
1764109;14436
1764117;14408
1764125;14282
1764134;14262
1764142;14193
1764150;14220
1764158;14083
1764166;14080
1764175;13947
1764183;13980
1764191;13837
1764199;13896
1764207;13788
1764216;13887
1764224;13750
1764232;13885
1764240;13785
1764248;13837
1764257;13704
1764265;13784
1764273;13658
1764281;13811
1764289;13659
1764297;13750
1764306;13608
1764314;13767
1764322;13664
1764330;13788
1764339;13552
1764348;13547
1764356;13240
1764364;13359
1764372;13248
1764382;13432
1764392;13390
1764400;13496
1764408;13453
1764416;13621
1764424;13550
1764433;13628
1764441;13545
1764449;13635
1764457;13517
1764465;13583
1764474;13438
1764482;13493
1764490;13982
1764498;13345
1764506;10125
1764515;6594
1764523;5883
1764531;12994
1764539;15785
1764547;15392
1764556;14553
1764564;14425
1764572;14086
1764580;13963
1764588;13667
1764596;13745
1764605;13551
1764613;13610
1764621;13411
1764629;13455
1764637;13280
1764646;13306
1764654;13082
1764665;13145
1764673;12993
1764681;12994
1764690;12704
1764698;12640
1764706;12325
1764715;12225
1764723;11881
1764732;11859
1764740;11638
1764748;11776
1764756;11740
1764764;12049
1764773;12204
1764781;12770
1764789;13139
1764797;13738
1764805;13944
1764814;14357
1764822;14392
1764830;14606
1764838;14503
1764846;14597
1764855;14399
1764863;14539
1764871;14363
1764879;14417
1764887;14252
1764895;14327
1764904;14137
1764912;14230
1764920;14075
1764928;14177
1764936;14019
1764945;14098
1764956;14024
1764964;14179
1764972;13989
1764980;14097
1764989;13937
1764997;14064
1765005;13926
1765013;14054
1765022;13914
1765031;14054
1765039;13933
1765047;14065
1765055;13898
1765063;14020
1765072;13877
1765080;14000
1765088;13870
1765096;13905
1765104;13653
1765113;13647
1765121;13523
1765129;13693
1765137;13548
1765145;13636
1765154;13562
1765162;13747
1765170;13726
1765178;13920
1765186;13826
1765194;13918
1765203;13853
1765211;13962
1765219;13857
1765227;13911
1765239;13779
1765247;13984
1765255;14304
1765263;12898
1765271;8952
1765279;5945
1765288;7549
1765296;14973
1765304;15733
1765312;15149
1765320;14401
1765329;14372
1765338;14022
1765346;13975
1765354;13703
1765362;13729
1765371;13574
1765379;13655
1765387;13520
1765395;13564
1765403;13410
1765412;13471
1765420;13309
1765428;13256
1765436;13025
1765444;12999
1765453;12733
1765461;12606
1765469;12320
1765477;12130
1765485;11794
1765494;11654
1765502;11553
1765510;11601
1765521;11719
1765529;12107
1765538;12248
1765546;12806
1765554;13129
1765562;13707
1765570;13926
1765578;14306
1765587;14305
1765595;14499
1765603;14399
1765611;14489
1765619;14357
1765628;14404
1765636;14296
1765644;14336
1765653;14193
1765661;14245
1765670;14095
1765678;14110
1765686;13996
1765694;14048
1765702;13925
1765711;13941
1765719;13878
1765727;13886
1765735;13831
1765743;13885
1765752;13888
1765760;13879
1765768;13881
1765776;13880
1765784;13900
1765793;13904
1765804;13946
1765812;14114
1765820;13971
1765828;14100
1765837;13934
1765845;14005
1765853;13887
1765861;13958
1765869;13888
1765878;13860
1765886;13667
1765894;13603
1765902;13501
1765910;13539
1765918;13485
1765927;13501
1765935;13480
1765943;13568
1765951;13601
1765959;13742
1765968;13743
1765977;13767
1765985;13774
1765993;13763
1766001;13756
1766010;13739
1766018;13688
1766026;13608
1766034;14210
1766042;13491
1766051;10495
1766059;6665
1766067;5925
1766075;12579
1766086;15747
1766095;15191
1766103;14435
1766111;14286
1766119;13969
1766127;13840
1766136;13713
1766144;13688
1766152;13587
1766160;13566
1766168;13436
1766177;13367
1766185;13276
1766193;13233
1766201;13186
1766209;13109
1766217;12947
1766226;12769
1766234;12627
1766242;12456
1766250;12275
1766258;11956
1766267;11753
1766275;11557
1766283;11522
1766291;11493
1766300;11619
1766309;11679
1766317;11995
1766325;12329
1766333;12851
1766341;13222
1766350;13693
1766358;13905
1766366;14167
1766377;14355
1766385;14419
1766394;14408
1766402;14364
1766410;14371
1766418;14329
1766426;14272
1766435;14246
1766443;14203
1766451;14166
1766459;14114
1766467;14109
1766476;14055
1766484;14070
1766492;14008
1766500;14079
1766508;14039
1766516;14035
1766525;13950
1766533;14012
1766541;13903
1766549;13983
1766557;13885
1766566;13978
1766574;13894
1766582;13998
1766590;13867
1766598;13959
1766607;13838
1766616;13937
1766624;13801
1766632;13912
1766640;13747
1766649;13843
1766659;13753
1766668;13695
1766676;13540
1766684;13505
1766693;13465
1766701;13482
1766709;13437
1766717;13527
1766725;13574
1766734;13726
1766742;13721
1766750;13822
1766758;13718
1766766;13747
1766775;13664
1766783;13756
1766791;13625
1766799;13637
1766807;13730
1766815;14010
1766824;11939
1766832;8180
1766840;5629
1766848;9389
1766856;15560
1766865;15766
1766873;14909
1766881;14500
1766889;14202
1766897;14107
1766906;13808
1766914;13845
1766922;13620
1766930;13661
1766941;13529
1766950;13567
1766958;13422
1766966;13411
1766974;13253
1766982;13264
1766991;13072
1767000;12989
1767008;12738
1767016;12651
1767024;12344
1767033;12198
1767041;11837
1767049;11796
1767057;11591
1767065;11714
1767074;11668
1767082;11903
1767090;11962
1767098;12383
1767106;12694
1767114;13318
1767123;13609
1767131;14053
1767139;14205
1767147;14493
1767155;14419
1767164;14604
1767172;14462
1767180;14590
1767188;14395
1767196;14489
1767205;14311
1767213;14401
1767224;14268
1767232;14345
1767240;14218
1767249;14270
1767257;14140
1767265;14230
1767273;14125
1767281;14185
1767290;14070
1767298;14192
1767306;14087
1767315;14168
1767323;14011
1767332;14101
1767340;13928
1767348;14036
1767356;13877
1767364;14008
1767373;13847
1767381;13965
1767389;13819
1767397;13944
1767405;13807
1767414;13817
1767422;13595
1767430;13643
1767438;13472
1767446;13568
1767454;13492
1767463;13677
1767471;13619
1767479;13864
1767487;13852
1767495;14025
1767507;13995
1767515;14172
1767523;13999
1767531;14072
1767539;13870
1767548;13948
1767556;13899
1767564;14319
1767572;12457
1767580;9014
1767589;6822
1767597;9543
1767605;15918
1767613;16226
1767621;15249
1767630;14612
1767638;14174
1767646;14108
1767655;13760
1767663;13798
1767672;13607
1767680;13646
1767688;13459
1767696;13548
1767704;13375
1767713;13390
1767721;13145
1767729;13143
1767737;12956
1767745;12968
1767753;12691
1767762;12644
1767770;12364
1767778;12228
1767786;11896
1767798;11780
1767806;11613
1767814;11680
1767822;11583
1767830;11801
1767838;11848
1767847;12337
1767855;12639
1767863;13188
1767871;13428
1767879;13912
1767888;14057
1767896;14320
1767904;14299
1767912;14429
1767920;14317
1767929;14417
1767937;14252
1767945;14312
1767953;14213
1767961;14270
1767970;14145
1767979;14226
1767987;14134
1767995;14185
1768003;14068
1768012;14136
1768020;14041
1768028;14120
1768036;14064
1768044;14119
1768052;14069
1768061;14112
1768069;14018
1768080;13949
1768088;13699
1768097;13763
1768105;13636
1768113;13804
1768121;13726
1768129;13888
1768137;13832
1768146;13958
1768154;13849
1768162;13945
1768170;13823
1768178;13879
1768187;13781
1768195;13862
1768203;13698
1768211;13692
1768219;13637
1768228;14083
1768236;12289
1768244;8764
1768252;6537
1768260;9062
1768269;15706
1768277;16063
1768285;15269
1768293;14583
1768302;14139
1768311;13967
1768319;13703
1768327;13570
1768335;13432
1768343;13358
1768351;13280
1768362;13304
1768371;13172
1768379;13175
1768387;12971
1768396;12986
1768404;12780
1768412;12731
1768420;12474
1768428;12350
1768436;12036
1768445;11835
1768453;11497
1768461;11382
1768469;11211
1768477;11302
1768486;11349
1768494;11523
1768502;11749
1768510;12234
1768518;12699
1768527;13212
1768535;13604
1768543;13957
1768551;14142
1768559;14302
1768568;14374
1768576;14397
1768584;14391
1768592;14359
1768600;14321
1768609;14227
1768617;14220
1768625;14163
1768634;14151
1768644;14140
1768653;14065
1768661;14064
1768669;13897
1768678;13895
1768686;13795
1768695;13835
1768703;13781
1768711;13835
1768719;13758
1768727;13829
1768735;13734
1768744;13701
1768752;13573
1768760;13583
1768768;13581
1768776;13626
1768785;13690
1768793;13761
1768801;13858
1768809;13917
1768817;13939
1768826;13901
1768834;13925
1768842;13893
1768850;13912
1768858;13811
1768867;13801
1768875;13656
1768883;14310
1768891;13548
1768899;10589
1768908;6544
1768916;5556
1768924;12439
1768935;15912
1768943;15361
1768952;14718
1768960;14503
1768968;14219
1768976;14023
1768984;13903
1768993;13824
1769001;13716
1769010;13651
1769018;13569
1769026;13491
1769034;13388
1769043;13281
1769051;13202
1769059;13045
1769067;12955
1769075;12801
1769084;12701
1769092;12469
1769100;12270
1769108;11953
1769116;11831
1769125;11663
1769133;11709
1769141;11677
1769149;11854
1769157;11954
1769166;12389
1769174;12742
1769182;13312
1769190;13669
1769198;14085
1769207;14187
1769218;14494
1769226;14584
1769234;14575
1769242;14543
1769251;14539
1769259;14503
1769267;14498
1769275;14419
1769283;14388
1769292;14330
1769300;14338
1769308;14267
1769316;14300
1769325;14261
1769334;14306
1769342;14205
1769350;14227
1769358;14113
1769366;14187
1769374;14082
1769383;14143
1769391;13989
1769399;14060
1769407;13833
1769415;13778
1769424;13595
1769432;13694
1769440;13554
1769448;13726
1769456;13669
1769465;13865
1769473;13852
1769481;14028
1769489;13923
1769500;14081
1769509;14061
1769517;14062
1769525;13971
1769533;13950
1769541;13812
1769550;13953
1769558;14311
1769566;12670
1769574;8581
1769582;5162
1769591;7207
1769599;14809
1769607;15702
1769615;15203
1769623;14542
1769631;14461
1769640;14087
1769648;14012
1769657;13810
1769665;13853
1769673;13673
1769682;13678
1769690;13522
1769698;13574
1769706;13357
1769714;13394
1769723;13189
1769731;13193
1769739;12922
1769747;12903
1769755;12635
1769764;12534
1769772;12147
1769783;11990
1769791;11732
1769799;11698
1769808;11590
1769816;11729
1769824;11764
1769832;12104
1769840;12409
1769849;12996
1769857;13331
1769865;13828
1769873;14014
1769881;14289
1769890;14329
1769898;14517
1769906;14397
1769914;14523
1769922;14411
1769930;14505
1769939;14335
1769947;14465
1769955;14288
1769963;14351
1769971;14179
1769981;14227
1769989;14032
1769997;14158
1770005;14032
1770013;14142
1770022;13975
1770030;14042
1770038;13897
1770046;14036
1770054;13876
1770066;14026
1770074;13927
1770082;13985
1770090;13839
1770098;13979
1770107;13848
1770115;13965
1770123;13824
1770131;13967
1770139;13830
1770148;13918
1770156;13691
1770164;13698
1770172;13458
1770180;13583
1770189;13431
1770197;13529
1770205;13404
1770213;13531
1770221;13425
1770230;13623
1770238;13507
1770246;13638
1770254;13468
1770262;13560
1770270;13448
1770279;13546
1770287;13381
1770295;13406
1770304;13236
1770312;13929
1770321;12777
1770329;9483
1770337;5644
1770345;5754
1770355;14574
1770364;15490
1770373;14694
1770381;14343
1770389;14068
1770397;13946
1770406;13622
1770414;13676
1770422;13485
1770430;13559
1770438;13401
1770447;13542
1770455;13388
1770463;13477
1770471;13266
1770479;13340
1770488;13117
1770496;13125
1770504;12891
1770512;12818
1770520;12496
1770529;12406
1770537;12065
1770545;11981
1770553;11786
1770561;11845
1770569;11764
1770578;11933
1770586;11996
1770594;12373
1770602;12781
1770610;13331
1770619;13716
1770627;14171
1770638;14452
1770646;14779
1770654;14675
1770663;14783
1770671;14640
1770679;14739
1770688;14551
1770696;14573
1770705;14403
1770713;14487
1770721;14284
1770729;14382
1770737;14223
1770746;14295
1770754;14121
1770762;14156
1770770;14019
1770778;14100
1770787;13987
1770795;14057
1770803;13934
1770811;13982
1770819;13855
1770828;13894
1770836;13805
1770844;13830
1770852;13773
1770860;13800
1770868;13719
1770877;13726
1770885;13673
1770893;13726
1770901;13695
1770909;13687
1770921;13627
1770929;13768
1770937;13614
1770945;13708
1770953;13544
1770962;13616
1770970;13517
1770978;13626
1770987;13527
1770995;13588
1771004;13396
1771012;13387
1771020;13244
1771028;13343
1771036;13270
1771045;13306
1771053;13248
1771061;13325
1771069;13330
1771077;13475
1771086;13487
1771094;13545
1771102;13490
1771110;13536
1771118;13501
1771127;13503
1771135;13454
1771143;13405
1771151;13925
1771159;13507
1771167;10911
1771176;6793
1771184;5128
1771192;10782
1771203;15376
1771212;15032
1771220;14327
1771228;14276
1771236;14011
1771244;13897
1771252;13692
1771261;13731
1771269;13601
1771277;13611
1771285;13507
1771294;13521
1771303;13369
1771311;13317
1771319;13160
1771327;13074
1771335;12935
1771344;12869
1771352;12712
1771360;12551
1771368;12336
1771376;12089
1771385;11832
1771393;11651
1771401;11588
1771409;11562
1771417;11624
1771426;11704
1771434;11979
1771442;12299
1771450;12827
1771458;13271
1771466;13752
1771475;14008
1771486;14389
1771494;14642
1771502;14619
1771511;14673
1771519;14610
1771527;14640
1771535;14581
1771543;14615
1771551;14557
1771560;14573
1771568;14517
1771576;14490
1771584;14433
1771592;14405
1771601;14360
1771610;14330
1771618;14355
1771626;14324
1771634;14347
1771643;14296
1771651;14304
1771659;14188
1771667;14208
1771675;14139
1771684;14152
1771692;14054
1771700;14124
1771708;14032
1771716;14094
1771725;14025
1771733;14090
1771741;13971
1771749;14007
1771757;13853
1771769;13893
1771777;13930
1771785;13866
1771793;13817
1771801;13751
1771810;13737
1771818;13681
1771826;13637
1771834;13579
1771842;13450
1771850;13381
1771859;13313
1771867;13367
1771875;13341
1771883;13432
1771891;13395
1771900;13550
1771908;13607
1771916;13781
1771924;13741
1771932;13810
1771942;13724
1771950;13801
1771958;13685
1771966;13694
1771974;13516
1771983;13594
1771991;13961
1771999;12753
1772007;9177
1772015;6256
1772024;7202
1772032;14503
1772040;15486
1772048;14910
1772059;14212
1772068;14158
1772076;13867
1772084;13700
1772092;13529
1772100;13538
1772109;13446
1772117;13430
1772125;13321
1772133;13329
1772141;13203
1772150;13191
1772158;13033
1772166;13020
1772174;12826
1772182;12805
1772190;12591
1772199;12492
1772207;12182
1772215;12051
1772223;11701
1772231;11667
1772240;11511
1772248;11660
1772256;11635
1772265;11918
1772273;12098
1772282;12632
1772290;12958
1772298;13491
1772306;13727
1772314;14109
1772323;14139
1772331;14364
1772371;16226
1772379;16058
1772387;15523
1772395;15273
1772403;14864
1772412;14691
1772420;14445
1772428;14403
1772436;14167
1772444;14142
1772453;13989
1772461;13967
1772469;13811
1772477;13812
1772485;13696
1772494;13712
1772502;13630
1772510;13676
1772518;13624
1772526;13606
1772535;13525
1772543;13537
1772551;13513
1772560;13492
1772568;13462
1772577;13441
1772585;13435
1772593;13427
1772601;13435
1772609;13450
1772617;13498
1772626;13402
1772634;13336
1772642;13220
1772653;13255
1772662;13388
1772670;13261
1772678;13305
1772686;13241
1772694;13352
1772702;13390
1772711;13456
1772719;13386
1772727;13441
1772735;13403
1772743;13429
1772752;13377
1772760;13394
1772768;13355
1772776;13819
1772784;12477
1772793;9107
1772801;6689
1772809;7886
1772817;14957
1772825;15924
1772834;15148
1772842;14399
1772850;14100
1772858;13881
1772866;13713
1772876;13544
1772884;13519
1772892;13341
1772900;13318
1772908;13170
1772916;13217
1772925;13100
1772936;13087
1772944;13118
1772952;12982
1772961;12923
1772969;12745
1772977;12625
1772985;12415
1772993;12212
1773001;11949
1773010;11740
1773018;11596
1773026;11501
1773034;11570
1773042;11685
1773051;11869
1773059;12166
1773067;12624
1773075;13080
1773083;13592
1773092;13896
1773100;14145
1773108;14211
1773116;14373
1773124;14402
1773133;14527
1773141;14452
1773149;14497
1773157;14351
1773165;14376
1773174;14232
1773182;14259
1773190;14099
1773199;14144
1773207;14009
1773218;14086
1773226;14136
1773234;14095
1773242;14041
1773251;14008
1773260;13974
1773268;13973
1773276;13973
1773284;14005
1773292;13960
1773300;13984
1773309;13940
1773317;13987
1773325;13895
1773333;13935
1773341;13847
1773350;13895
1773358;13831
1773366;13888
1773374;13808
1773382;13868
1773391;13705
1773399;13640
1773407;13484
1773415;13575
1773423;13455
1773432;13561
1773440;13490
1773448;13689
1773456;13655
1773464;13887
1773473;13804
1773481;13934
1773489;13765
1773497;13846
1773508;13758
1773517;13804
1773525;13682
1773533;14186
1773541;13682
1773549;11073
1773559;7153
1773567;5752
1773575;11627
1773583;15817
1773591;15357
1773599;14713
1773608;14295
1773616;14244
1773624;13896
1773632;13811
1773640;13583
1773649;13639
1773657;13487
1773665;13542
1773673;13333
1773681;13349
1773690;13126
1773698;13164
1773706;12986
1773714;12993
1773722;12767
1773731;12785
1773739;12526
1773747;12452
1773755;12080
1773763;11983
1773772;11596
1773780;11577
1773791;11519
1773799;11713
1773807;11757
1773816;12075
1773824;12398
1773832;12956
1773840;13320
1773848;13828
1773857;14017
1773866;14307
1773874;14304
1773882;14451
1773890;14372
1773898;14506
1773907;14356
1773915;14424
1773923;14256
1773931;14338
1773939;14191
1773948;14281
1773956;14094
1773964;14183
1773972;14045
1773980;14153
1773989;13973
1773997;14079
1774005;13902
1774013;13995
1774021;13869
1774030;14038
1774038;13890
1774046;14016
1774054;13880
1774062;13983
1774074;13927
1774082;14109
1774090;13966
1774098;14063
1774106;13944
1774115;13990
1774123;13874
1774131;13999
1774139;13866
1774147;13988
1774156;13839
1774164;13847
1774173;13602
1774181;13616
1774189;13465
1774198;13616
1774206;13467
1774214;13591
1774222;13471
1774230;13682
1774238;13624
1774247;13823
1774255;13730
1774263;13861
1774271;13715
1774279;13776
1774288;13633
1774296;13688
1774304;13498
1774312;14059
1774320;13626
1774329;11244
1774337;7176
1774345;5527
1774356;13629
1774364;15893
1774373;15144
1774381;14566
1774389;14213
1774397;14149
1774405;13771
1774414;13803
1774422;13583
1774430;13640
1774438;13470
1774446;13547
1774455;13353
1774463;13431
1774471;13208
1774479;13296
1774487;13115
1774495;13152
1774504;12866
1774513;12860
1774521;12552
1774529;12463
1774537;12123
1774546;12001
1774554;11681
1774562;11723
1774570;11610
1774578;11736
1774587;11743
1774595;12037
1774603;12314
1774611;12883
1774619;13244
1774628;13710
1774639;14073
1774647;14470
1774655;14400
1774663;14563
1774672;14416
1774680;14530
1774688;14365
1774696;14487
1774704;14290
1774713;14374
1774721;14235
1774729;14318
1774737;14089
1774745;14169
1774754;14016
1774762;14112
1774770;13950
1774778;14042
1774786;13909
1774794;13984
1774803;13861
1774811;13945
1774819;13831
1774827;13872
1774835;13772
1774845;13849
1774853;13775
1774861;13851
1774869;13771
1774877;13820
1774886;13764
1774894;13826
1774902;13818
1774910;13858
1774918;13837
1774930;13961
1774938;13884
1774946;13997
1774954;13759
1774962;13721
1774971;13474
1774979;13541
1774987;13435
1774995;13543
1775003;13446
1775012;13578
1775020;13561
1775028;13717
1775036;13654
1775044;13724
1775053;13626
1775061;13720
1775069;13653
1775077;13671
1775085;13564
1775094;13574
1775102;13946
1775110;13660
1775118;11162
1775126;7390
1775134;5719
1775143;11331
1775151;15759
1775159;15418
1775167;14656
1775176;14283
1775185;14178
1775193;13940
1775201;13794
1775211;13820
1775219;13678
1775229;13675
1775237;13458
1775245;13477
1775253;13298
1775261;13307
1775270;13167
1775278;13148
1775286;12980
1775294;12928
1775302;12709
1775311;12608
1775319;12352
1775327;12186
1775335;11904
1775343;11753
1775352;11638
1775360;11653
1775368;11681
1775376;11826
1775384;12055
1775393;12444
1775401;12941
1775409;13399
1775417;13809
1775425;14141
1775433;14396
1775442;14481
1775450;14603
1775458;14622
1775466;14672
1775474;14640
1775483;14644
1775494;14677
1775502;14593
1775510;14597
1775518;14427
1775527;14384
1775535;14254
1775543;14249
1775552;14140
1775560;14150
1775569;14086
1775577;14115
1775585;14052
1775593;14055
1775601;14033
1775610;14038
1775618;14037
1775626;14025
1775634;14024
1775642;14015
1775651;14021
1775659;13956
1775667;13946
1775675;13900
1775683;13985
1775692;13945
1775700;13993
1775708;13916
1775716;13970
1775724;13846
1775732;13824
1775741;13665
1775749;13655
1775757;13543
1775765;13636
1775777;13675
1775785;13702
1775793;13759
1775801;13750
1775809;13872
1775817;13861
1775826;13855
1775834;13802
1775842;13801
1775850;13766
1775859;13739
1775868;13724
1775876;13635
1775884;14230
1775892;13209
1775900;9999
1775909;6866
1775917;7079
1775925;14159
1775933;16014
1775941;15213
1775950;14542
1775958;14129
1775966;14045
1775974;13729
1775982;13656
1775991;13471
1775999;13473
1776007;13307
1776015;13321
1776023;13154
1776031;13223
1776040;13060
1776048;13079
1776059;12996
1776067;12918
1776076;12765
1776084;12580
1776092;12362
1776100;12145
1776108;11870
1776116;11660
1776125;11470
1776133;11444
1776141;11444
1776149;11575
1776157;11683
1776166;12023
1776174;12359
1776182;12893
1776191;13237
1776199;13668
1776208;13865
1776216;14129
1776224;14164
1776232;14301
1776240;14234
1776249;14343
1776257;14256
1776265;14325
1776273;14202
1776281;14274
1776290;14077
1776298;14139
1776306;13950
1776314;14045
1776322;13871
1776330;13955
1776339;13846
1776350;13963
1776358;13972
1776366;13982
1776375;13874
1776383;13912
1776391;13825
1776399;13851
1776407;13764
1776415;13834
1776424;13764
1776432;13818
1776440;13709
1776448;13783
1776456;13651
1776465;13764
1776473;13654
1776481;13759
1776489;13672
1776497;13807
1776506;13695
1776515;13750
1776523;13502
1776531;13514
1776539;13369
1776548;13523
1776556;13406
1776564;13545
1776572;13463
1776580;13630
1776589;13614
1776597;13804
1776605;13691
1776613;13810
1776621;13633
1776633;13748
1776641;13653
1776649;13671
1776657;13515
1776665;14138
1776674;12972
1776682;9760
1776690;6452
1776698;6888
1776706;14004
1776714;15869
1776723;15085
1776731;14469
1776739;14075
1776747;14032
1776755;13668
1776764;13666
1776772;13436
1776780;13483
1776788;13302
1776796;13396
1776805;13205
1776813;13270
1776821;13073
1776829;13136
1776837;12945
1776846;12959
1776855;12707
1776863;12670
1776871;12360
1776879;12246
1776888;11907
1776896;11822
1776904;11545
1776915;11664
1776923;11613
1776932;11800
1776940;11874
1776948;12310
1776956;12607
1776964;13180
1776973;13487
1776981;13962
1776989;14080
1776997;14354
1777005;14303
1777014;14492
1777022;14415
1777030;14509
1777038;14343
1777046;14464
1777054;14308
1777063;14394
1777071;14192
1777079;14269
1777087;14065
1777095;14118
1777104;13948
1777112;14076
1777120;13936
1777128;14036
1777136;13905
1777145;14007
1777153;13887
1777162;14014
1777170;13902
1777178;14023
1777187;13917
1777197;14100
1777205;14006
1777214;14050
1777222;13863
1777231;14034
1777239;13866
1777247;13932
1777255;13859
1777263;14132
1777272;14161
1777280;14371
1777288;14236
1777296;14237
1777304;14058
1777313;14129
1777321;13952
1777329;14009
1777337;13804
1777345;13879
1777353;13718
1777362;13914
1777370;13772
1777378;13844
1777386;13642
1777394;13707
1777403;13524
1777411;13555
1777419;13383
1777427;13819
1777435;13651
1777444;11514
1777452;7489
1777460;5381
1777468;10042
1777488;15532
1777496;14988
1777504;14553
1777512;14421
1777520;14021
1777529;14003
1777537;13731
1777546;13702
1777554;13479
1777562;13481
1777571;13294
1777579;13276
1777587;13060
1777595;13046
1777603;12904
1777612;12903
1777620;12710
1777628;12706
1777636;12500
1777644;12435
1777652;12155
1777661;12016
1777669;11720
1777677;11708
1777685;11585
1777693;11668
1777702;11700
1777710;11938
1777718;12204
1777726;12688
1777734;13118
1777743;13599
1777751;13870
1777759;14109
1777767;14233
1777778;14438
1777787;14377
1777795;14413
1777803;14285
1777811;14319
1777819;14169
1777828;14212
1777836;14098
1777844;14149
1777852;14033
1777861;14071
1777870;13917
1777878;13913
1777886;13776
1777894;13819
1777902;13737
1777911;13810
1777919;13733
1777927;13777
1777935;13699
1777943;13784
1777951;13753
1777960;13753
1777968;13686
1777976;13599
1777984;13446
1777992;13473
1778001;13412
1778009;13396
1778017;13415
1778025;13510
1778033;13557
1778042;13625
1778050;13642
1778061;13721
1778069;13700
1778077;13773
1778086;13674
1778094;13675
1778102;13562
1778110;13590
1778118;14059
1778127;13745
1778135;10866
1778143;6849
1778151;5178
1778159;11842
1778168;15839
1778177;15473
1778185;14707
1778193;14397
1778201;14212
1778210;13978
1778218;13821
1778226;13784
1778234;13713
1778242;13650
1778250;13558
1778259;13464
1778267;13435
1778275;13358
1778283;13291
1778291;13168
1778300;13106
1778308;12987
1778316;12900
1778324;12715
1778332;12552
1778344;12320
1778352;12124
1778360;12056
1778368;11882
1778376;11915
1778385;11966
1778393;12179
1778401;12443
1778409;12898
1778417;13377
1778426;13878
1778434;14268
1778442;14566
1778450;14719
1778458;14818
1778467;14846
1778475;14858
1778483;14866
1778492;14829
1778500;14795
1778509;14671
1778517;14681
1778525;14611
1778533;14599
1778541;14484
1778550;14489
1778558;14398
1778566;14460
1778574;14352
1778582;14377
1778590;14287
1778599;14355
1778607;14280
1778615;14286
1778626;14225
1778634;14100
1778643;14012
1778651;13921
1778659;13908
1778667;13895
1778675;13933
1778684;13970
1778692;14056
1778700;14153
1778708;14134
1778716;14120
1778725;14023
1778733;14015
1778741;13924
1778749;13896
1778757;13768
1778766;13709
1778774;13895
1778782;13887
1778790;11599
1778798;7914
1778807;5840
1778815;10967
1778823;16182
1778832;15798
1778840;14940
1778849;14427
1778857;14134
1778865;14005
1778873;13718
1778881;13723
1778889;13558
1778898;13589
1778909;13550
1778917;13594
1778925;13476
1778934;13362
1778942;13213
1778950;13125
1778958;12995
1778966;12921
1778974;12715
1778983;12557
1778991;12255
1778999;12028
1779007;11717
1779015;11607
1779024;11489
1779032;11583
1779040;11584
1779048;11834
1779056;12075
1779065;12573
1779073;12957
1779081;13485
1779089;13728
1779097;14104
1779106;14166
1779114;14345
1779122;14287
1779130;14437
1779139;14367
1779148;14446
1779156;14335
1779164;14402
1779172;14214
1779180;14241
1779192;14170
1779200;14225
1779208;14090
1779216;14098
1779224;14057
1779233;14144
1779241;14022
1779249;14041
1779257;13889
1779265;13814
1779273;13627
1779282;13665
1779290;13560
1779298;13662
1779306;13665
1779314;13775
1779323;13741
1779331;13896
1779339;13800
1779347;13881
1779355;13775
1779364;13870
1779372;13725
1779380;13813
1779388;13676
1779396;13759
1779405;13642
1779413;14206
1779421;12619
1779429;9140
1779437;5995
1779446;7710
1779454;15185
1779463;16118
1779471;15227
1779481;14541
1779490;14332
1779498;14154
1779506;13843
1779515;13795
1779523;13635
1779532;13652
1779540;13489
1779548;13513
1779556;13332
1779564;13342
1779572;13175
1779581;13157
1779589;12941
1779597;12918
1779605;12672
1779613;12596
1779622;12273
1779630;12136
1779638;11738
1779646;11676
1779654;11479
1779663;11597
1779671;11550
1779679;11826
1779687;11972
1779695;12548
1779704;12934
1779712;13492
1779720;13747
1779728;14121
1779736;14175
1779745;14383
1779753;14380
1779764;14562
1779772;14470
1779780;14512
1779789;14340
1779797;14404
1779805;14246
1779813;14261
1779822;14089
1779831;14135
1779839;13971
1779847;14050
1779855;13880
1779863;13964
1779871;13882
1779880;14021
1779888;13867
1779896;13936
1779904;13714
1779912;13655
1779921;13468
1779929;13561
1779937;13445
1779945;13576
1779953;13536
1779962;13706
1779970;13653
1779978;13821
1779986;13740
1779994;13850
1780003;13729
1780011;13763
1780019;13670
1780027;13755
1780035;13624
1780047;13656
1780055;14057
1780063;14026
1780071;11332
1780079;6983
1780088;4448
1780096;10037
1780104;15514
1780112;15549
1780120;14740
1780129;14524
1780138;14280
1780146;14155
1780154;13913
1780162;13915
1780170;13697
1780179;13723
1780187;13551
1780195;13663
1780203;13524
1780211;13527
1780220;13339
1780228;13351
1780236;13170
1780244;13143
1780252;12920
1780261;12831
1780269;12534
1780277;12387
1780285;12081
1780293;11994
1780302;11834
1780310;11895
1780318;11869
1780329;12244
1780337;12511
1780346;13026
1780354;13361
1780362;13890
1780370;14102
1780378;14458
1780387;14481
1780395;14695
1780403;14636
1780411;14720
1780419;14589
1780428;14647
1780436;14503
1780444;14548
1780453;14369
1780461;14437
1780470;14296
1780478;14335
1780486;14215
1780494;14287
1780502;14164
1780510;14227
1780519;14111
1780527;14161
1780535;14074
1780543;14115
1780551;14029
1780560;14070
1780568;14006
1780576;14037
1780584;14014
1780592;14041
1780601;14042
1780612;14094
1780620;13937
1780628;13837
1780636;13639
1780645;13762
1780653;13646
1780661;13712
1780669;13622
1780677;13765
1780686;13731
1780694;13870
1780702;13756
1780710;13812
1780718;13699
1780727;13728
1780735;13600
1780743;13639
1780751;13517
1780759;13482
1780767;13959
1780777;13506
1780785;10521
1780793;6271
1780801;4767
1780809;11074
1780818;15390
1780826;15203
1780834;14554
1780842;14301
1780850;14084
1780859;13858
1780867;13719
1780875;13609
1780883;13550
1780891;13479
1780903;13444
1780911;13548
1780919;13359
1780927;13357
1780935;13174
1780944;13155
1780952;12989
1780960;12960
1780968;12760
1780976;12628
1780985;12375
1780993;12174
1781001;11885
1781009;11776
1781017;11662
1781026;11708
1781034;11766
1781042;11942
1781050;12247
1781058;12738
1781066;13265
1781075;13732
1781083;14051
1781091;14278
1781100;14413
1781108;14469
1781117;14513
1781125;14471
1781133;14467
1781141;14354
1781149;14302
1781158;14188
1781166;14203
1781174;14116
1781185;14088
1781193;14189
1781202;14093
1781210;14105
1781218;14022
1781226;14082
1781234;14023
1781243;14034
1781251;13985
1781259;14006
1781267;13915
1781275;13913
1781284;13889
1781292;13866
1781300;13812
1781308;13779
1781316;13756
1781325;13707
1781333;13707
1781341;13698
1781349;13717
1781357;13687
1781366;13694
1781374;13690
1781382;13719
1781390;13679
1781398;13744
1781406;13647
1781416;13614
1781424;13491
1781432;13553
1781440;13512
1781448;13597
1781457;13542
1781468;13719
1781476;13884
1781484;13850
1781492;13890
1781501;13872
1781509;13859
1781517;13780
1781525;13773
1781533;13767
1781542;13680
1781550;13604
1781558;13654
1781566;14099
1781574;12515
1781583;8633
1781591;5331
1781599;7156
1781607;14375
1781615;15440
1781624;14761
1781632;14298
1781640;14169
1781648;14047
1781656;13793
1781665;13778
1781673;13612
1781681;13630
1781689;13504
1781697;13510
1781705;13348
1781714;13406
1781722;13254
1781730;13270
1781738;13055
1781750;13002
1781758;12886
1781766;12703
1781774;12462
1781782;12197
1781791;11923
1781800;11710
1781808;11546
1781816;11556
1781824;11583
1781832;11737
1781841;11914
1781849;12332
1781857;12724
1781865;13251
1781873;13604
1781882;14017
1781890;14203
1781898;14467
1781906;14453
1781914;14523
1781923;14435
1781931;14470
1781939;14357
1781947;14405
1781955;14263
1781964;14287
1781972;14146
1781980;14234
1781988;14112
1781996;14184
1782004;14041
1782013;14150
1782021;14054
1782062;16025
1782070;15605
1782078;15275
1782086;14827
1782095;14644
1782103;14302
1782111;14244
1782119;13997
1782127;13995
1782136;13826
1782144;13805
1782152;13623
1782160;13592
1782168;13437
1782177;13457
1782185;13375
1782193;13450
1782201;13340
1782209;13348
1782217;13250
1782226;13262
1782234;13146
1782242;13173
1782250;13051
1782258;12967
1782267;12824
1782275;12811
1782284;12778
1782292;12832
1782300;12850
1782309;12923
1782317;13022
1782325;13161
1782333;13260
1782341;13285
1782353;13366
1782361;13507
1782369;13360
1782377;13393
1782385;13257
1782394;13279
1782402;13133
1782410;13759
1782418;13006
1782426;10220
1782435;6620
1782443;5804
1782451;12246
1782459;15517
1782467;14985
1782476;14394
1782484;14061
1782492;13972
1782500;13750
1782508;13621
1782516;13542
1782525;13501
1782533;13478
1782541;13447
1782549;13452
1782557;13405
1782566;13361
1782574;13319
1782582;13281
1782590;13146
1782599;13081
1782608;12916
1782616;12787
1782624;12534
1782634;12249
1782642;12110
1782652;11831
1782660;11780
1782668;11719
1782676;11830
1782684;11898
1782693;12178
1782701;12510
1782709;12998
1782717;13462
1782725;13884
1782734;14143
1782742;14352
1782750;14468
1782758;14562
1782766;14641
1782775;14654
1782783;14598
1782791;14563
1782799;14544
1782807;14476
1782815;14439
1782824;14348
1782832;14365
1782840;14329
1782848;14334
1782856;14273
1782865;14288
1782873;14197
1782881;14219
1782889;14125
1782897;14191
1782906;14112
1782917;14229
1782925;14299
1782933;14209
1782941;14198
1782950;14133
1782958;14086
1782967;14025
1782975;13997
1782983;13929
1782992;13892
1783000;13865
1783008;13835
1783016;13843
1783024;13861
1783033;13835
1783041;13697
1783049;13597
1783057;13491
1783065;13533
1783074;13508
1783082;13487
1783090;13417
1783098;13507
1783106;13548
1783114;13688
1783123;13663
1783131;13748
1783139;13678
1783147;13709
1783155;13595
1783164;13597
1783172;13415
1783180;13428
1783188;13763
1783199;12962
1783208;9721
1783216;6505
1783224;6821
1783232;14120
1783240;15906
1783249;15205
1783257;14424
1783265;14127
1783274;13924
1783282;13721
1783291;13535
1783299;13500
1783307;13393
1783315;13390
1783323;13302
1783332;13321
1783340;13218
1783348;13227
1783356;13075
1783364;13063
1783373;12859
1783381;12833
1783389;12604
1783397;12485
1783405;12135
1783414;11942
1783422;11581
1783430;11479
1783438;11259
1783446;11368
1783454;11334
1783463;11581
1783471;11746
1783482;12490
1783490;13043
1783498;13523
1783507;13847
1783515;14122
1783523;14260
1783531;14410
1783539;14403
1783548;14442
1783556;14369
1783564;14404
1783572;14318
1783580;14347
1783590;14220
1783598;14259
1783606;14068
1783614;14111
1783622;13973
1783631;14019
1783639;13845
1783647;13921
1783655;13801
1783663;13884
1783672;13769
1783680;13904
1783688;13823
1783696;13928
1783704;13851
1783713;13959
1783721;13831
1783729;13929
1783737;13800
1783745;13898
1783753;13781
1783762;13871
1783773;13820
1783781;13903
1783789;13774
1783798;13771
1783806;13697
1783814;13735
1783822;13625
1783830;13715
1783838;13634
1783847;13706
1783855;13591
1783863;13589
1783871;13371
1783879;13361
1783888;13216
1783896;13329
1783905;13210
1783913;13257
1783921;13181
1783930;13344
1783938;13305
1783946;13541
1783954;13482
1783962;13569
1783971;13443
1783979;13555
1783987;13415
1783995;13466
1784003;13265
1784012;13954
1784020;13249
1784028;10512
1784036;6450
1784044;5432
1784056;14165
1784064;15720
1784072;15036
1784080;14551
1784088;14325
1784097;14253
1784105;13947
1784113;13933
1784121;13761
1784129;13830
1784137;13668
1784146;13702
1784154;13503
1784162;13549
1784170;13359
1784178;13383
1784187;13154
1784195;13162
1784203;12936
1784211;12884
1784219;12613
1784228;12513
1784236;12176
1784245;12034
1784253;11727
1784261;11752
1784270;11626
1784278;11786
1784286;11796
1784294;12164
1784302;12481
1784311;13108
1784319;13501
1784327;13995
1784338;14363
1784346;14668
1784355;14641
1784363;14764
1784371;14635
1784379;14699
1784387;14533
1784396;14581
1784404;14397
1784412;14481
1784420;14380
1784428;14430
1784436;14244
1784445;14318
1784453;14142
1784461;14179
1784469;14007
1784477;14056
1784486;13942
1784494;14061
1784502;13950
1784510;14032
1784518;13908
1784527;13965
1784535;13830
1784543;13908
1784551;13770
1784560;13826
1784569;13699
1784577;13792
1784585;13691
1784593;13758
1784601;13651
1784610;13716
1784621;13695
1784629;13840
1784637;13701
1784645;13797
1784654;13668
1784662;13783
1784670;13676
1784678;13782
1784686;13672
1784695;13767
1784703;13639
1784711;13744
1784719;13537
1784727;13547
1784735;13311
1784744;13368
1784752;13280
1784760;13398
1784768;13310
1784776;13348
1784785;13268
1784793;13465
1784801;13490
1784809;13602
1784817;13503
1784826;13563
1784834;13455
1784842;13530
1784850;13441
1784858;13458
1784867;13635
1784876;13727
1784884;11619
1784892;7658
1784902;5357
1784911;12095
1784919;15398
1784928;15082
1784936;14333
1784944;14216
1784953;13993
1784961;13877
1784969;13665
1784977;13685
1784985;13492
1784994;13552
1785002;13388
1785010;13446
1785018;13295
1785026;13306
1785034;13145
1785043;13133
1785051;12958
1785059;12931
1785067;12710
1785075;12639
1785084;12404
1785092;12242
1785100;11933
1785108;11811
1785116;11624
1785125;11620
1785133;11604
1785141;11754
1785149;11918
1785157;12283
1785166;12729
1785174;13237
1785182;13678
1785193;14270
1785201;14444
1785210;14626
1785218;14578
1785226;14726
1785234;14632
1785242;14697
1785252;14556
1785260;14610
1785268;14493
1785276;14551
1785284;14397
1785293;14387
1785301;14217
1785309;14186
1785317;14072
1785325;14103
1785334;14013
1785342;14049
1785350;13997
1785358;14021
1785366;13989
1785374;14018
1785383;13974
1785391;13982
1785399;13947
1785407;13931
1785415;13931
1785424;13939
1785432;13959
1785440;13969
1785448;13943
1785456;13926
1785465;13909
1785476;13985
1785484;13950
1785492;14000
1785500;13887
1785509;13949
1785517;13835
1785525;13835
1785533;13738
1785541;13786
1785550;13712
1785559;13749
1785567;13702
1785575;13670
1785583;13532
1785592;13441
1785600;13357
1785608;13400
1785616;13400
1785624;13394
1785633;13300
1785641;13319
1785649;13378
1785657;13447
1785665;13482
1785673;13466
1785682;13442
1785690;13444
1785698;13453
1785706;13383
1785714;13350
1785723;13740
1785731;13547
1785739;11289
1785747;7664
1785758;6595
1785767;13593
1785775;15793
1785783;15103
1785791;14479
1785799;14191
1785808;14092
1785816;13823
1785824;13753
1785832;13665
1785840;13598
1785849;13517
1785857;13484
1785865;13396
1785874;13343
1785882;13292
1785891;13193
1785899;13142
1785907;13057
1785915;13002
1785923;12860
1785932;12719
1785940;12510
1785948;12273
1785956;11948
1785964;11793
1785972;11598
1785981;11608
1785989;11610
1785997;11754
1786005;11882
1786013;12253
1786022;12615
1786030;13190
1786041;13794
1786049;14145
1786057;14382
1786066;14493
1786074;14572
1786082;14607
1786090;14637
1786098;14641
1786107;14631
1786115;14592
1786123;14558
1786131;14505
1786139;14387
1786148;14326
1786156;14241
1786164;14181
1786172;14094
1786180;14090
1786189;13990
1786197;13994
1786206;13936
1786214;13959
1786222;13908
1786231;13981
1786239;13934
1786247;13997
1786255;13928
1786263;13983
1786271;13921
1786280;14009
1786288;13902
1786296;13973
1786304;13898
1786312;13959
1786324;13992
1786332;14048
1786340;14001
1786348;14001
1786356;13959
1786365;13958
1786373;13919
1786381;13970
1786389;13925
1786397;13877
1786406;13716
1786414;13589
1786422;13472
1786430;13515
1786438;13455
1786447;13524
1786455;13454
1786463;13559
1786471;13560
1786479;13698
1786488;13665
1786496;13747
1786504;13651
1786512;13700
1786520;13569
1786530;13604
1786538;13400
1786546;13894
1786554;13265
1786562;10906
1786570;7530
1786579;6469
1786587;12188
1786595;16131
1786606;15235
1786615;14550
1786623;14146
1786631;14031
1786639;13753
1786647;13674
1786655;13569
1786664;13535
1786672;13403
1786680;13415
1786688;13273
1786696;13244
1786705;13115
1786713;13056
1786721;12860
1786729;12846
1786737;12632
1786746;12533
1786754;12236
1786762;12105
1786770;11734
1786778;11569
1786787;11268
1786795;11252
1786803;11139
1786811;11295
1786819;11330
1786828;11673
1786836;11950
1786844;12564
1786852;12968
1786861;13559
1786870;13823
1786878;14187
1786886;14237
1786896;14496
1786905;14528
1786914;14595
1786922;14478
1786930;14514
1786938;14373
1786946;14402
1786954;14280
1786963;14299
1786971;14128
1786979;14130
1786987;13953
1786995;14016
1787004;13923
1787012;14015
1787020;13915
1787028;14014
1787036;13929
1787045;14026
1787053;13913
1787061;14017
1787069;13906
1787077;14001
1787086;13876
1787094;13968
1787102;13814
1787110;13844
1787118;13708
1787127;13792
1787135;13642
1787143;13706
1787151;13552
1787159;13600
1787169;13543
1787179;13747
1787187;13730
1787195;13839
1787203;13745
1787212;13843
1787221;13637
1787229;13616
1787237;13390
1787245;13398
1787254;13231
1787262;13359
1787270;13223
1787278;13328
1787286;13273
1787294;13490
1787303;13494
1787311;13666
1787319;13565
1787327;13667
1787335;13572
1787344;13629
1787352;13451
1787360;13520
1787368;14010
1787376;13043
1787385;9590
1787393;6248
1787401;6396
1787409;13765
1787417;15454
1787426;14948
1787434;14219
1787442;14129
1787450;13922
1787461;13848
1787470;13722
1787478;13750
1787486;13566
1787494;13618
1787502;13460
1787511;13520
1787519;13354
1787527;13382
1787535;13189
1787544;13221
1787553;13037
1787561;12998
1787569;12725
1787577;12643
1787585;12319
1787593;12171
1787602;11791
1787610;11682
1787618;11457
1787626;11571
1787634;11527
1787643;11759
1787651;11908
1787659;12406
1787667;12824
1787675;13404
1787684;13708
1787692;14091
1787700;14203
1787708;14427
1787716;14411
1787725;14473
1787733;14402
1787744;14520
1787752;14434
1787760;14499
1787769;14297
1787777;14375
1787785;14215
1787793;14311
1787801;14187
1787810;14268
1787818;14156
1787826;14217
1787834;14092
1787842;14180
1787850;14083
1787860;14195
1787868;14065
1787876;14142
1787884;14021
1787892;14063
1787901;13963
1787909;13982
1787917;13872
1787925;13959
1787933;13857
1787942;13931
1787950;13860
1787958;13920
1787966;13791
1787974;13755
1787983;13550
1787991;13485
1787999;13443
1788007;13446
1788015;13431
1788027;13632
1788035;13616
1788043;13755
1788051;13641
1788059;13717
1788068;13625
1788076;13684
1788084;13555
1788092;13626
1788100;13493
1788109;13495
1788117;13870
1788125;13584
1788133;10821
1788141;6897
1788150;5144
1788158;11114
1788166;15663
1788174;15387
1788182;14588
1788190;14280
1788200;14112
1788208;13943
1788216;13760
1788224;13727
1788232;13629
1788241;13597
1788249;13493
1788257;13454
1788265;13366
1788273;13331
1788282;13245
1788290;13153
1788298;13047
1788306;12942
1788317;12791
1788326;12760
1788334;12423
1788342;12251
1788350;11879
1788358;11746
1788367;11539
1788375;11616
1788383;11594
1788391;11774
1788399;11927
1788408;12344
1788416;12803
1788424;13328
1788432;13716
1788440;14100
1788449;14277
1788457;14434
1788465;14479
1788473;14521
1788481;14505
1788489;14508
1788498;14469
1788506;14442
1788514;14374
1788523;14308
1788531;14266
1788540;14226
1788548;14158
1788556;14101
1788564;14099
1788572;14047
1788581;14051
1788589;14024
1788600;14038
1788608;14173
1788616;14098
1788625;14134
1788633;14041
1788641;14088
1788649;13989
1788657;14012
1788666;13956
1788674;14002
1788682;13971
1788690;13982
1788698;13909
1788707;13781
1788715;13656
1788723;13623
1788731;13632
1788739;13671
1788748;13724
1788756;13826
1788764;13930
1788772;13970
1788780;14032
1788788;14017
1788797;14054
1788805;13983
1788813;13968
1788821;13849
1788829;13838
1788839;13724
1788847;14297
1788855;13818
1788863;11122
1788871;7087
1788882;6885
1788890;14651
1788899;16270
1788907;15616
1788915;14886
1788924;14638
1788932;14424
1788940;14184
1788948;14054
1788956;13944
1788965;13843
1788973;13728
1788981;13640
1788989;13567
1788997;13556
1789006;13497
1789014;13405
1789022;13292
1789030;13251
1789038;13047
1789047;12947
1789055;12736
1789063;12538
1789071;12215
1789079;12016
1789087;11734
1789096;11658
1789104;11537
1789112;11654
1789120;11713
1789128;12046
1789137;12374
1789145;12948
1789153;13337
1789164;13988
1789172;14332
1789181;14486
1789189;14586
1789197;14656
1789205;14658
1789214;14662
1789223;14609
1789231;14552
1789239;14507
1789247;14491
1789255;14420
1789264;14439
1789272;14364
1789280;14343
1789288;14258
1789296;14293
1789305;14196
1789313;14222
1789321;14087
1789329;14107
1789337;14049
1789346;14099
1789354;13959
1789362;14032
1789370;13970
1789378;13999
1789386;13861
1789395;13836
1789403;13644
1789411;13679
1789419;13579
1789427;13654
1789436;13587
1789447;13802
1789455;13898
1789463;13945
1789471;13897
1789480;13894
1789488;13791
1789496;13822
1789504;13730
1789512;13724
1789522;13634
1789530;13645
1789538;13502
1789546;14184
1789554;13156
1789563;9898
1789571;6478
1789579;6487
1789587;13876
1789595;16070
1789604;15290
1789612;14621
1789620;14157
1789628;14138
1789636;13781
1789645;13719
1789653;13524
1789661;13533
1789669;13372
1789677;13372
1789686;13201
1789694;13207
1789702;13055
1789710;13101
1789718;12932
1789726;12916
1789738;12728
1789746;12643
1789754;12364
1789762;12144
1789770;11812
1789779;11657
1789787;11415
1789795;11410
1789803;11397
1789811;11582
1789820;11687
1789828;12100
1789836;12489
1789845;13086
1789853;13453
1789862;13907
1789870;14067
1789878;14321
1789886;14305
1789894;14415
1789903;14328
1789911;14398
1789919;14271
1789927;14281
1789935;14112
1789944;14173
1789952;14026
1789960;14092
1789968;13963
1789976;14049
1789985;13907
1789993;14015
1790001;13883
1790009;14008
1790020;13993
1790029;14116
1790037;13983
1790045;14027
1790053;13910
1790061;13991
1790070;13916
1790078;14004
1790086;13844
1790094;13877
1790102;13643
1790110;13636
1790119;13443
1790127;13527
1790135;13431
1790143;13589
1790151;13600
1790160;13813
1790169;13752
1790177;13862
1790185;13766
1790193;13861
1790202;13778
1790210;13896
1790218;13779
1790226;13824
1790234;13639
1790243;13892
1790251;14071
1790259;12292
1790267;8218
1790275;5501
1790284;8458
1790292;15499
1790303;15583
1790311;14986
1790319;14419
1790328;14351
1790336;13984
1790344;13916
1790352;13741
1790360;13802
1790369;13613
1790377;13671
1790385;13500
1790393;13551
1790401;13378
1790409;13362
1790418;13136
1790426;13159
1790434;12902
1790442;12852
1790450;12555
1790459;12437
1790467;12075
1790475;11917
1790483;11599
1790491;11582
1790501;11459
1790509;11638
1790517;11635
1790525;11946
1790533;12228
1790542;12798
1790550;13185
1790558;13691
1790566;13951
1790574;14238
1790586;14354
1790594;14580
1790602;14470
1790610;14524
1790618;14368
1790627;14389
1790635;14192
1790643;14250
1790651;14091
1790659;14124
1790668;13983
1790676;14059
1790684;13914
1790692;14000
1790700;13905
1790708;13985
1790717;13836
1790725;13939
1790733;13850
1790741;13930
1790749;13803
1790758;13850
1790766;13776
1790774;13872
1790782;13836
1790790;13957
1790799;13887
1790807;13858
1790815;13648
1790823;13594
1790832;13501
1790841;13498
1790849;13468
1790857;13548
1790867;13647
1790875;13881
1790885;13809
1790893;13895
1790901;13743
1790909;13835
1790917;13701
1790926;13805
1790934;13711
1790942;13805
1790950;13685
1790958;14449
1790967;13110
1790975;9443
1790983;5490
1790991;6194
1790999;13942
1791007;15849
1791016;15185
1791024;14622
1791032;14365
1791040;14229
1791048;13911
1791057;13825
1791065;13657
1791073;13631
1791081;13515
1791089;13529
1791098;13394
1791106;13319
1791114;13226
1791122;13182
1791130;13051
1791139;12968
1791147;12819
1791158;12769
1791166;12542
1791174;12422
1791183;12071
1791191;11895
1791199;11639
1791208;11675
1791216;11618
1791225;11785
1791233;11882
1791241;12284
1791249;12668
1791257;13216
1791266;13615
1791274;14027
1791282;14222
1791290;14422
1791298;14451
1791306;14526
1791315;14476
1791323;14526
1791331;14465
1791339;14401
1791347;14323
1791356;14279
1791364;14255
1791372;14234
1791380;14233
1791388;14217
1791397;14191
1791405;14140
1791413;14137
1791421;14079
1791429;14099
1791441;14160
1791449;14133
1791457;14197
1791465;14059
1791473;14052
1791482;13926
1791490;13849
1791498;13619
1791506;13571
1791514;13535
1791524;13583
1791532;13597
1791540;13713
1791548;13751
1791556;13855
1791565;13823
1791573;13831
1791581;13819
1791589;13804
1791597;13773
1791606;13741
1791614;13728
1791622;13655
1791630;13602
1791638;14082
1791646;13816
1791655;10997
1791663;6683
1791671;4621
1791679;10757
1791687;15740
1791696;15527
1791704;14780
1791712;14544
1791723;14355
1791731;14135
1791740;14041
1791748;13887
1791756;13854
1791764;13759
1791772;13703
1791781;13590
1791789;13546
1791797;13490
1791805;13416
1791813;13334
1791822;13195
1791830;13064
1791838;12914
1791847;12803
1791855;12561
1791864;12360
1791872;12112
1791880;11981
1791888;11864
1791896;11916
1791905;11952
1791913;12150
1791921;12411
1791929;12907
1791937;13302
1791945;13795
1791954;14109
1791962;14432
1791970;14470
1791978;14610
1791986;14575
1791995;14645
1792006;14627
1792014;14653
1792022;14627
1792030;14512
1792039;14422
1792047;14374
1792055;14307
1792063;14260
1792071;14204
1792080;14194
1792088;14109
1792096;14094
1792104;14038
1792112;14038
1792121;13997
1792129;14046
1792137;13994
1792145;14061
1792153;13939
1792162;13966
1792170;13952
1792179;14033
1792187;13951
1792195;13974
1792204;13813
1792212;13717
1792220;13583
1792228;13677
1792236;13634
1792244;13735
1792253;13690
1792261;13861
1792269;13843
1792277;14003
1792317;15840
1792325;15590
1792334;15028
1792342;14762
1792350;14986
1792358;14446
1792366;11340
1792375;7434
1792383;5854
1792391;12357
1792399;16042
1792407;15538
1792415;14639
1792424;14242
1792432;14008
1792441;13798
1792449;13478
1792457;13375
1792466;13183
1792474;13176
1792482;13031
1792490;13019
1792498;12867
1792507;12842
1792515;12718
1792523;12637
1792531;12488
1792539;12444
1792548;12267
1792556;12119
1792564;11882
1792572;11688
1792580;11462
1792589;11303
1792597;11245
1792608;11396
1792616;11432
1792624;11689
1792633;11919
1792641;12461
1792649;12849
1792657;13384
1792665;13634
1792674;14007
1792682;14113
1792690;14301
1792698;14321
1792706;14422
1792714;14336
1792723;14334
1792731;14216
1792739;14213
1792747;14129
1792755;14120
1792764;14019
1792773;14017
1792781;13958
1792789;13918
1792797;13871
1792806;13847
1792814;13844
1792822;13827
1792830;13806
1792838;13814
1792847;13804
1792855;13793
1792863;13800
1792871;13794
1792879;13811
1792891;13875
1792899;13754
1792907;13652
1792915;13458
1792923;13509
1792932;13428
1792940;13531
1792948;13596
1792956;13710
1792964;13786
1792973;13921
1792981;13899
1792989;13922
1792997;13884
1793005;13901
1793014;13859
1793022;13874
1793030;13839
1793038;13808
1793046;13791
1793054;14386
1793063;13101
1793071;9406
1793079;6139
1793087;6862
1793095;14593
1793104;16078
1793113;15416
1793121;14675
1793129;14417
1793137;14174
1793146;13957
1793154;13757
1793162;13741
1793173;13712
1793181;13653
1793190;13584
1793198;13457
1793206;13394
1793214;13282
1793222;13194
1793231;13064
1793239;12962
1793247;12789
1793255;12639
1793263;12481
1793272;12229
1793280;12020
1793288;11794
1793296;11630
1793304;11544
1793313;11617
1793321;11658
1793329;11873
1793337;12191
1793345;12735
1793353;13202
1793362;13686
1793370;13941
1793378;14214
1793386;14273
1793394;14391
1793403;14365
1793411;14447
1793419;14375
1793428;14432
1793436;14291
1793445;14295
1793455;14258
1793463;14214
1793471;14110
1793480;14023
1793489;13954
1793497;13925
1793505;13876
1793513;13857
1793521;13798
1793530;13799
1793538;13763
1793546;13787
1793554;13751
1793562;13762
1793571;13659
1793579;13705
1793587;13654
1793595;13715
1793603;13600
1793612;13626
1793620;13547
1793628;13618
1793636;13545
1793644;13661
1793652;13624
1793661;13666
1793669;13471
1793677;13467
1793685;13360
1793693;13433
1793702;13345
1793710;13425
1793718;13354
1793726;13512
1793737;13603
1793746;13734
1793754;13680
1793762;13691
1793770;13651
1793778;13656
1793787;13581
1793796;13590
1793804;13474
1793812;13624
1793820;13954
1793829;12348
1793837;8320
1793845;5191
1793853;7382
1793861;14708
1793870;15477
1793878;14914
1793886;14338
1793894;14338
1793902;14026
1793911;13954
1793919;13766
1793927;13785
1793935;13622
1793943;13665
1793951;13531
1793960;13555
1793968;13397
1793976;13435
1793984;13221
1793992;13273
1794001;13044
1794009;13032
1794017;12793
1794028;12748
1794036;12533
1794045;12329
1794053;12038
1794061;11947
1794069;11808
1794077;11889
1794086;11913
1794094;12187
1794102;12455
1794110;12985
1794118;13409
1794128;13901
1794136;14139
1794144;14481
1794152;14548
1794160;14736
1794169;14665
1794177;14745
1794185;14572
1794193;14648
1794201;14494
1794210;14556
1794218;14432
1794226;14482
1794234;14276
1794242;14293
1794250;14139
1794259;14184
1794267;14068
1794275;14165
1794283;14044
1794291;14109
1794300;13958
1794311;14051
1794319;13989
1794327;14047
1794335;13915
1794344;13949
1794352;13813
1794360;13846
1794368;13685
1794376;13745
1794385;13627
1794393;13723
1794401;13572
1794409;13671
1794417;13573
1794426;13666
1794434;13555
1794442;13679
1794451;13466
1794459;13424
1794468;13249
1794476;13368
1794484;13303
1794492;13433
1794500;13295
1794509;13471
1794517;13449
1794525;13638
1794533;13580
1794541;13709
1794550;13588
1794558;13668
1794566;13573
1794574;13638
1794582;13498
1794594;13522
1794602;13828
1794610;13862
1794618;11495
1794626;7444
1794634;4956
1794643;9360
1794651;15146
1794659;15386
1794667;14639
1794675;14398
1794684;14194
1794692;14030
1794700;13792
1794708;13843
1794716;13676
1794725;13719
1794733;13572
1794741;13605
1794749;13422
1794757;13457
1794766;13318
1794774;13389
1794782;13200
1794791;13187
1794799;12923
1794808;12890
1794816;12619
1794824;12427
1794832;12069
1794840;11910
1794849;11648
1794857;11673
1794865;11628
1794876;11890
1794884;12074
1794893;12564
1794901;12933
1794909;13505
1794917;13796
1794925;14212
1794934;14286
1794942;14514
1794950;14460
1794958;14571
1794966;14447
1794974;14547
1794983;14430
1794991;14460
1794999;14288
1795007;14365
1795015;14209
1795024;14217
1795032;14085
1795040;14156
1795048;14023
1795056;14045
1795065;13950
1795073;13998
1795081;13975
1795089;14046
1795097;13987
1795106;14013
1795115;13930
1795123;13919
1795131;13829
1795139;13835
1795148;13777
1795158;13889
1795166;13819
1795175;13910
1795183;13770
1795192;13859
1795200;13658
1795208;13597
1795216;13415
1795224;13501
1795233;13441
1795241;13568
1795249;13513
1795257;13663
1795265;13639
1795273;13793
1795282;13762
1795290;13856
1795298;13758
1795306;13803
1795314;13725
1795323;13759
1795331;13683
1795339;13688
1795347;13600
1795355;14232
1795364;12990
1795372;9396
1795380;5779
1795388;6663
1795396;14262
1795405;15861
1795413;15244
1795421;14610
1795429;14431
1795437;14244
1795449;13983
1795457;14011
1795465;13796
1795473;13772
1795481;13609
1795490;13611
1795499;13441
1795507;13394
1795515;13259
1795523;13206
1795532;13058
1795540;13005
1795548;12791
1795556;12673
1795564;12397
1795572;12217
1795581;11943
1795589;11743
1795597;11557
1795605;11539
1795613;11535
1795622;11638
1795630;11806
1795638;12168
1795646;12653
1795654;13138
1795663;13540
1795671;13883
1795679;14165
1795687;14308
1795695;14438
1795704;14460
1795712;14531
1795720;14521
1795739;14965
1795748;14913
1795756;14855
1795764;14695
1795772;14661
1795780;14483
1795789;14430
1795797;14310
1795806;14286
1795814;14219
1795822;14204
1795831;14146
1795839;14141
1795847;14087
1795855;14044
1795863;13987
1795871;13998
1795880;13991
1795888;14013
1795896;14018
1795904;13962
1795912;13935
1795921;13873
1795929;13819
1795937;13752
1795945;13790
1795953;13674
1795962;13615
1795970;13431
1795978;13426
1795986;13367
1795994;13480
1796003;13396
1796011;13506
1796022;13660
1796030;13755
1796038;13806
1796047;13776
1796055;13773
1796063;13720
1796071;13750
1796079;13731
1796088;13704
1796096;13654
1796104;13717
1796113;14066
1796121;12431
1796130;8848
1796138;6377
1796146;8789
1796154;15569
1796162;15946
1796170;15114
1796179;14444
1796187;14172
1796195;14061
1796203;13834
1796211;13788
1796220;13642
1796228;13626
1796236;13486
1796244;13505
1796252;13406
1796261;13433
1796269;13293
1796277;13275
1796285;13109
1796293;13076
1796305;12902
1796313;12784
1796321;12572
1796329;12306
1796337;12041
1796346;11852
1796354;11720
1796362;11701
1796370;11737
1796378;11846
1796387;11997
1796395;12345
1796403;12719
1796411;13193
1796419;13546
1796428;13916
1796436;14111
1796444;14319
1796453;14302
1796461;14422
1796470;14341
1796478;14408
1796486;14317
1796494;14364
1796502;14236
1796510;14276
1796519;14125
1796527;14147
1796535;14000
1796543;14038
1796551;13891
1796560;13945
1796568;13815
1796576;13957
1796587;13979
1796595;14029
1796604;13967
1796612;13968
1796620;13879
1796628;13898
1796636;13804
1796645;13826
1796653;13740
1796661;13760
1796669;13658
1796677;13711
1796686;13618
1796694;13688
1796702;13554
1796710;13518
1796718;13283
1796727;13342
1796735;13266
1796743;13394
1796751;13259
1796759;13375
1796767;13311
1796777;13498
1796785;13491
1796793;13613
1796801;13493
1796809;13570
1796818;13482
1796826;13586
1796834;13455
1796842;13505
1796850;13325
1796859;13969
1796867;13310
1796878;9237
1796886;5897
1796894;6850
1796903;14237
1796911;15750
1796919;15061
1796927;14462
1796935;14179
1796944;14034
1796952;13736
1796960;13723
1796968;13578
1796976;13607
1796985;13509
1796993;13605
1797001;13518
1797009;13604
1797017;13467
1797026;13530
1797034;13379
1797042;13406
1797050;13200
1797058;13212
1797066;12942
1797075;12825
1797083;12478
1797091;12349
1797099;12028
1797108;12047
1797117;11921
1797125;12075
1797133;12095
1797141;12426
1797149;12688
1797160;13486
1797169;13828
1797177;14216
1797185;14348
1797193;14545
1797202;14523
1797210;14641
1797218;14520
1797226;14577
1797234;14436
1797243;14473
1797251;14281
1797259;14324
1797267;14153
1797275;14194
1797284;14014
1797292;14015
1797300;13840
1797308;13880
1797316;13726
1797325;13819
1797333;13703
1797341;13806
1797349;13694
1797357;13790
1797366;13704
1797374;13822
1797382;13714
1797390;13806
1797398;13710
1797406;13812
1797415;13753
1797423;13834
1797432;13704
1797442;13787
1797450;13731
1797459;13813
1797467;13676
1797475;13766
1797483;13600
1797492;13577
1797501;13360
1797509;13435
1797517;13331
1797525;13449
1797533;13332
1797542;13479
1797550;13439
1797558;13621
1797566;13629
1797574;13816
1797583;13771
1797591;13895
1797599;13847
1797607;13917
1797615;13793
1797624;13869
1797632;13712
1797640;14382
1797648;13242
1797656;9941
1797665;6298
1797673;6604
1797681;13837
1797689;15826
1797697;15155
1797705;14541
1797714;14275
1797725;14147
1797733;13911
1797741;13915
1797750;13726
1797758;13786
1797766;13570
1797774;13555
1797782;13363
1797790;13348
1797799;13133
1797807;13094
1797816;12851
1797824;12868
1797832;12643
1797841;12614
1797849;12352
1797857;12217
1797865;11877
1797873;11769
1797882;11568
1797890;11604
1797898;11532
1797906;11677
1797914;11746
1797923;12045
1797931;12382
1797939;12901
1797947;13259
1797955;13671
1797964;13852
1797972;14072
1797980;14124
1797988;14207
1797996;14183
1798004;14201
1798016;14207
1798024;14360
1798032;14248
1798040;14322
1798049;14198
1798057;14281
1798065;14123
1798073;14167
1798081;14018
1798089;14072
1798098;13935
1798106;14017
1798114;13882
1798122;13945
1798131;13833
1798140;13909
1798148;13802
1798156;13842
1798164;13751
1798172;13793
1798181;13746
1798189;13793
1798197;13746
1798205;13789
1798213;13728
1798222;13703
1798230;13511
1798238;13413
1798246;13378
1798254;13457
1798263;13461
1798271;13502
1798279;13566
1798287;13637
1798298;13719
1798307;13862
1798315;13730
1798323;13799
1798331;13720
1798339;13783
1798348;13641
1798356;13671
1798364;13573
1798372;14291
1798380;13167
1798388;9757
1798397;5840
1798405;6134
1798413;13828
1798421;15851
1798429;15206
1798438;14564
1798446;14307
1798454;14146
1798462;13881
1798471;13744
1798480;13645
1798488;13562
1798496;13492
1798504;13455
1798512;13461
1798521;13420
1798529;13362
1798537;13270
1798545;13188
1798553;13063
1798562;12937
1798570;12729
1798581;12510
1798589;12420
1798597;12080
1798606;11881
1798614;11621
1798622;11602
1798630;11555
1798638;11701
1798647;11818
1798655;12188
1798663;12625
1798671;13183
1798679;13603
1798687;13964
1798696;14219
1798704;14377
1798712;14453
1798720;14500
1798728;14512
1798737;14503
1798745;14478
1798753;14449
1798761;14450
1798769;14375
1798778;14383
1798786;14287
1798795;14273
1798803;14191
1798811;14170
1798820;14082
1798828;14180
1798836;14137
1798844;14174
1798852;14122
1798864;14229
1798872;14333
1798880;14227
1798888;14208
1798896;14071
1798905;13899
1798913;13707
1798921;13720
1798929;13675
1798937;13721
1798946;13813
1798954;13874
1798962;13988
1798970;14042
1798978;14082
1798986;14027
1798995;13981
1799003;13929
1799011;13982
1799019;13922
1799027;13897
1799036;13762
1799044;14126
1799052;14090
1799060;11848
1799068;7778
1799077;5497
1799085;10667
1799093;16207
1799101;15826
1799109;15167
1799118;14586
1799127;14489
1799135;14135
1799145;14044
1799153;14052
1799162;13932
1799170;13805
1799178;13723
1799187;13612
1799195;13544
1799204;13430
1799212;13361
1799220;13221
1799228;13157
1799236;13002
1799245;12886
1799253;12670
1799261;12506
1799269;12204
1799277;12056
1799286;11820
1799294;11824
1799302;11761
1799310;11910
1799318;11955
1799326;12266
1799335;12569
1799343;13141
1799351;13491
1799359;13959
1799367;14146
1799376;14412
1799384;14455
1799392;14612
1799400;14527
1799408;14650
1799417;14531
1799425;14643
1799436;14571
1799444;14559
1799452;14402
1799461;14306
1799469;14197
1799477;14221
1799485;14106
1799493;14110
1799502;14054
1799511;14116
1799519;14053
1799527;14093
1799535;13981
1799544;14010
1799552;13741
1799560;13699
1799568;13528
1799576;13616
1799585;13537
1799593;13710
1799601;13705
1799609;13883
1799617;13886
1799625;13991
1799634;13863
1799642;13966
1799650;13836
1799658;13890
1799666;13787
1799675;13853
1799683;13694
1799691;13766
1799699;14005
1799707;13881
1799719;10040
1799727;6812
1799735;6685
1799743;14287
1799751;16187
1799760;15517
1799768;14663
1799776;14329
1799784;14126
1799792;13977
1799801;13768
1799809;13789
1799817;13607
1799826;13627
1799834;13456
1799843;13451
1799851;13286
1799859;13311
1799867;13130
1799875;13149
1799884;12976
1799892;12971
1799900;12738
1799908;12655
1799916;12343
1799924;12214
1799933;11894
1799941;11869
1799949;11721
1799957;11843
1799965;11807
1799974;12052
1799982;12221
1799990;12764
1800001;13397
1800009;13954
1800018;14153
1800026;14437
1800034;14444
1800042;14611
1800050;14524
1800059;14597
1800067;14452
1800075;14467
1800083;14321
1800091;14360
1800100;14181
1800108;14206
1800116;14011
1800124;14061
1800132;13888
1800141;13958
1800149;13836
1800158;13914
1800166;13792
1800174;13895
1800183;13836
1800191;13934
1800199;13806
1800207;13831
1800215;13583
1800223;13567
1800232;13469
1800240;13554
1800248;13448
1800256;13595
1800264;13580
1800273;13789
1800284;13833
1800292;13978
1800300;13843
1800308;13908
1800317;13761
1800325;13823
1800333;13700
1800341;13753
1800349;13532
1800358;13911
1800366;13964
1800374;11937
1800382;7705
1800390;4922
1800399;8945
1800407;15530
1800415;15488
1800423;14910
1800431;14322
1800440;14285
1800448;13931
1800456;13840
1800464;13670
1800472;13686
1800481;13540
1800490;13580
1800498;13435
1800506;13443
1800514;13299
1800522;13287
1800531;13120
1800539;13081
1800547;12893
1800555;12791
1800567;12488
1800575;12424
1800583;12070
1800591;11917
1800599;11645
1800607;11693
1800616;11584
1800624;11797
1800632;11830
1800640;12179
1800648;12512
1800657;13073
1800665;13435
1800673;13915
1800681;14090
1800689;14367
1800698;14340
1800706;14452
1800714;14382
1800722;14459
1800730;14341
1800739;14382
1800747;14259
1800755;14318
1800763;14209
1800771;14250
1800780;14139
1800788;14184
1800796;14138
1800805;14185
1800813;14064
1800822;14113
1800830;14008
1800838;14032
1800846;13969
1800856;14109
1800866;14048
1800874;14104
1800882;13934
1800890;13987
1800898;13808
1800906;13761
1800915;13490
1800923;13568
1800931;13463
1800939;13573
1800947;13475
1800956;13624
1800964;13634
1800972;13824
1800980;13796
1800988;13846
1800997;13722
