Tempo (ms);Valor
180103;14338
180111;14276
180119;14151
180127;14014
180136;13938
180144;13929
180152;13945
180160;13940
180168;13922
180177;13879
180185;13853
180193;13870
180201;13846
180209;13810
180218;13703
180226;13767
180234;14080
180243;12341
180251;8203
180260;5285
180268;7795
180276;14899
180284;15779
180292;15194
180301;14628
180309;14488
180317;14240
180325;14046
180333;13877
180342;13824
180350;13709
180358;13678
180366;13573
180374;13520
180382;13411
180391;13363
180402;13298
180410;13235
180418;13057
180426;12860
180435;12620
180443;12377
180451;12101
180459;11928
180467;11820
180476;11845
180484;11919
180492;12136
180500;12323
180508;12629
180517;13018
180525;13424
180533;13748
180541;14019
180549;14169
180558;14285
180566;14333
180574;14365
180582;14341
180590;14365
180599;14363
180607;14425
180615;14448
180623;14518
180631;14554
180639;14563
180648;14499
180656;14485
180664;14427
180672;14426
180680;14379
180689;14342
180697;14319
180708;14382
180716;14385
180724;14387
180733;14369
180741;14409
180749;14340
180757;14347
180765;14304
180774;14307
180782;14265
180790;14274
180798;14223
180806;14259
180815;14150
180823;14029
180831;13865
180839;13864
180847;13807
180856;13789
180864;13682
180872;13705
180880;13753
180888;13840
180897;13854
180905;13863
180913;13816
180921;13815
180929;13774
180937;13765
180946;13671
180954;13586
180962;13984
180970;13773
180978;11230
180987;7128
180995;5369
181006;13607
181014;16041
181022;15535
181031;14733
181039;14435
181047;14156
181055;13901
181063;13761
181072;13696
181080;13573
181088;13511
181096;13447
181104;13434
181113;13381
181121;13264
181129;13081
181137;12997
181145;12878
181154;12819
181162;12662
181170;12469
181178;12181
181186;11936
181194;11802
181203;11759
181211;11785
181219;11912
181227;12099
181235;12330
181244;12680
181252;13073
181260;13463
181268;13759
181276;14016
181285;14184
181293;14309
181301;14425
181312;14563
181320;14625
181329;14591
181337;14587
181345;14520
181353;14526
181361;14442
181370;14349
181378;14281
181386;14187
181394;14179
181402;14193
181411;14145
181419;14063
181427;14009
181435;13945
181443;13944
181452;13968
181460;13956
181468;13929
181476;14002
181484;14039
181492;14061
181501;13985
181509;13919
181517;13733
181525;13578
181533;13481
181542;13484
181550;13470
181558;13574
181566;13630
181574;13735
181583;13817
181591;13894
181599;13837
181610;13901
181618;13939
181627;13939
181635;13924
181643;13940
181651;13825
181659;14263
181668;14088
181676;11433
181684;7192
181692;5305
181700;10957
181709;16152
181717;15863
181725;15055
181733;14474
181741;14264
181750;13882
181758;13724
181766;13646
181774;13549
181782;13417
181790;13389
181799;13300
181807;13246
181815;13127
181823;13083
181831;12997
181840;12883
181848;12733
181856;12604
181864;12357
181872;12116
181881;11819
181889;11643
181897;11570
181905;11638
181916;11862
181925;12134
181933;12320
181941;12663
181949;13018
181957;13494
181966;13854
181974;14175
181982;14387
181990;14548
181998;14616
182007;14675
182015;14648
182023;14693
182031;14634
182039;14651
182047;14549
182056;14527
182064;14494
182072;14496
182080;14455
182088;14465
182097;14469
182105;14461
182113;14490
182121;14571
182129;14584
182138;14647
182146;14714
182154;14760
182162;14730
182170;14752
182179;14604
182187;14490
182195;14396
182203;14402
182211;14368
182223;14508
182231;14592
182239;14688
182247;14724
182255;14777
182264;14746
182272;14777
182280;14756
182288;14740
182296;14665
182305;14572
182313;14494
182321;14517
182329;14827
182337;12859
182345;8840
182354;7285
182362;9920
182370;16722
182378;16968
182386;16213
182395;15475
182403;14898
182411;14636
182419;14346
182427;14126
182436;14007
182444;13871
182452;13782
182460;13689
182468;13575
182477;13497
182485;13426
182493;13294
182501;13133
182509;13028
182518;12855
182529;12572
182537;12388
182545;12097
182553;11886
182562;11759
182570;11819
182578;11926
182586;12085
182594;12294
182602;12675
182611;13134
182619;13598
182627;13971
182635;14273
182643;14467
182652;14573
182660;14659
182668;14700
182676;14719
182684;14692
182693;14634
182701;14544
182710;14462
182718;14399
182726;14361
182735;14277
182743;14233
182751;14173
182759;14142
182767;14087
182776;14059
182784;13974
182792;13927
182800;13908
182808;13954
182817;13943
182827;14000
182835;14030
182843;13836
182852;13702
182861;13621
182869;13549
182877;13544
182885;13562
182893;13637
182902;13688
182910;13835
182918;13850
182926;13844
182934;13799
182942;13775
182951;13733
182959;13733
182967;13676
182975;13613
182983;13872
182992;14050
183000;11861
183008;7473
183016;4804
183024;8835
183033;15297
183041;15743
183049;15120
183057;14647
183065;14446
183074;14169
183082;13927
183090;13879
183098;13753
183106;13677
183114;13538
183123;13517
183134;13477
183142;13503
183150;13362
183159;13259
183167;13123
183175;13023
183183;12821
183191;12607
183199;12308
183208;12091
183216;11896
183224;11828
183232;11832
183240;11954
183249;12074
183257;12360
183265;12655
183273;13063
183281;13403
183290;13770
183298;14023
183306;14233
183314;14364
183322;14525
183331;14521
183339;14563
183347;14535
183355;14516
183363;14431
183372;14393
183380;14293
183388;14252
183396;14188
183404;14113
183412;14076
183421;14076
183432;14025
183440;14127
183448;14090
183457;14143
183465;14128
183473;14155
183481;14043
183489;13993
183497;13813
183506;13717
183514;13652
183522;13676
183530;13675
183538;13774
183547;13792
183555;13908
183563;14004
183571;14068
183579;14041
183588;14057
183596;14001
183604;13957
183612;13913
183620;13863
183629;13800
183637;14039
183645;14450
183653;12495
183661;8123
183670;4801
183678;7768
183686;15093
183694;15864
183702;15353
183710;14873
183719;14676
183727;14384
183738;14250
183746;14184
183754;14155
183763;13986
183771;13920
183779;13805
183787;13714
183795;13561
183804;13380
183812;13160
183820;12962
183828;12728
183836;12496
183845;12260
183853;12011
183861;11701
183869;11548
183877;11484
183886;11575
183894;11741
183902;11868
183910;12068
183918;12329
183927;12711
183935;13083
183943;13421
183951;13589
183959;13726
183967;13722
183976;13747
183984;13639
183992;13593
184000;13498
184008;13448
184017;13299
184025;13249
184033;13215
184044;13274
184052;13284
184061;13218
184069;13143
184077;13162
184085;13274
184093;13373
184102;13311
184110;13340
184118;13403
184126;13489
184134;13587
184143;13661
184151;13581
184159;13497
184167;13368
184175;13272
184184;13302
184192;13310
184200;13304
184208;13531
184216;13786
184225;14084
184233;14238
184241;14452
184249;14521
184257;14663
184265;14661
184274;14712
184282;14690
184290;14714
184298;14651
184306;15412
184315;14318
184323;10666
184331;6689
184342;9024
184350;16234
184359;16613
184367;15844
184375;15253
184383;14995
184391;14708
184400;14379
184408;14177
184416;14023
184424;13915
184432;13764
184441;13636
184449;13478
184457;13390
184465;13195
184473;13115
184482;12921
184490;12754
184498;12460
184506;12243
184514;11909
184522;11740
184531;11540
184539;11528
184547;11477
184555;11613
184563;11693
184572;11796
184580;11895
184588;12423
184596;12701
184604;12992
184613;13242
184621;13440
184629;13564
184637;13814
184648;13876
184657;14089
184665;14040
184673;14045
184681;14278
184689;14295
184698;14182
184706;14253
184714;14242
184722;14292
184730;14302
184739;14317
184747;14312
184755;14356
184763;14339
184771;14377
184780;14363
184789;14384
184797;14386
184805;14283
184813;14123
184822;14035
184830;13966
184838;13907
184846;13934
184854;13944
184862;13967
184871;14133
184879;14158
184887;14193
184895;14110
184903;14137
184912;14058
184920;14092
184928;14158
184936;14120
184944;13985
184956;14797
184964;13239
184972;9129
184980;5818
184988;7999
184997;15711
185005;16413
185013;15664
185021;15135
185029;14956
185038;14728
185046;14452
185054;14298
185062;14183
185070;14128
185079;14047
185087;14022
185095;13975
185103;13846
185111;13735
185119;13579
185128;13406
185136;13207
185144;13033
185152;12790
185160;12537
185169;12330
185177;12181
185185;12135
185193;12201
185201;12310
185210;12511
185218;12677
185226;12985
185234;13358
185242;13744
185254;14244
185262;14565
185270;14725
185278;14824
185286;14881
185295;14913
185303;14956
185311;14931
185319;14916
185327;14887
185336;14857
185344;14862
185352;14854
185360;14848
185368;14824
185377;14840
185385;14830
185393;14805
185401;14792
185409;14809
185417;14840
185426;14834
185434;14728
185442;14560
185450;14392
185458;14317
185467;14271
185475;14214
185483;14208
185491;14303
185499;14380
185508;14578
185516;14550
185524;14573
185532;14581
185540;14647
185549;14675
185560;14765
185568;14800
185576;14722
185584;14616
185593;15279
185601;14107
185609;10276
185617;6673
185625;7086
185634;14894
185642;16873
185650;16152
185658;15468
185666;15122
185674;14995
185683;14810
185691;14663
185699;14576
185707;14528
185715;14469
185724;14441
185732;14345
185740;14360
185748;14349
185756;14291
185765;14158
185773;13998
185781;13735
185789;13452
185797;13113
185806;12916
185814;12711
185822;12577
185830;12490
185838;12475
185847;12432
185855;12507
185866;12865
185874;13302
185882;13562
185891;13833
185899;13953
185907;14078
185915;14106
185923;14148
185932;14109
185940;14085
185948;13963
185956;13831
185964;13722
185972;13672
185981;13569
185989;13537
185997;13559
186005;13622
186013;13679
186022;13714
186030;13660
186038;13731
186046;13602
186054;13573
186063;13566
186071;13597
186079;13608
186087;13699
186095;13785
186104;13905
186112;13970
186120;14019
186128;14038
186136;14084
186145;14111
186153;14095
186164;14049
186172;14049
186180;13932
186189;13862
186197;14318
186205;13639
186213;10511
186221;7021
186230;6187
186238;12984
186246;16689
186254;16209
186262;15522
186270;14912
186279;14671
186287;14403
186295;14173
186303;14040
186311;13928
186320;13800
186328;13703
186336;13635
186344;13556
186352;13411
186361;13216
186369;13111
186377;12971
186385;12750
186393;12527
186402;12235
186410;11981
186418;11771
186426;11631
186434;11565
186442;11621
186451;11769
186459;11963
186470;12454
186478;12906
186487;13313
186495;13640
186503;13975
186511;14176
186519;14291
186527;14349
186536;14403
186544;14470
186552;14488
186560;14489
186568;14485
186577;14438
186585;14373
186593;14332
186601;14297
186609;14331
186618;14368
186626;14343
186634;14299
186642;14248
186650;14069
186659;14011
186667;13984
186675;13974
186683;13931
186691;13982
186700;14051
186708;14154
186716;14221
186724;14277
186732;14239
186740;14197
186749;14128
186757;14123
186765;14045
186776;14024
186785;13953
186793;13940
186801;14351
186809;12922
186817;9174
186825;6040
186834;7077
186842;14930
186850;16289
186858;15738
186866;15055
186875;14703
186883;14475
186891;14171
186899;13917
186907;13834
186916;13708
186924;13631
186932;13590
186940;13582
186948;13484
186957;13366
186965;13225
186973;13115
186981;12982
186989;12833
186998;12643
187006;12412
187014;12133
187023;12000
187031;11926
187039;11989
187048;12061
187056;12269
187064;12498
187074;13051
187082;13539
187091;13933
187099;14152
187107;14387
187115;14473
187123;14558
187132;14554
187140;14579
187148;14538
187156;14490
187164;14431
187174;14399
187182;14327
187190;14321
187198;14266
187206;14263
187215;14246
187223;14273
187231;14220
187239;14215
187247;14079
187256;13936
187264;13817
187272;13811
187280;13789
187288;13807
187297;13853
187305;13928
187313;13966
187321;14060
187329;14088
187337;14176
187346;14169
187354;14206
187362;14191
187370;14242
187382;14281
187390;14317
187398;14213
187406;14839
187414;13660
187422;10038
187431;6455
187439;6313
187447;13971
187455;16431
187463;15982
187472;15376
187480;14969
187488;14772
187496;14463
187504;14285
187513;14159
187521;14086
187529;14004
187537;13947
187545;13840
187554;13723
187562;13606
187570;13520
187578;13368
187586;13145
187594;12920
187603;12669
187611;12407
187619;12117
187627;11862
187635;11749
187644;11839
187652;11906
187660;12022
187668;12229
187676;12523
187688;13186
187696;13635
187704;13959
187712;14196
187720;14387
187729;14463
187737;14469
187745;14504
187753;14556
187761;14589
187770;14579
187778;14501
187786;14445
187794;14394
187802;14317
187811;14259
187819;14224
187827;14218
187835;14193
187843;14230
187852;14194
187860;14225
187868;14068
187876;13945
187884;13844
187892;13806
187901;13703
187909;13718
187917;13762
187925;13830
187933;13872
187942;13937
187950;13918
187958;13909
187966;13908
187974;13964
187986;14014
187994;14044
188002;13952
188010;13833
188018;14197
188027;14150
188035;11674
188043;7487
188051;4975
188059;9386
188068;15718
188076;15994
188084;15377
188092;14871
188100;14630
188109;14384
188117;14151
188125;14037
188133;13903
188141;13845
188150;13752
188158;13735
188166;13667
188174;13670
188182;13577
188190;13465
188199;13338
188207;13207
188215;12982
188223;12722
188231;12398
188240;12188
188248;12085
188256;12099
188264;12088
188272;12216
188281;12334
188292;12817
188300;13234
188308;13693
188316;14030
188325;14324
188333;14493
188341;14665
188349;14731
188357;14776
188366;14731
188374;14677
188382;14606
188390;14570
188398;14481
188407;14409
188415;14303
188423;14279
188431;14211
188439;14221
188447;14167
188456;14186
188464;14108
188472;14029
188480;13921
188488;13932
188497;13884
188505;13863
188513;13831
188521;13872
188529;13865
188538;13787
188546;13637
188554;13508
188562;13438
188570;13456
188579;13467
188587;13516
188598;13621
188606;13792
188614;13902
188623;13948
188631;13921
188639;13892
188647;13877
188655;13922
188664;13874
188672;13849
188680;13766
188688;13892
188696;14212
188705;12490
188713;8343
188721;4934
188729;6671
188737;14278
188745;15899
188754;15493
188762;14998
188770;14816
188778;14499
188786;14309
188795;14200
188803;14117
188811;14063
188819;14042
188827;14033
188836;13976
188844;13922
188852;13840
188860;13783
188868;13666
188877;13524
188885;13322
188896;13127
188904;12955
188912;12644
188921;12442
188929;12339
188937;12386
188945;12420
188953;12516
188962;12742
188970;13095
188978;13486
188986;13887
188994;14219
189002;14485
189011;14610
189019;14683
189027;14720
189035;14718
189043;14664
189052;14594
189060;14526
189068;14486
189076;14462
189084;14401
189093;14342
189101;14261
189109;14253
189117;14162
189125;14179
189134;14177
189142;14148
189150;14099
189158;14095
189166;14074
189175;14068
189183;14021
189191;14032
189202;14064
189210;14081
189219;14004
189227;13969
189235;13927
189243;13879
189251;13718
189260;13567
189268;13531
189276;13572
189284;13561
189292;13582
189300;13602
189309;13655
189317;13725
189325;13796
189333;13742
189341;13747
189350;13695
189358;13666
189366;13642
189374;13633
189382;13505
189391;13355
189399;13735
189407;13461
189415;10886
189423;6580
189432;4676
189440;9345
189448;15072
189456;15531
189464;14900
189473;14574
189481;14382
189489;14165
189497;14018
189508;13963
189517;13946
189525;13818
189533;13709
189541;13668
189549;13568
189558;13478
189566;13343
189574;13254
189582;13128
189590;12934
189598;12714
189607;12502
189615;12188
189623;11965
189631;11784
189639;11788
189648;11798
189656;11883
189664;12020
189672;12329
189680;12688
189689;13156
189697;13566
189705;13896
189713;14136
189721;14344
189730;14404
189738;14460
189746;14458
189754;14489
189762;14452
189770;14450
189779;14367
189787;14340
189795;14300
189806;14382
189815;14431
189823;14459
189831;14409
189839;14376
189847;14369
189855;14352
189864;14275
189872;14253
189880;14170
189888;14140
189896;14101
189905;14133
189913;14126
189921;14128
189929;14059
189937;14029
189946;13962
189954;13930
189962;13884
189970;13948
189978;13961
189987;13967
189995;13945
190003;13861
190011;13698
190019;13525
190028;13499
190036;13552
190044;13589
190052;13564
190060;13568
190068;13642
190077;13706
190085;13807
190093;13837
190101;13838
190113;13933
190121;13998
190129;13952
190137;13920
190145;13855
190153;14013
190162;14242
190170;12494
190178;8493
190186;5570
190194;7767
190203;14827
190211;15835
190219;15272
190227;14755
190235;14569
190244;14275
190252;14043
190260;13939
190268;13857
190276;13763
190285;13742
190293;13708
190302;13613
190310;13506
190318;13444
190327;13359
190335;13230
190343;13128
190351;13003
190359;12827
190367;12523
190376;12340
190384;12107
190392;11966
190400;11929
190408;12031
190419;12244
190427;12507
190435;12879
190444;13267
190452;13626
190461;13993
190469;14298
190477;14481
190485;14600
190493;14649
190502;14672
190510;14716
190518;14692
190526;14657
190534;14631
190543;14594
190551;14508
190559;14467
190567;14412
190575;14392
190584;14364
190592;14346
190600;14336
190608;14310
190616;14216
190625;14250
190633;14203
190641;14179
190649;14142
190657;14142
190665;14099
190674;14034
190682;13964
190690;13926
190698;13870
190706;13899
190718;13918
190726;13956
190734;13926
190742;13886
190750;13864
190759;13875
190767;13857
190775;13899
190783;13785
190791;13679
190800;13567
190808;13542
190816;13507
190824;13541
190832;13452
190841;13447
190849;13489
190857;13560
190865;13638
190873;13706
190882;13717
190890;13749
190898;13698
190906;13711
190914;13634
190922;13557
190931;13772
190939;13871
190947;11852
190955;7864
190963;5412
190972;8833
190980;15161
190988;15621
190996;14946
191004;14458
191013;14269
191024;14015
191032;13912
191040;13830
191048;13695
191057;13665
191065;13599
191073;13561
191081;13461
191089;13414
191098;13337
191106;13286
191114;13172
191122;13054
191130;12890
191139;12695
191147;12374
191155;12164
191163;11889
191171;11794
191180;11798
191188;11872
191196;11976
191204;12203
191212;12518
191220;12945
191229;13386
191237;13773
191245;14018
191253;14195
191261;14292
191270;14391
191278;14464
191286;14458
191294;14444
191302;14437
191311;14423
191319;14403
191330;14452
191338;14488
191346;14388
191355;14359
191363;14353
191371;14352
191379;14342
191387;14362
191396;14314
191404;14329
191412;14342
191420;14356
191428;14340
191437;14321
191445;14350
191453;14378
191461;14360
191469;14338
191478;14285
191486;14257
191494;14202
191502;14123
191510;14108
191518;14136
191527;14167
191535;14134
191543;14059
191551;13937
191559;13803
191568;13750
191576;13742
191584;13759
191592;13760
191600;13744
191609;13794
191617;13851
191628;14016
191636;14072
191644;14012
191653;13970
191661;13967
191669;13932
191677;13874
191685;13748
191694;14188
191702;13777
191710;11210
191718;7270
191726;5703
191735;11223
191743;15845
191751;15663
191759;14991
191767;14608
191775;14462
191784;14213
191792;14092
191800;13992
191808;13956
191816;13924
191825;13860
191833;13778
191841;13735
191849;13674
191857;13546
191866;13418
191874;13321
191882;13163
191890;12980
191898;12743
191907;12524
191915;12250
191923;12059
191934;11927
191942;12046
191951;12108
191959;12280
191967;12503
191975;12855
191983;13241
191992;13672
192000;13951
192008;14242
192016;14385
192024;14526
192033;14544
192041;14526
192049;14475
192057;14430
192065;14325
192073;14269
192082;14165
192090;14075
192098;13980
192106;13907
192114;13810
192124;13754
192132;13705
192140;13741
192148;13733
192156;13796
192165;13807
192173;13811
192181;13768
192189;13793
192197;13831
192206;13883
192214;13873
192222;13916
192232;13967
192240;14040
192250;14005
192258;14035
192266;14023
192274;14057
192282;14094
192291;14096
192299;13990
192307;13886
192315;13772
192323;13726
192332;13722
192340;13719
192348;13620
192356;13598
192364;13619
192372;13741
192381;13845
192389;13874
192397;13835
192405;13845
192413;13815
192422;13818
192430;13725
192438;13656
192446;13986
192454;13842
192463;11474
192471;7673
192479;5836
192487;10675
192495;16019
192504;15821
192512;15106
192520;14582
192528;14405
192539;14162
192548;14013
192556;13893
192564;13826
192572;13762
192580;13657
192589;13597
192597;13478
192605;13424
192613;13301
192621;13214
192630;13052
192638;12920
192646;12719
192654;12474
192662;12147
192670;11869
192679;11660
192687;11538
192695;11534
192703;11632
192711;11827
192720;12090
192728;12432
192736;12834
192744;13232
192752;13581
192761;13870
192769;14010
192777;14135
192785;14164
192793;14158
192802;14167
192810;14145
192818;14090
192826;14057
192834;14022
192846;14006
192854;14021
192862;13913
192870;13840
192878;13809
192887;13840
192895;13839
192903;13848
192911;13871
192919;13865
192927;13823
192936;13831
192944;13840
192952;13816
192960;13789
192968;13802
192977;13830
192985;13805
192993;13818
193001;13819
193009;13925
193018;13946
193026;13949
193034;13797
193042;13667
193050;13517
193059;13424
193067;13354
193075;13318
193083;13285
193091;13364
193100;13441
193108;13504
193116;13525
193124;13504
193132;13421
193144;13458
193152;13418
193160;13343
193168;13233
193176;13617
193185;13427
193193;10832
193201;6802
193209;4911
193217;10154
193225;15507
193234;15231
193242;14509
193250;13967
193258;13844
193266;13580
193275;13437
193283;13365
193291;13329
193299;13267
193307;13240
193316;13122
193324;13084
193332;13003
193340;12891
193348;12797
193357;12730
193365;12603
193373;12455
193381;12269
193389;12058
193398;11839
193406;11685
193414;11562
193422;11610
193430;11699
193438;11885
193450;12341
193458;12820
193466;13245
193474;13695
193482;14029
193491;14367
193499;14566
193507;14750
193515;14795
193523;14845
193532;14842
193540;14825
193548;14748
193556;14761
193564;14670
193573;14613
193581;14519
193589;14490
193597;14427
193605;14405
193614;14315
193622;14257
193630;14202
193638;14192
193646;14155
193655;14207
193663;14211
193671;14230
193679;14189
193687;14242
193695;14256
193704;14239
193712;14180
193720;14129
193728;14019
193736;13884
193745;13806
193756;13882
193764;13929
193772;13968
193780;14027
193789;14101
193797;14098
193805;14113
193813;14043
193821;14053
193830;14016
193838;13985
193846;13949
193854;13918
193862;13826
193871;14473
193879;13473
193887;10078
193895;6664
193903;6693
193912;14182
193920;16521
193928;15894
193936;15231
193944;14902
193953;14810
193961;14574
193969;14411
193977;14342
193985;14301
193993;14244
194002;14208
194010;14194
194018;14181
194026;14102
194034;13998
194043;13946
194054;13803
194062;13656
194070;13402
194078;13066
194087;12801
194095;12521
194103;12384
194111;12347
194119;12344
194128;12447
194136;12613
194144;12870
194152;13227
194160;13635
194169;14058
194177;14388
194185;14619
194193;14822
194201;14929
194210;14998
194218;14948
194226;14904
194234;14813
194242;14781
194250;14711
194259;14682
194267;14583
194275;14519
194283;14448
194291;14431
194300;14370
194309;14337
194317;14316
194325;14324
194333;14284
194342;14280
194350;14292
194360;14349
194368;14336
194376;14213
194385;14025
194393;13900
194401;13803
194409;13782
194417;13771
194426;13864
194434;13922
194443;14041
194451;14143
194459;14221
194468;14217
194476;14219
194484;14174
194492;14187
194500;14119
194509;14063
194517;13978
194525;14307
194533;14232
194541;11755
194550;7903
194558;6245
194566;11124
194574;16678
194582;16315
194590;15576
194599;14877
194607;14641
194615;14420
194623;14211
194631;14060
194640;13993
194648;13897
194656;13816
194667;13798
194675;13783
194684;13674
194692;13586
194700;13436
194708;13302
194716;13104
194725;12921
194733;12630
194741;12337
194749;12067
194757;11943
194766;11877
194774;11926
194782;12028
194790;12203
194798;12492
194807;12913
194815;13301
194823;13692
194831;14049
194839;14291
194847;14375
194856;14434
194864;14379
194872;14355
194880;14308
194888;14258
194897;14134
194905;14028
194913;13926
194921;13811
194929;13705
194938;13651
194946;13573
194954;13522
194965;13484
194973;13534
194982;13450
194990;13422
194998;13373
195006;13362
195014;13374
195023;13420
195031;13452
195039;13445
195047;13346
195055;13205
195064;13041
195072;12910
195080;12863
195088;12837
195096;12839
195105;12929
195113;12977
195121;13092
195129;13163
195137;13182
195145;13180
195154;13208
195162;13183
195170;13148
195178;13140
195186;13142
195195;13132
195203;13765
195211;12473
195219;8717
195227;5054
195236;5877
195244;13671
195252;15549
195260;15062
195271;14428
195280;14372
195288;14143
195296;13977
195304;13895
195312;13807
195321;13671
195329;13566
195337;13510
195345;13438
195353;13383
195362;13249
195370;13176
195378;13056
195386;12927
195394;12785
195402;12578
195411;12353
195419;12156
195427;12025
195435;11909
195443;11961
195452;12097
195460;12268
195468;12491
195476;12840
195484;13190
195493;13556
195501;13892
195509;14184
195517;14399
195525;14528
195534;14548
195542;14555
195550;14517
195558;14505
195566;14430
195578;14488
195586;14508
195594;14441
195602;14373
195610;14329
195619;14287
195627;14283
195635;14264
195643;14258
195651;14219
195660;14229
195668;14217
195676;14234
195684;14239
195692;14242
195700;14178
195709;14139
195717;14027
195725;13854
195733;13693
195741;13676
195750;13608
195758;13653
195766;13673
195774;13767
195782;13853
195791;13921
195799;13910
195807;13939
195815;13919
195823;13912
195832;13908
195840;13879
195848;13817
195856;13722
195864;14140
195876;13546
195884;10039
195892;5860
195900;5695
195908;13375
195917;16058
195925;15662
195933;15020
195941;14771
195949;14510
195958;14305
195966;14182
195974;14061
195982;13951
195990;13857
195998;13735
196007;13660
196015;13586
196023;13492
196031;13378
196039;13258
196048;13078
196056;12918
196064;12669
196072;12486
196080;12232
196089;12014
196097;11854
196105;11830
196113;11862
196121;11984
196130;12157
196138;12464
196146;12834
196154;13259
196162;13672
196170;13999
196182;14396
196190;14622
196198;14669
196206;14666
196215;14613
196223;14581
196231;14479
196239;14387
196247;14287
196255;14165
196264;14064
196272;14003
196280;13918
196288;13884
196296;13822
196305;13818
196313;13718
196321;13687
196329;13620
196337;13655
196346;13607
196354;13595
196362;13606
196370;13674
196378;13655
196387;13645
196395;13583
196403;13530
196411;13294
196419;13177
196428;13190
196436;13181
196444;13176
196452;13224
196460;13322
196468;13410
196480;13566
196488;13663
196496;13609
196504;13580
196513;13548
196521;13545
196529;13524
196537;13506
196545;13444
196553;14153
196562;13077
196570;9365
196578;5362
196586;5640
196594;13548
196603;15748
196611;15226
196619;14589
196627;14350
196635;14130
196644;13901
196652;13772
196660;13658
196668;13559
196676;13496
196685;13389
196693;13324
196701;13202
196709;13130
196717;13102
196726;13024
196735;12889
196743;12739
196751;12600
196759;12420
196767;12160
196776;11996
196786;11949
196794;11975
196802;12014
196810;12142
196820;12351
196828;12656
196836;12989
196844;13357
196852;13725
196861;14028
196869;14253
196877;14412
196885;14498
196893;14526
196902;14529
196910;14539
196918;14478
196926;14473
196934;14395
196943;14354
196951;14317
196959;14256
196967;14218
196975;14234
196984;14230
196992;14229
197000;14258
197008;14298
197016;14276
197025;14301
197033;14322
197041;14365
197049;14306
197057;14280
197065;14123
197074;14042
197082;14001
197093;14043
197101;14134
197110;14221
197118;14242
197126;14335
197134;14378
197142;14367
197150;14359
197159;14348
197167;14337
197175;14377
197183;14372
197191;14348
197200;14306
197208;14313
197216;14990
197224;13671
197232;9712
197241;5953
197249;6914
197257;14998
197265;16555
197273;15941
197282;15311
197290;15122
197298;14887
197306;14642
197314;14471
197322;14383
197331;14258
197339;14210
197347;14091
197355;13989
197363;13788
197372;13733
197380;13619
197388;13510
197399;13379
197407;13260
197416;12987
197424;12693
197432;12421
197440;12196
197448;12072
197457;12128
197465;12179
197473;12360
197481;12596
197489;12933
197498;13283
197506;13733
197514;14073
197522;14392
197530;14610
197539;14784
197547;14833
197555;14908
197563;14915
197571;14926
197580;14900
197588;14879
197596;14815
197604;14782
197612;14717
197620;14696
197629;14611
197637;14585
197645;14522
197653;14470
197661;14441
197670;14404
197678;14420
197686;14453
197697;14491
197705;14479
197714;14377
197722;14202
197730;14062
197738;14036
197746;13968
197755;13938
197763;13964
197771;13991
197779;14094
197787;14225
197796;14282
197804;14303
197812;14273
197820;14251
197828;14191
197837;14163
197845;14114
197853;14080
197861;14034
197869;14674
197878;13809
197886;10480
197894;7000
197902;6558
197910;13858
197918;16697
197927;16059
197935;15302
197943;14736
197951;14488
197959;14211
197968;13972
197976;13876
197984;13780
197992;13719
198003;13710
198012;13698
198020;13594
198028;13440
198036;13337
198044;13203
198053;13023
198061;12785
198069;12543
198077;12302
198085;12051
198094;11893
198102;11815
198110;11825
198118;11900
198126;12050
198135;12215
198143;12529
198151;12878
198159;13318
198167;13672
198175;14009
198184;14258
198192;14378
198200;14413
198208;14426
198216;14398
198225;14388
198233;14367
198241;14341
198249;14271
198257;14226
198266;14173
198274;14149
198282;14093
198290;14090
198301;14134
198310;14225
198318;14152
198326;14139
198334;14058
198342;14061
198351;14027
198359;13993
198367;13920
198375;13788
198383;13704
198392;13635
198400;13608
198408;13604
198416;13641
198424;13704
198433;13787
198441;13878
198449;13912
198457;13921
198465;13891
198473;13882
198482;13817
198490;13733
198498;13655
198506;13550
198514;13432
198523;14106
198531;13246
198539;9806
198547;5757
198555;5107
198564;12468
198572;15825
198580;15409
198588;14775
198596;14446
198608;14309
198616;14097
198624;13921
198632;13764
198640;13644
198649;13509
198657;13455
198665;13376
198673;13343
198681;13211
198690;13072
198698;12920
198706;12779
198714;12522
198722;12269
198730;12004
198739;11774
198747;11551
198755;11466
198763;11457
198771;11563
198780;11725
198788;11956
198796;12257
198804;12654
198812;13058
198821;13496
198829;13787
198837;13973
198845;14083
198853;14178
198862;14208
198870;14250
198878;14246
198886;14237
198894;14215
198903;14170
198914;14164
198922;14165
198930;14052
198938;14022
198947;13951
198955;13958
198963;13926
198971;13919
198979;13924
198988;13950
198996;13959
199004;13990
199012;13988
199020;13947
199028;13905
199037;13797
199045;13657
199053;13625
199061;13630
199069;13650
199078;13752
199086;13856
199094;13937
199102;13997
199110;14027
199119;14000
199127;13987
199135;13971
199143;14006
199151;13979
199160;13937
199168;13856
199176;13744
199184;14410
199192;13469
199201;9814
199212;4806
199220;7316
199228;15029
199236;15948
199245;15355
199253;14816
199261;14623
199269;14338
199277;14132
199286;14042
199294;13951
199302;13872
199310;13776
199318;13638
199326;13544
199335;13454
199343;13327
199351;13214
199359;13096
199367;12903
199376;12722
199384;12524
199392;12273
199400;12004
199409;11825
199418;11693
199426;11690
199434;11709
199442;11857
199450;12072
199459;12375
199467;12710
199475;13149
199483;13478
199491;13768
199500;14023
199508;14238
199527;14830
199535;14847
199544;14766
199552;14649
199560;14563
199568;14493
199576;14446
199585;14375
199593;14309
199601;14241
199609;14266
199617;14234
199625;14217
199634;14166
199642;14149
199650;14103
199658;14116
199666;14134
199675;14154
199683;14102
199691;14058
199699;13905
199707;13771
199716;13704
199724;13681
199732;13663
199740;13752
199748;13837
199757;13932
199765;13965
199773;14001
199781;13990
199789;13993
199798;13984
199806;13965
199814;13936
199822;13917
199833;13875
199842;14091
199850;14557
199858;12731
199866;8526
199874;5115
199882;7735
199891;15396
199899;16172
199907;15624
199915;15070
199923;14920
199932;14717
199940;14526
199948;14392
199956;14379
199964;14329
199973;14327
199981;14351
199989;14395
199997;14313
200005;14233
200014;14155
200022;14054
200030;13911
200038;13745
200046;13518
200055;13255
200063;13003
200071;12770
200079;12635
200087;12643
200095;12700
200104;12855
200112;13082
200120;13399
200131;13968
200140;14467
200148;14823
200156;15161
200164;15370
200172;15492
200180;15546
200189;15570
200197;15506
200205;15514
200213;15466
200221;15434
200230;15340
200238;15282
200246;15203
200254;15079
200262;14968
200271;14910
200279;14862
200287;14826
200295;14760
200303;14754
200312;14771
200320;14742
200328;14714
200336;14723
200344;14499
200353;14418
200361;14364
200369;14331
200377;14329
200385;14311
200393;14260
200402;14349
200410;14411
200418;14318
200426;14248
200438;14310
200446;14327
200454;14250
200462;14229
200470;14200
200478;14131
200487;14057
200495;14609
200503;13717
200511;10463
200519;7334
200528;6908
200536;13984
200544;16713
200552;16066
200560;15426
200569;14848
200577;14525
200585;14247
200593;14081
200601;13931
200610;13819
200618;13761
200626;13765
200634;13640
200642;13543
200650;13491
200659;13373
200667;13243
200675;13116
200683;12930
200691;12716
200700;12472
200708;12181
200716;11904
200724;11721
200732;11690
200744;11806
200752;11970
200760;12162
200768;12444
200776;12854
200785;13231
200793;13624
200801;13935
200809;14133
200817;14219
200826;14263
200834;14258
200842;14245
200850;14168
200858;14155
200867;14093
200875;14031
200883;13880
200891;13810
200899;13720
200908;13682
200916;13627
200924;13587
200932;13581
200940;13599
200948;13628
200957;13681
200965;13743
200973;13699
200981;13656
200989;13538
200998;13457
201006;13453
201014;13489
201022;13484
201030;13493
201042;13655
201050;13793
201058;13833
201066;13805
201074;13778
201083;13747
201091;13721
201099;13633
201107;13600
201115;13569
201124;13470
201132;13551
201140;13771
201148;11738
201156;7861
201165;5298
201173;8298
201181;15208
201189;15534
201197;14900
201206;14264
201214;13870
201222;13637
201230;13348
201238;13258
201246;13169
201255;13130
201263;13128
201271;13172
201279;13184
201287;13137
201296;13072
201304;12962
201312;12837
201320;12682
201328;12483
201337;12325
201348;12135
201356;11949
201364;11749
201372;11604
201381;11571
201389;11654
201397;11810
201405;12084
201413;12462
201422;12827
201430;13262
201438;13756
201446;14064
201454;14263
201463;14390
201471;14470
201479;14450
201487;14449
201495;14385
201503;14314
201512;14262
201520;14225
201529;14184
201537;14227
201545;14238
201554;14225
201562;14164
201570;14155
201578;14189
201586;14174
201595;14126
201603;14175
201611;14191
201619;14233
201627;14258
201636;14188
201644;14088
201655;14037
201663;14021
201671;13956
201680;13956
201688;13979
201696;13990
201704;14084
201712;14060
201721;14066
201729;14026
201737;14042
201745;14049
201753;14018
201762;13939
201770;13849
201778;13799
201786;14448
201794;13419
201802;9933
201811;5974
201819;5512
201827;12887
201835;16032
201843;15740
201852;15076
201860;14709
201868;14499
201876;14205
201884;14024
201893;13906
201901;13780
201909;13719
201917;13689
201925;13664
201934;13627
201942;13543
201953;13500
201961;13428
201969;13224
201978;13020
201986;12822
201994;12549
202002;12278
202010;12034
202019;11873
202027;11827
202035;11875
202043;11962
202051;12120
202060;12428
202068;12836
202076;13323
202084;13679
202092;13964
202100;14156
202109;14295
202117;14319
202125;14340
202133;14315
202141;14294
202150;14222
202158;14206
202166;14171
202174;14119
202182;14078
202191;14049
202199;14007
202207;13990
202215;13946
202223;13940
202232;13903
202240;13887
202248;13875
202259;13885
202267;13902
202276;13881
202284;13868
202292;13906
202300;13908
202308;13919
202317;13910
202325;13858
202333;13780
202341;13613
202349;13478
202358;13443
202366;13477
202374;13498
202382;13488
202390;13528
202398;13591
202407;13684
202415;13789
202423;13862
202431;13880
202439;13855
202448;13824
202456;13809
202464;13726
202472;13622
202480;13936
202489;13858
202497;11435
202505;6996
202513;4613
202521;8755
202530;15061
202538;15718
202546;15188
202554;14866
202565;14665
202574;14502
202582;14366
202590;14277
202598;14182
202606;14122
202615;14050
202623;14012
202631;13945
202639;13881
202647;13829
202655;13745
202664;13584
202672;13440
202680;13257
202688;13093
202696;12774
202705;12445
202713;12211
202721;12134
202729;12138
202737;12202
202746;12318
202754;12565
202762;12926
202770;13371
202778;13720
202787;14043
202795;14279
202803;14442
202811;14494
202819;14564
202828;14613
202836;14587
202844;14518
202852;14422
202863;14405
202872;14443
202880;14363
202888;14305
202896;14241
202904;14209
202913;14155
202921;14163
202929;14187
202937;14191
202945;14241
202953;14259
202962;14215
202970;14208
202978;14181
202986;14243
202994;14206
203003;14172
203011;14139
203019;14147
203027;14146
203035;14190
203044;14152
203052;14007
203060;13803
203068;13772
203076;13800
203085;13765
203093;13706
203101;13683
203109;13703
203117;13779
203126;13810
203134;13775
203142;13781
203150;13757
203158;13710
203170;13747
203178;13786
203186;13723
203194;13666
203202;14285
203210;13106
203219;9477
203227;5643
203235;5833
203243;13040
203251;15676
203260;15335
203268;14723
203276;14495
203284;14214
203292;13919
203301;13783
203309;13672
203317;13627
203325;13596
203333;13564
203342;13504
203350;13449
203358;13385
203366;13323
203374;13234
203383;13085
203391;12940
203399;12769
203407;12545
203415;12291
203423;12044
203432;11851
203440;11809
203448;11865
203456;11968
203464;12177
203476;12644
203484;13109
203492;13507
203500;13857
203508;14181
203517;14397
203525;14538
203533;14644
203541;14646
203549;14554
203558;14480
203566;14412
203574;14349
203582;14287
203590;14238
203599;14157
203607;14169
203615;14169
203623;14180
203631;14168
203640;14124
203648;14111
203656;14093
203664;14093
203672;14083
203681;14057
203689;14028
203697;13955
203705;13934
203713;13949
203721;13953
203730;13915
203738;13899
203746;13889
203754;13892
203763;13872
203774;13972
203782;14033
203790;14009
203798;13890
203806;13789
203815;13688
203823;13706
203831;13706
203839;13677
203847;13649
203856;13703
203864;13737
203872;13775
203880;13833
203888;13839
203897;13809
203906;13805
203914;13791
203922;13759
203930;13694
203939;13647
203947;13946
203955;14031
203963;11914
203971;7890
203980;5506
203988;9030
203996;15300
204004;15855
204012;15234
204020;14748
204029;14562
204037;14294
204045;14130
204053;14044
204061;13957
204070;13888
204081;13891
204089;13907
204097;13799
204105;13702
204114;13619
204122;13516
204130;13362
204138;13232
204146;13062
204155;12845
204163;12624
204171;12415
204179;12237
204187;12148
204196;12150
204204;12245
204212;12386
204220;12626
204228;12945
204237;13357
204245;13737
204253;14073
204261;14323
204269;14524
204278;14587
204286;14647
204294;14651
204302;14614
204310;14552
204318;14497
204327;14400
204335;14356
204343;14275
204351;14229
204359;14173
204368;14179
204376;14157
204387;14227
204395;14293
204403;14302
204412;14259
204420;14258
204428;14245
204436;14215
204444;14174
204453;14155
204461;14105
204469;14131
204477;14096
204485;14076
204494;14033
204502;14067
204510;14048
204518;14044
204526;13919
204535;13753
204543;13602
204551;13512
204559;13475
204567;13468
204575;13456
204584;13478
204592;13550
204600;13656
204608;13748
204616;13773
204625;13766
204633;13736
204641;13788
204649;13777
204657;13739
204666;13678
204674;13579
204685;14006
204693;12071
204701;8129
204710;5679
204718;8901
204726;15537
204734;15893
204742;15241
204751;14623
204759;14367
204767;14114
204775;13879
204783;13763
204792;13700
204800;13657
204808;13602
204816;13513
204824;13468
204833;13354
204841;13233
204849;13085
204857;12982
204865;12849
204873;12684
204882;12497
204890;12300
204898;12053
204906;11783
204914;11632
204923;11624
204931;11684
204939;11844
204947;12033
204955;12297
204964;12683
204972;13092
204980;13480
204991;13928
204999;14190
205008;14229
205016;14284
205024;14323
205032;14347
205040;14355
205049;14289
205057;14253
205065;14205
205073;14123
205081;14015
205090;13981
205098;13946
205106;13912
205114;13866
205122;13834
205130;13766
205139;13771
205147;13759
205155;13787
205163;13805
205171;13818
205180;13792
205188;13786
205196;13803
205204;13793
205212;13780
205221;13795
205229;13847
205237;13897
205245;13881
205253;13847
205262;13721
205270;13597
205278;13520
205286;13544
205297;13654
205306;13755
205314;13771
205322;13829
205330;13878
205338;13923
205347;13926
205355;13914
205363;13847
205371;13842
205379;13844
205388;13825
205396;13744
205404;13989
205412;14133
205420;12012
205428;7989
205437;5570
205445;9117
205453;15546
205461;15811
205469;15151
205478;14551
205486;14337
205494;14015
205502;13823
205510;13744
205519;13683
205527;13614
205535;13601
205543;13521
205551;13518
205560;13475
205568;13412
205576;13286
205584;13189
205595;13119
205604;13001
205612;12717
205620;12396
205628;12105
205636;11970
205645;11876
205653;11866
205661;11985
205669;12174
205677;12364
205686;12662
205694;13013
205702;13418
205710;13757
205718;13996
205726;14115
205735;14201
205743;14233
205751;14307
205759;14279
205767;14245
205776;14211
205784;14180
205792;14135
205800;14080
205808;14032
205818;14008
205826;14025
205834;14033
205842;14044
205850;14067
205859;14067
205867;14070
205875;14067
205883;14041
205891;14031
205902;14092
205910;14131
205918;14084
205926;14019
205934;14065
205944;14063
205952;14068
205960;14001
205968;13946
205976;13780
205985;13649
205993;13548
206001;13419
206009;13357
206017;13376
206025;13425
206034;13479
206042;13571
206050;13570
206058;13557
206066;13564
206075;13572
206083;13492
206091;13406
206099;13313
206107;13191
206116;13708
206124;13111
206132;10054
206140;6312
206148;5270
206157;11906
206165;15623
206173;15194
206181;14388
206189;13946
206198;13742
206209;13395
206217;13303
206225;13199
206233;13096
206242;12989
206250;12903
206258;12808
206266;12696
206274;12607
206282;12525
206291;12375
206299;12254
206307;12085
206315;11908
206323;11689
206332;11482
206340;11306
206348;11183
206356;11207
206364;11258
206373;11368
206381;11550
206389;11805
206397;12146
206405;12550
206414;12948
206422;13294
206430;13553
206438;13721
206446;13775
206455;13804
206463;13817
206471;13822
206479;13782
206487;13777
206495;13775
206507;13795
206515;13821
206523;13796
206531;13716
206540;13697
206548;13697
206556;13729
206564;13750
206572;13799
206580;13807
206589;13782
206597;13772
206605;13787
206613;13829
206621;13877
206630;13879
206638;13888
206646;13823
206654;13684
206662;13499
206671;13367
206679;13339
206687;13448
206695;13542
206703;13634
206712;13639
206720;13752
206728;13813
206736;13869
206744;13881
206753;13871
206761;13836
206769;13798
206777;13736
206785;13684
206793;13864
206802;14150
206813;10645
206821;6778
206829;5613
206838;12447
206846;16086
206854;15622
206862;14893
206870;14587
206878;14442
206887;14237
206895;14089
206903;14044
206911;13946
206919;13920
206928;13835
206936;13801
206944;13735
206952;13699
206960;13591
206969;13529
206977;13392
206985;13264
206993;13045
207001;12807
207010;12539
207018;12316
207026;12091
207034;12071
207042;12115
207050;12247
207059;12397
207067;12588
207075;12842
207083;13213
207091;13577
207100;13934
207108;14236
207119;14594
207127;14739
207135;14805
207144;14720
207152;14674
207160;14595
207168;14590
207176;14477
207185;14389
207193;14278
207201;14142
207209;14061
207217;14014
207226;14009
207234;14050
207242;13977
207250;13982
207258;14005
207267;14029
207275;14098
207283;14176
207291;14223
207299;14161
207308;14069
207316;13913
207324;13834
207332;13840
207340;13823
207348;13818
207357;13915
207365;14022
207373;14119
207381;14223
207389;14305
207398;14302
207406;14280
207417;14345
207425;14380
207433;14359
207442;14252
207450;14149
207458;14601
207466;14210
207474;11345
207483;7430
207491;6149
207499;12494
207507;16674
207515;16117
207524;15401
207532;14850
207540;14652
207548;14409
207556;14276
207565;14167
207573;14047
207581;13927
207589;13841
207597;13717
207606;13638
207614;13551
207622;13495
207630;13356
207638;13225
207646;13074
207655;12887
207663;12642
207671;12394
207679;12164
207687;12053
207696;11965
207704;11989
207712;12081
207723;12359
207731;12621
207740;12974
207748;13348
207756;13734
207764;14006
207772;14265
207781;14398
207789;14486
207797;14535
207805;14583
207813;14584
207822;14600
207830;14604
207838;14574
207846;14482
207854;14467
207863;14458
207871;14455
207879;14406
207887;14425
207895;14426
207903;14465
207912;14420
207920;14414
207928;14344
207936;14170
207944;14042
207953;14019
207961;13936
207969;13973
207977;14004
207985;14072
207994;14184
208002;14298
208010;14338
208021;14479
208029;14503
208038;14460
208046;14396
208054;14317
208062;14169
208070;14056
208079;14090
208087;14457
208095;12617
208103;8639
208111;6280
208120;8750
208128;15955
208136;16434
208144;15670
208152;14985
208161;14562
208169;14361
208177;14073
208185;13942
208193;13792
208201;13729
208210;13685
208218;13685
208226;13648
208234;13589
208242;13461
208251;13401
208259;13345
208267;13310
208275;13184
208283;13078
208292;12816
208300;12506
208308;12207
208316;12079
208327;12178
208336;12335
208344;12429
208352;12616
208360;12928
208368;13283
208377;13622
208385;13964
208393;14194
208401;14399
208409;14529
208418;14588
208426;14584
208434;14637
208442;14561
208450;14475
208458;14385
208467;14342
208475;14259
208483;14224
208491;14136
208500;14138
208509;14138
208517;14200
208525;14222
208533;14204
208541;14230
208550;14157
208558;13994
208566;13913
208574;13917
208582;13881
208591;13960
208599;14058
208607;14127
208615;14209
208623;14236
208635;14339
208643;14394
208651;14366
208659;14317
208667;14331
208676;14321
208684;14306
208692;14200
208700;14744
208708;13882
208717;10599
208725;6920
208733;6455
208741;13785
208749;16626
208758;16085
208766;15437
208774;14986
208782;14818
208790;14524
208798;14294
208807;14141
208815;13993
208823;13883
208831;13764
208839;13676
208848;13582
208856;13469
208864;13392
208872;13288
208880;13152
208889;12986
208897;12754
208905;12498
208913;12200
208921;11974
208933;11817
208941;11901
208949;11940
208957;12020
208965;12189
208974;12468
208982;12861
208990;13225
208998;13586
209006;13845
209015;14041
209023;14162
209031;14218
209039;14281
209047;14283
209055;14257
209064;14182
209072;14174
209080;14094
209088;14074
209096;14024
209105;14021
209113;13975
209121;13971
209129;13965
209137;13975
209146;13903
209154;13935
209162;13819
209170;13649
209178;13601
209187;13616
209195;13588
209203;13660
209211;13709
209219;13792
209228;13856
209239;14013
209247;14033
209255;14041
209263;14009
209272;13974
209280;13941
209288;13925
209296;13856
209304;13792
209313;13970
209321;14347
209329;12476
209337;8317
209345;5016
209353;7796
209362;15215
209370;15932
209378;15354
209386;14864
209394;14733
209403;14512
209411;14271
209419;14191
209427;14100
209435;14080
209444;13995
209452;13911
209460;13788
209468;13759
209476;13618
209485;13527
209493;13367
209501;13213
209509;13004
209517;12780
209526;12526
209534;12283
209545;12076
209553;12028
209561;11990
209570;12057
209578;12160
209586;12385
209594;12753
209602;13140
209610;13477
209619;13836
209627;14063
209635;14251
209643;14356
209651;14439
209660;14468
209668;14483
209676;14447
209684;14437
209692;14357
209701;14336
209709;14297
209717;14266
209725;14226
209733;14213
209742;14188
209750;14213
209758;14159
209766;14185
209774;14189
209783;14192
209791;14006
209799;13842
209807;13721
209815;13743
209823;13715
209832;13750
209843;13819
209851;13958
209859;13993
209868;14010
209876;13965
209884;13943
209892;13907
209900;13927
209908;13874
209917;13837
209925;13777
209933;13774
209941;13835
209949;14386
209958;12698
209966;8589
209974;4829
209982;6522
209990;14534
209999;15902
210007;15438
210015;14893
210023;14645
210031;14411
210040;14121
210048;13995
210056;13897
210064;13831
210072;13759
210081;13686
210089;13597
210097;13482
210105;13412
210113;13328
210121;13215
210130;13049
210138;12872
210149;12649
210157;12424
210166;12195
210174;12016
210182;11943
210190;11904
210198;12021
210206;12178
210215;12426
210223;12732
210231;13143
210239;13550
210247;13905
210256;14183
210264;14384
210272;14514
210280;14544
210288;14530
210297;14483
210305;14447
210313;14391
210321;14358
210329;14247
210338;14170
210346;14081
210354;14021
210362;13971
210370;13957
210378;13893
210387;13829
210395;13767
210403;13818
210411;13841
210419;13929
210428;13968
210436;13980
210444;13942
210455;13904
210463;13792
210472;13783
210480;13798
210488;13783
210496;13768
210504;13773
210513;13796
210521;13893
210529;13949
210537;13953
210545;13919
210554;13916
210562;13859
210570;13832
210578;13804
210586;13763
210595;13619
210603;14078
210611;13902
210619;11207
210627;6795
210636;4515
210644;9554
210652;15548
210660;15682
210668;15118
210676;14651
210685;14527
210693;14231
210701;14004
210709;13883
210717;13863
210726;13852
210734;13823
210742;13773
210750;13737
210761;13724
210770;13703
210778;13569
210786;13443
210794;13216
210802;13003
210811;12729
210819;12490
210827;12221
210835;12063
210843;11976
210852;12008
210860;12034
210868;12179
210876;12414
210884;12795
210893;13219
210901;13607
210909;13898
210917;14122
210925;14246
210934;14340
210942;14337
210950;14353
210958;14337
210966;14294
210974;14219
210983;14174
210991;14135
210999;14084
211008;14012
211016;13985
211025;13936
211033;13921
211041;13853
211049;13866
211059;13876
211068;13975
211076;13957
211084;13957
211092;13923
211100;13959
211109;13889
211117;13816
211126;13630
211134;13615
211142;13620
211151;13681
211159;13723
211167;13772
211175;13785
211183;13860
211192;13951
211200;14003
211208;14033
211216;14050
211224;14036
211233;14047
211241;14000
211249;14018
211257;13972
211265;13910
211273;14241
211282;14309
211290;11775
211298;7394
211306;4805
211314;9336
211323;15779
211331;16048
211339;15436
211347;14996
211355;14785
211367;14528
211375;14367
211383;14259
211391;14097
211399;14005
211408;13883
211416;13805
211424;13661
211432;13547
211440;13388
211449;13229
211457;13056
211465;12871
211473;12620
211481;12362
211490;12088
211498;11849
211506;11641
211514;11592
211522;11601
211530;11704
211539;11900
211547;12184
211555;12603
211563;13020
211571;13419
211580;13770
211588;14023
211596;14180
211604;14280
211612;14361
211621;14356
211629;14318
211637;14320
211645;14330
211653;14289
211665;14315
211673;14322
211681;14277
211689;14209
211697;14196
211706;14180
211714;14122
211722;14012
211730;13947
211738;13900
211747;13859
211755;13813
211763;13781
211771;13811
211779;13850
211788;13873
211796;13875
211804;13813
211812;13698
211820;13522
211828;13498
211837;13530
211845;13530
211853;13549
211861;13586
211869;13655
211878;13730
211886;13882
211894;13917
211902;13923
211910;13913
211919;13904
211927;13899
211935;13893
211943;13819
211951;13771
211960;13848
211971;14038
211979;11349
211987;6941
211995;4803
212004;10235
212012;15897
212020;15920
212028;15251
212036;14837
212045;14645
212053;14386
212061;14165
212069;14079
212077;13970
212086;13902
212094;13854
212102;13799
212110;13710
212118;13648
212126;13536
212135;13416
212143;13235
212151;13066
212159;12867
212167;12701
212176;12442
212184;12227
212192;12033
212200;11953
212208;11948
212217;12064
212225;12202
212233;12473
212241;12817
212249;13263
212258;13651
212266;14039
212277;14506
212285;14744
212293;14766
212302;14822
212310;14781
212318;14766
212326;14701
212334;14659
212343;14609
212351;14600
212359;14538
212367;14531
212375;14496
212383;14455
212392;14384
212400;14309
212408;14265
212416;14345
212424;14320
212433;14342
212441;14361
212449;14406
212457;14374
212465;14282
212474;14194
212482;14065
212490;13896
212498;13817
212506;13722
212515;13660
212523;13678
212531;13754
212539;13825
212547;13923
212556;13961
212564;14021
212575;14011
212583;14054
212591;14023
212600;14025
212608;14029
212616;13974
212624;13866
212632;14304
212641;14074
212649;11350
212657;7288
212665;5577
212673;11037
212681;16202
212690;15863
212698;15235
212706;14625
212714;14392
212722;14131
212731;13892
212739;13774
212747;13762
212755;13738
212763;13704
212772;13622
212780;13556
212788;13476
212796;13390
212804;13301
212813;13143
212821;12982
212829;12756
212837;12512
212845;12265
212854;12004
212862;11843
212870;11775
212881;11822
212889;11973
212898;12140
212906;12403
212914;12785
212922;13190
212930;13617
212938;13962
212947;14225
212955;14388
212963;14505
212971;14602
212979;14650
212988;14654
212996;14622
213004;14590
213012;14484
213020;14431
213029;14413
213037;14371
213045;14326
213053;14291
213061;14232
213070;14189
213078;14214
213086;14283
213094;14288
213102;14291
213111;14328
213119;14380
213127;14379
213135;14381
213143;14227
213151;14136
213160;14006
213168;13989
213176;13957
213187;14050
213196;14114
213204;14104
213212;14145
213220;14157
213228;14085
213236;14053
213245;14037
213253;13976
213261;13937
213269;13848
213277;13749
213286;13702
213294;14313
213302;13734
213310;10505
213318;6421
213327;5195
213335;11885
213343;15992
213351;15626
213359;14947
213368;14495
213376;14278
213384;14027
213392;13817
213400;13681
213409;13550
213418;13458
213426;13374
213434;13315
213442;13292
213450;13246
213459;13101
213467;13013
213475;12865
213485;12732
213494;12595
213502;12376
213510;12104
213518;11855
213527;11692
213535;11669
213544;11738
213552;11924
213560;12134
213568;12477
213576;12888
213585;13355
213593;13719
213601;14083
213609;14313
213617;14407
213626;14439
213634;14517
213642;14555
213650;14569
213658;14532
213667;14493
213675;14442
213683;14415
213691;14326
213699;14301
213708;14210
213716;14128
213724;14035
213732;14001
213740;13948
213748;13930
213757;13881
213765;13910
213773;13905
213781;13917
213793;13945
213801;13980
213809;13949
213817;13970
213825;13933
213833;14010
213842;13978
213850;13900
213858;13710
213866;13548
213874;13496
213883;13516
213891;13498
213899;13503
213907;13509
213915;13578
213924;13644
213932;13677
213940;13621
213948;13593
213956;13585
213965;13585
213973;13539
213981;13504
213989;13357
213997;13738
214006;13622
214014;11136
214022;6782
214030;4471
214038;9066
214046;15203
214055;15351
214063;14729
214071;14289
214079;14168
214087;13873
214099;13734
214107;13670
214115;13582
214123;13441
214131;13384
214140;13341
214148;13303
214156;13219
214164;13117
214172;12972
214181;12858
214189;12689
214197;12521
214205;12273
214213;12059
214222;11831
214230;11684
214238;11580
214246;11615
214254;11703
214263;11898
214271;12133
214279;12526
214287;12988
214295;13483
214303;13850
214312;14132
214320;14312
214328;14435
214336;14518
214344;14564
214353;14550
214361;14508
214369;14477
214377;14438
214385;14407
214397;14443
214405;14444
214413;14394
214421;14318
214429;14300
214438;14238
214446;14249
214454;14265
214462;14274
214470;14232
214479;14186
214487;14142
214495;14140
214503;14089
214511;14062
214520;14012
214528;13954
214536;13862
214544;13724
214552;13572
214561;13521
214569;13546
214577;13602
214585;13585
214593;13655
214601;13769
214610;13846
214618;13894
214626;13826
214634;13810
214642;13755
214651;13743
214659;13684
214667;13653
214675;13593
214683;13567
214692;14248
214703;12438
214711;8316
214719;4914
214727;7288
214736;14954
214744;15893
214752;15338
214760;14829
214768;14709
214777;14534
214785;14344
214793;14203
214801;14119
214809;14051
214818;13974
214826;13886
214834;13819
214842;13721
214850;13646
214858;13515
214867;13398
214875;13268
214883;13062
214891;12811
214899;12592
214908;12316
214916;12081
214924;11925
214932;11902
214940;11990
214949;12152
214957;12382
214965;12670
214973;13076
214981;13543
214990;13910
214998;14279
215009;14712
215017;14881
215025;14876
215034;14913
215042;14890
215050;14869
215058;14824
215066;14783
215075;14752
215083;14746
215091;14696
215099;14649
215107;14615
215116;14582
215124;14510
215132;14501
215140;14474
215148;14457
215156;14448
215165;14479
215173;14517
215181;14546
215189;14550
215197;14576
215206;14526
215214;14349
215222;14171
215230;14127
215238;14076
215247;14036
215255;14037
215263;14098
215271;14167
215279;14238
215288;14270
215296;14242
215307;14260
215315;14259
215323;14156
215332;14113
215340;14089
215348;14038
215356;13980
215364;14680
215373;13369
215381;9582
215389;6380
215397;6856
215405;14543
215414;16489
215422;15865
215430;15136
215438;14630
215446;14476
215454;14143
215463;13975
215471;13866
215479;13758
215487;13621
215495;13543
215504;13469
215512;13384
215520;13269
215528;13207
215536;13032
215545;12928
215553;12756
215561;12537
215569;12295
215577;12072
215586;11852
215594;11743
215602;11742
215613;11884
215621;12068
215630;12259
215638;12566
215646;13024
215654;13471
215662;13925
215671;14258
215679;14542
215687;14676
215695;14763
215703;14850
215711;14929
215720;14917
215728;14931
215736;14935
215744;14915
215752;14845
215761;14797
215769;14732
215777;14652
215785;14590
215794;14556
215803;14487
215811;14443
215819;14443
215827;14433
215835;14408
215844;14407
215852;14281
215860;14186
215868;14104
215876;14068
215885;14015
215893;14061
215901;14147
215909;14218
215920;14421
215929;14562
215937;14547
215945;14534
215953;14467
215961;14415
215970;14385
215978;14361
215986;14249
215994;14172
216002;14033
216010;14658
216019;13637
216027;9994
216035;6605
216043;6497
216051;13845
216060;16478
216068;15938
216076;15233
216084;14671
216092;14453
216101;14190
216109;13925
216117;13788
216125;13664
216133;13572
216142;13510
216150;13477
216158;13404
216166;13339
216174;13216
216183;13101
216191;12988
216199;12783
216207;12518
216218;12218
216227;11996
216235;11767
216243;11654
216251;11639
216259;11708
216268;11855
216276;12116
216284;12461
216292;12891
216300;13357
216308;13761
216317;14099
216325;14296
216333;14444
216341;14529
216349;14566
216358;14564
216366;14544
216374;14490
216382;14474
216390;14384
216399;14343
216407;14311
216415;14286
216423;14235
216431;14216
216440;14184
216448;14177
216456;14125
216464;14123
216472;14103
216481;14110
216489;14103
216497;14137
216505;14099
216513;14129
216525;14192
216533;14262
216541;14245
216549;14156
216557;14022
216566;13796
216574;13659
216582;13594
216590;13569
216598;13532
216606;13502
216615;13498
216623;13522
216631;13615
216639;13605
216647;13553
216656;13485
216664;13496
216672;13442
216680;13443
216688;13372
216697;13476
216705;13890
216713;12398
216721;8384
216729;4749
216738;6273
216746;13875
216754;15425
216762;14932
216770;14439
216778;14304
216787;13990
216795;13782
216803;13697
216811;13641
216819;13542
216831;13601
216839;13640
216847;13652
216855;13603
216863;13546
216872;13464
216880;13376
216888;13220
216896;13054
216904;12794
216913;12524
216921;12261
216929;12074
216937;11957
216945;11981
216954;12022
216962;12180
216970;12373
216978;12726
216986;13165
216995;13601
217003;13930
217011;14221
217019;14408
217027;14503
217036;14507
217044;14536
217052;14496
217060;14478
217068;14440
217076;14360
217085;14289
217093;14258
217101;14195
217109;14147
217117;14125
217129;14219
217137;14315
217145;14323
217153;14292
217161;14251
217170;14231
217178;14242
217186;14237
217194;14258
217202;14252
217211;14250
217219;14248
217227;14169
217235;14037
217243;13877
217252;13810
217260;13837
217268;13846
217276;13865
217284;13834
217293;13889
217301;13959
217309;14019
217317;13953
217325;13935
217334;13875
217342;13861
217350;13860
217358;13822
217366;13721
217374;13580
217383;14026
217391;13625
217399;10794
217407;6236
217415;4572
217424;10549
217435;15680
217443;15284
217451;14619
217459;14441
217468;14186
217476;13980
217484;13872
217492;13811
217500;13752
217509;13743
217517;13679
217525;13644
217533;13576
217541;13473
217550;13372
217558;13228
217566;13081
217574;12893
217582;12594
217591;12363
217599;12098
217607;11853
217615;11659
217623;11595
217631;11592
217640;11694
217648;11904
217656;12198
217664;12584
217672;12974
217681;13372
217689;13677
217697;13910
217705;14064
217713;14166
217722;14207
217730;14227
217741;14265
217749;14266
217757;14173
217766;14137
217774;14104
217782;14045
217790;14050
217798;14017
217807;13986
217815;13959
217823;13955
217831;13943
217839;13888
217848;13879
217856;13886
217864;13859
217872;13803
217880;13810
217889;13802
217897;13827
217905;13808
217913;13833
217921;13815
217929;13781
217938;13599
217946;13472
217954;13433
217962;13434
217970;13415
217979;13433
217987;13444
217995;13465
218003;13520
218011;13587
218020;13617
218028;13578
218039;13631
218047;13642
218055;13584
218064;13555
218072;13482
218080;13756
218088;13900
218096;11755
218105;7373
218113;4453
218121;8373
218129;15235
218137;15674
218146;15007
218154;14619
218162;14484
218170;14280
218178;14138
218186;14069
218195;13997
218203;13901
218211;13824
218219;13729
218227;13664
218237;13568
218245;13488
218253;13379
218261;13264
218269;13114
218278;12959
218286;12689
218294;12432
218302;12227
218310;12071
218319;11980
218327;12001
218335;12069
218345;12285
218353;12553
218362;12873
218371;13265
218379;13669
218387;13990
218395;14277
218404;14453
218412;14597
218420;14611
218428;14607
218436;14618
218445;14596
218453;14497
218461;14449
218469;14418
218477;14366
218486;14285
218494;14243
218502;14174
218510;14165
218518;14145
218526;14153
218535;14112
218543;14101
218551;14042
218559;14032
218567;14040
218576;14010
218584;13973
218592;13978
218600;13998
218608;13988
218617;13966
218625;13964
218633;13872
218644;13726
218652;13636
218661;13655
218669;13655
218677;13630
218685;13669
218693;13772
218702;13864
218710;13977
218718;14035
218726;14087
218734;14073
218743;14087
218751;14060
218759;14026
218767;13962
218775;13921
218783;14101
218792;14491
218800;12522
218808;8322
218816;5403
218824;8682
218833;15702
218841;16062
218849;15367
218857;14823
218865;14675
218874;14440
218882;14242
218890;14114
218898;14000
218906;13890
218915;13823
218923;13780
218931;13758
218939;13696
218959;13906
218967;13787
218975;13536
218983;13302
218991;13051
219000;12762
219008;12475
219016;12253
219024;12179
219032;12149
219041;12210
219049;12325
219057;12548
219065;12837
219073;13197
219081;13572
219090;13872
219098;14154
219106;14358
219114;14484
219122;14556
219131;14613
219139;14637
219147;14602
219155;14563
219163;14526
219172;14480
219180;14397
219188;14253
219196;14178
219204;14120
219213;14131
219221;14083
219229;14039
219237;14052
219245;14018
219254;14026
219265;14102
219273;14151
219281;14138
219289;14161
219298;14144
219306;14047
219314;13868
219322;13701
219330;13662
219338;13699
219347;13690
219355;13705
219363;13776
219371;13819
219379;13945
219388;14001
219396;14066
219404;14087
219412;14079
219420;14053
219429;14051
219437;14015
219445;13969
219453;13867
219461;14367
219470;13972
219478;11036
219486;7246
219494;6102
219502;12306
219511;16601
219519;16038
219527;15290
219535;14649
219543;14429
219551;14172
219560;13923
219571;13829
219579;13773
219587;13646
219596;13543
219604;13448
219612;13382
219620;13284
219628;13171
219636;13001
219645;12863
219653;12725
219661;12529
219669;12291
219677;12033
219686;11822
219694;11712
219702;11637
219710;11725
219718;11833
219727;12009
219735;12311
219743;12697
219751;13078
219759;13576
219768;13980
219776;14300
219784;14518
219792;14717
219800;14845
219809;14938
219817;14965
219825;14938
219833;14902
219841;14869
219849;14813
219858;14740
219869;14780
219877;14829
219885;14727
219894;14650
219902;14591
219910;14597
219918;14584
219926;14577
219934;14484
219943;14456
219951;14325
219959;14143
219967;14019
219975;13999
219984;13932
219992;13967
220000;14020
220008;14101
220016;14189
220025;14235
220033;14175
220041;14219
220049;14174
220057;14145
220066;14142
220074;14102
220082;14104
220090;14092
220098;13977
220106;14556
220115;13770
220123;10377
220131;7058
220139;6597
220147;13318
220156;16782
220164;16218
220175;15396
220183;14815
220191;14517
220200;14217
220208;13994
220216;13867
220224;13771
220232;13737
220241;13680
220249;13634
220257;13520
220265;13372
220273;13264
220282;13119
220290;12984
220298;12777
220307;12594
220315;12361
220324;12129
220332;11873
220340;11747
220348;11749
220356;11822
220365;11949
220373;12163
220381;12515
220389;13044
220397;13564
220406;14050
220414;14411
220422;14688
220430;14875
220438;14970
220446;15050
220455;15089
220463;15069
220474;15093
220482;15066
220490;14969
220499;14891
220507;14799
220515;14701
220523;14629
220531;14546
220540;14456
220548;14370
220556;14374
220564;14347
220572;14299
220581;14276
220589;14330
220597;14369
220605;14346
220613;14345
220622;14252
220630;14152
220638;14005
220646;13919
220654;13877
220663;13941
220671;14007
220679;14052
220687;14124
220695;14144
220703;14112
220712;14152
220720;14131
220728;14127
220736;14076
220744;14044
220753;13987
220761;13918
220769;14547
220780;12449
220788;8239
220797;5015
220805;7667
220813;15060
220821;16037
220829;15511
220838;14928
220846;14744
220854;14446
220862;14221
220870;14100
220879;14027
220887;13954
220895;13856
220903;13747
220911;13670
220920;13543
220928;13448
220936;13480
220944;13498
220952;13439
220961;13330
220969;13200
220977;13031
220985;12835
220993;12693
221001;12586
221010;12543
221018;12584
221026;12698
221034;12877
221042;13189
221051;13562
221059;13845
221067;14077
221075;14303
221086;14475
221095;14524
221103;14444
221111;14397
221119;14299
221127;14243
221136;14133
221144;14064
221152;13928
221160;13845
221168;13773
221177;13682
221185;13608
221193;13604
221201;13506
221209;13429
221218;13352
221226;13344
221234;13378
221242;13395
221250;13350
221258;13364
221267;13201
221275;13082
221283;12989
221291;12988
221299;12964
221308;13007
221316;13039
221324;13117
221332;13225
221340;13293
221349;13284
221357;13279
221365;13228
221373;13180
221384;13138
221393;13107
221401;12990
221409;12778
221417;13325
221425;12689
221434;9473
221442;4947
221450;3565
221458;10304
221466;14740
221475;14586
221483;13943
221491;13665
221499;13468
221507;13196
221516;13048
221524;12993
221532;12930
221540;12934
221548;12902
221556;12889
221565;12838
221573;12778
221581;12696
221589;12608
221597;12515
221606;12388
221614;12208
221622;11994
221630;11769
221638;11542
221647;11373
221655;11295
221663;11338
221671;11478
221679;11656
221691;12118
221699;12605
221707;13110
221715;13526
221723;13878
221732;14114
221740;14270
221748;14315
221756;14359
221764;14413
221773;14458
221781;14450
221789;14403
221797;14374
221805;14388
221814;14363
221822;14371
221830;14382
221838;14395
221846;14396
221854;14370
221863;14370
221871;14410
221879;14427
221887;14407
221895;14409
221904;14405
221912;14384
221920;14399
221928;14426
221936;14412
221945;14364
221953;14245
221961;14076
221969;13989
221977;13928
221986;13896
221997;13886
222005;13894
222013;13913
222021;13942
222030;13969
222038;13914
222046;13850
222054;13821
222062;13828
222071;13797
222079;13714
222087;13649
222095;13645
222103;14263
222111;12945
222120;9129
222128;5164
222136;5803
222144;13787
222152;15891
222161;15420
222169;14800
222177;14607
222185;14411
222193;14174
222202;14070
222210;13996
222218;13898
222226;13838
222234;13803
222243;13771
222251;13708
222259;13619
222267;13471
222275;13380
222284;13273
222295;13144
222303;13026
222311;12762
222319;12498
222328;12287
222336;12176
222344;12153
222352;12217
222360;12323
222369;12522
222377;12837
222385;13247
222393;13687
222401;14093
222409;14488
222418;14679
222426;14808
222434;14875
222442;14925
222450;14924
222459;14890
222467;14855
222475;14805
222483;14778
222491;14718
222500;14658
222508;14609
222516;14541
222524;14510
222532;14510
222541;14509
222549;14489
222557;14481
222565;14475
222573;14478
222582;14454
222590;14512
222601;14617
222609;14702
222617;14605
222626;14510
222634;14302
222642;14091
222650;13983
222658;13997
222666;13973
222675;13946
222683;13956
222691;14015
222699;14079
222707;14124
222716;14098
222724;14077
222732;14083
222740;14033
222748;13943
222757;13836
222765;13744
222773;13787
222781;14312
222789;12596
222798;8496
222806;5111
222814;7068
222822;14884
222830;15938
222839;15391
222847;14789
222855;14595
222863;14394
222871;14203
222879;14040
222888;13937
222896;13899
222907;13931
222915;13936
222924;13807
222932;13673
222940;13530
222948;13389
222956;13285
222964;13147
222973;12961
222981;12714
222989;12418
222997;12155
223005;11949
223014;11811
223022;11799
223031;11852
223039;12040
223047;12300
223056;12575
223064;12944
223072;13355
223080;13716
223088;14023
223097;14287
223105;14466
223113;14482
223121;14512
223129;14514
223138;14536
223146;14524
223154;14749
223162;15051
223170;15224
223178;15391
223187;15508
223195;15591
223206;15751
223214;15821
223223;15804
223231;15823
223239;15844
223247;15830
223255;15806
223263;15693
223272;15579
223280;15440
223288;15428
223296;15351
223304;15340
223313;15365
223321;15397
223329;15443
223337;15458
223345;15413
223354;15316
223362;15245
223370;15150
223378;15076
223386;14972
223395;14900
223403;14826
223411;14682
223419;15193
223427;14292
223436;10817
223444;7395
223452;7093
223460;14365
223468;17178
223476;16572
223485;15811
223493;15231
223501;15016
223512;14635
223521;14475
223529;14282
223537;14132
223545;14031
223553;13909
223561;13773
223570;13663
223578;13565
223586;13445
223594;13260
223602;13100
223611;12918
223619;12666
223627;12347
223635;12020
223643;11760
223652;11611
223660;11540
223668;11547
223676;11692
223684;11914
223693;12224
223701;12633
223709;13061
223717;13436
223725;13758
223734;14001
223742;14148
223750;14245
223758;14325
223766;14334
223774;14266
223783;14219
223791;14175
223799;14106
223807;14074
223818;13992
223827;13986
223835;13913
223843;13823
223851;13745
223859;13696
223868;13674
223876;13670
223884;13676
223892;13662
223900;13630
223909;13640
223917;13610
223925;13604
223933;13595
223941;13559
223950;13387
223958;13258
223966;13109
223974;13061
223982;12969
223991;13044
223999;13150
224007;13200
224015;13280
224023;13321
224031;13318
224040;13298
224048;13226
224056;13212
224064;13183
224072;13164
224081;13124
224089;13219
224097;13698
224105;11930
224116;6315
224125;4266
224133;9450
224141;15298
224149;15320
224157;14700
224166;14279
224174;14159
224182;13899
224190;13748
224198;13672
224207;13636
224215;13541
224223;13490
224231;13416
224239;13309
224248;13181
224256;13075
224264;12941
224272;12801
224280;12636
224289;12467
224297;12272
224305;12033
224313;11789
224321;11640
224329;11590
224338;11635
224346;11714
224354;11881
224362;12126
224370;12489
224379;12936
224387;13413
224395;13786
224403;14088
224411;14249
224423;14462
224431;14521
224439;14525
224447;14506
224455;14458
224464;14360
224472;14270
224480;14191
224488;14107
224496;14025
224505;13955
224513;13858
224521;13823
224529;13817
224537;13809
224546;13757
224554;13760
224562;13739
224570;13746
224578;13726
224586;13709
224595;13656
224603;13670
224612;13669
224620;13658
224628;13670
224637;13621
224645;13511
224653;13346
224661;13311
224669;13371
224678;13436
224686;13453
224694;13486
224702;13578
224710;13713
224719;13798
224730;13885
224738;13952
224746;13938
224754;13895
224763;13870
224771;13811
224779;13697
224787;13816
224795;14092
224804;12073
224812;7786
224820;4614
224828;7593
224836;15035
224845;15806
224853;15181
224861;14638
224869;14475
224877;14219
224886;14042
224894;13909
224902;13805
224910;13753
224918;13695
224926;13657
224935;13561
224943;13540
224951;13467
224959;13379
224967;13278
224976;13183
224984;13008
224992;12803
225000;12562
225008;12285
225017;12037
225028;11992
225036;12035
225044;12060
225052;12158
225061;12362
225069;12721
225077;13123
225085;13480
225093;13851
225102;14153
225110;14364
225118;14499
225126;14557
225134;14581
225143;14567
225151;14525
225159;14488
225167;14458
225175;14402
225183;14318
225192;14239
225200;14162
225208;14083
225216;14036
225224;13995
225233;13968
225241;13969
225249;13925
225257;13923
225265;13885
225274;13940
225282;13954
225290;13961
225298;13956
225306;13978
225315;14017
225323;13978
225334;13884
225342;13740
225350;13575
225359;13561
225367;13550
225375;13510
225383;13516
225391;13556
225400;13633
225408;13692
225416;13693
225424;13678
225432;13634
225441;13591
225449;13579
225457;13551
225465;13514
225473;13455
225481;14110
225490;13278
225498;9865
225506;5563
225514;4781
225522;12245
225531;15721
225539;15399
225547;14804
225555;14601
225563;14454
225572;14262
225580;14167
225588;14098
225596;14017
225604;13998
225613;13938
225621;13873
225629;13784
225640;13769
225648;13743
225657;13624
225665;13475
225673;13280
225681;13034
225689;12764
225698;12453
225706;12195
225714;12047
225722;12032
225730;12098
225738;12244
225747;12419
225755;12689
225763;13083
225771;13520
225779;13926
225788;14250
225796;14473
225804;14598
225812;14709
225820;14752
225829;14703
225837;14648
225845;14575
225853;14546
225861;14474
225870;14401
225878;14296
225886;14253
225894;14187
225902;14149
225911;14114
225919;14121
225927;14075
225938;14042
225946;14097
225955;14094
225963;13988
225971;13931
225979;13925
225987;13969
225996;13936
226004;13931
226012;13874
226020;13737
226028;13499
226036;13428
226045;13438
226053;13503
226061;13547
226069;13641
226077;13739
226086;13844
226094;13954
226102;13994
226110;13955
226118;13943
226127;13961
226135;13898
226143;13847
226151;13781
226159;13777
226168;14388
226176;12985
226184;9089
226192;5758
226200;6899
226209;14733
226217;16147
226225;15549
226233;14915
226244;14707
226253;14590
226261;14365
226269;14243
226277;14167
226285;14092
226294;14010
226302;13959
226310;13858
226318;13796
226326;13691
226334;13559
226343;13378
226351;13272
226359;13157
226367;12930
226375;12669
226384;12413
226392;12194
226400;12091
226408;12111
226416;12160
226425;12245
226433;12485
226441;12801
226449;13175
226457;13567
226466;13938
226474;14243
226482;14448
226490;14572
226498;14645
226506;14727
226515;14727
226523;14701
226531;14667
226539;14648
226551;14587
226559;14639
226567;14574
226575;14507
226583;14458
226591;14425
226600;14383
226608;14324
226616;14349
226624;14373
226632;14383
226641;14259
226649;14134
226657;14098
226665;14076
226673;14048
226682;14109
226690;14163
226698;14249
226706;14397
226714;14380
226723;14339
226731;14322
226739;14294
226747;14263
226755;14239
226764;14198
226772;14186
226781;14149
226789;14077
226797;14648
226806;13676
226814;10193
226822;6813
226830;6611
226838;13969
226849;16716
226857;16118
226865;15415
226873;14961
226881;14723
226889;14415
226898;14211
226906;14115
226914;13971
226922;13885
226931;13803
226940;13738
226948;13586
226956;13419
226964;13273
226972;13165
226981;12982
226989;12796
226997;12576
227005;12322
227013;12035
227022;11835
227030;11710
227038;11730
227046;11764
227054;11898
227063;12102
227071;12465
227079;12889
227087;13302
227095;13659
227103;14006
227112;14265
227120;14439
227128;14557
227136;14627
227144;14606
227156;14682
227164;14710
227172;14621
227180;14529
227188;14447
227197;14363
227205;14323
227213;14271
227221;14221
227229;14158
227238;14113
227246;14084
227254;14080
227262;14068
227270;14065
227279;13992
227287;13934
227295;13848
227303;13688
227311;13576
227320;13584
227328;13564
227336;13543
227344;13581
227352;13627
227361;13718
227369;13766
227377;13777
227385;13761
227393;13821
227401;13829
227410;13805
227418;13791
227426;13730
227434;13645
227442;14113
227451;13875
227462;9772
227470;6090
227478;5974
227486;13523
227495;16121
227503;15672
227511;14995
227519;14638
227527;14402
227536;14144
227544;13944
227552;13867
227560;13714
227568;13649
227577;13575
227585;13517
227593;13437
227601;13356
227609;13242
227618;13093
227626;12933
227634;12773
227642;12517
227650;12274
227658;11991
227667;11726
227675;11593
227683;11595
227691;11665
227699;11772
227708;11929
227716;12211
227724;12608
227732;13041
227740;13446
227749;13813
227760;14233
227768;14479
227776;14542
227784;14585
227793;14570
227801;14555
227809;14517
227817;14474
227825;14471
227834;14474
227842;14457
227850;14415
227858;14387
227866;14322
227875;14249
227883;14181
227891;14098
227899;14052
227907;14035
227916;14020
227924;13990
227932;13988
227940;13957
227948;13949
227956;13979
227965;13962
227973;13928
227981;13796
227989;13646
227997;13540
228006;13496
228014;13498
228022;13563
228030;13601
228038;13653
228047;13708
228055;13809
228066;13880
228074;13951
228082;13886
228091;13846
228099;13822
228107;13780
228115;13731
228123;13794
228132;14297
228140;12635
228148;8527
228156;4847
228164;6361
228173;14232
228181;15804
228189;15297
228197;14725
228205;14524
228214;14279
228222;14077
228230;13956
228238;13870
228246;13823
228254;13793
228263;13763
228271;13736
228279;13670
228287;13583
228295;13460
228304;13363
228312;13247
228320;13089
228328;12896
228336;12687
228345;12431
228353;12185
228361;11987
228372;12016
228380;12163
228389;12253
228397;12417
228405;12713
228413;13109
228421;13535
228430;13872
228438;14150
228446;14343
228454;14445
228462;14537
228471;14550
228479;14500
228487;14476
228495;14435
228503;14422
228511;14314
228520;14206
228528;14133
228536;14016
228544;13967
228552;13943
228561;13890
228569;13873
228577;13870
228585;13887
228593;13899
228602;13932
228610;13933
228618;13976
228626;14009
228634;14097
228643;14134
228651;14177
228659;14153
228670;14136
228678;14064
228687;13966
228695;13929
228703;13987
228711;13951
228719;13929
228728;14005
228736;14089
228744;14146
228752;14177
228760;14140
228769;14089
228777;14074
228785;14050
228793;13969
228801;13896
228809;13795
228818;14128
228826;14170
228834;11788
228842;7337
228850;4647
228859;8760
228867;15389
228875;15733
228883;15087
228891;14625
228900;14422
228908;14118
228916;13903
228924;13782
228932;13675
228941;13575
228949;13523
228957;13477
228965;13371
228976;13333
228985;13272
228993;13151
229001;13025
229009;12821
229017;12586
229026;12334
229034;12082
229042;11817
229050;11652
229058;11588
229066;11623
229075;11666
229083;11804
229091;12042
229099;12394
229107;12840
229116;13299
229124;13678
229132;13970
229140;14136
229148;14265
229157;14393
229165;14488
229173;14489
229181;14453
229189;14456
229198;14437
229206;14423
229214;14401
229222;14364
229230;14341
229239;14322
229247;14291
229255;14304
229263;14305
229271;14288
229283;14301
229291;14301
229299;14238
229307;14212
229315;14144
229324;14120
229332;14134
229340;14166
229348;14164
229356;14153
229364;14056
229373;13888
229381;13737
229389;13702
229397;13687
229405;13691
229414;13673
229422;13718
229430;13783
229438;13905
229446;13962
229455;13917
229463;13840
229471;13791
229479;13743
229487;13679
229496;13610
229504;13546
229512;13646
229520;14190
229528;12504
229537;8399
229545;4810
229553;6680
229561;14468
229569;15758
229581;15015
229589;14717
229597;14582
229605;14344
229613;14152
229622;14064
229630;14025
229638;13950
229646;13893
229654;13867
229662;13805
229671;13727
229679;13619
229687;13501
229695;13312
229703;13135
229712;12954
229720;12728
229728;12434
229736;12184
229744;12030
229753;11937
229761;11908
229769;12020
229777;12152
229785;12316
229794;12625
229803;13051
229811;13490
229819;13880
229827;14209
229836;14474
229844;14628
229852;14741
229860;14794
229868;14808
229876;14756
229887;14785
229895;14779
229903;14741
229912;14682
229921;14630
229929;14540
229937;14461
229945;14436
229953;14395
229961;14316
229970;14277
229978;14250
229986;14233
229994;14228
230002;14178
230011;14134
230019;14143
230027;14010
230035;13853
230043;13763
230052;13749
230060;13721
230068;13739
230076;13793
230084;13935
230093;14017
230101;14071
230109;14087
230117;14097
230125;14117
230134;14124
230142;14120
230150;14115
230158;14037
230166;13980
230174;14100
230183;14501
230194;11392
230202;7519
230210;5923
230218;11799
230227;16600
230235;16226
230243;15562
230251;14953
230259;14701
230268;14454
230276;14235
230284;14117
230292;14028
230300;13982
230309;13930
230317;13857
230325;13787
230333;13636
230341;13475
230350;13358
230358;13173
230366;12989
230374;12786
230382;12558
230391;12307
230399;12076
230407;11914
230415;11815
230423;11848
230431;11899
230440;12062
230448;12259
230456;12600
230464;13021
230472;13385
230481;13752
230492;14199
230500;14448
230508;14550
230516;14587
230525;14580
230533;14584
230541;14527
230549;14458
230557;14421
230566;14429
230574;14372
230582;14401
230590;14350
230598;14347
230607;14277
230615;14193
230623;14174
230631;14164
230639;14130
230648;14172
230656;14208
230664;14185
230672;14104
230680;14032
230689;13851
230697;13713
230705;13635
230713;13606
230721;13563
230729;13581
230738;13580
230746;13611
230754;13680
230762;13731
230770;13730
230779;13696
230787;13622
230798;13662
230806;13685
230814;13593
230823;13523
230831;13750
230839;14092
230847;11956
230855;7641
230864;4615
230872;7959
230880;15166
230888;15698
230896;15060
230905;14493
230913;14297
230921;14012
230929;13784
230937;13683
230946;13584
230954;13529
230962;13522
230970;13457
230978;13390
230986;13329
230995;13233
231003;13151
231011;13042
231019;12925
231027;12731
231036;12456
231044;12142
231052;11840
231060;11627
231068;11546
231077;11559
231085;11644
231093;11796
231104;12189
231112;12600
231121;13005
231129;13417
231137;13783
231145;14023
231153;14202
231162;14366
231170;14420
231178;14463
231186;14485
231194;14430
231203;14344
231211;14275
231219;14201
231227;14112
231235;14036
231244;13973
231252;13915
231260;13861
231268;13848
231276;13858
231284;13860
231293;13801
231301;13768
231309;13766
231317;13808
231325;13812
231334;13839
231342;13887
231350;13920
231358;13927
231366;13848
231375;13700
231383;13556
231391;13487
231402;13597
231410;13640
231419;13646
231427;13675
231435;13764
231443;13854
231451;13879
231460;13882
231468;13886
231476;13895
231484;13939
231492;13900
231501;13873
231509;13801
231517;14532
231525;13729
231533;10355
231542;6013
231550;5349
231558;12700
231566;16099
231574;15740
231582;15101
231591;14866
231599;14675
231607;14429
231615;14335
231624;14254
231633;14200
231641;14117
231649;14067
231657;13942
231665;13892
231674;13773
231682;13660
231690;13520
231698;13375
231708;13164
231717;12985
231725;12665
231733;12400
231742;12161
231750;12014
231759;11943
231767;12020
231775;12113
231783;12258
231791;12548
231800;12985
231808;13424
231816;13847
231824;14206
231832;14423
231841;14570
231849;14709
231857;14724
231865;14736
231873;14704
231881;14649
231890;14618
231898;14589
231906;14535
231914;14500
231922;14416
231931;14337
231939;14268
231947;14250
231955;14210
231963;14153
231972;14152
231980;14135
231988;14127
231996;14133
232007;14199
232016;14219
232024;14136
232032;14081
232040;14089
232048;14047
232057;13926
232065;13777
232073;13711
232081;13716
232089;13731
232098;13713
232106;13715
232114;13728
232122;13775
232130;13835
232138;13804
232147;13786
232155;13746
232163;13737
232171;13721
232179;13665
232188;13574
232196;13655
232204;14249
232212;12716
232220;8761
232229;5508
232237;7050
232245;14821
232253;16058
232261;15430
232270;14763
232278;14468
232286;14270
232294;14045
232302;13950
232314;13922
232322;13934
232330;13904
232338;13842
232346;13796
232355;13724
232363;13648
232371;13564
232379;13412
232387;13236
232396;13094
232404;12851
232412;12564
232420;12343
232428;12179
232436;12088
232445;12114
232453;12187
232461;12307
232469;12473
232477;12809
232486;13225
232494;13631
232502;13963
232510;14254
232518;14482
232527;14617
232535;14708
232543;14743
232551;14772
232559;14758
232568;14717
232576;14649
232584;14635
232592;14565
232600;14535
232609;14492
232620;14544
232628;14523
232636;14451
232644;14407
232653;14405
232661;14411
232669;14439
232677;14435
232685;14385
232694;14322
232702;14148
232710;14026
232718;13947
232726;13897
232734;13859
232743;13876
232751;13967
232759;14021
232767;14105
232775;14143
232784;14165
232792;14118
232800;14079
232808;14069
232816;13991
232825;13897
232833;13865
232841;13796
232849;13811
232857;14347
232866;12721
232874;8657
232882;5755
232890;7472
232898;15206
232906;16215
232915;15526
232926;14736
232934;14503
232942;14225
232951;13938
232959;13775
232967;13665
232975;13574
232983;13528
232991;13429
233000;13363
233008;13261
233016;13190
233024;13090
233032;12930
233041;12737
233049;12522
233057;12319
233065;12068
233073;11806
233082;11634
233090;11533
233098;11578
233106;11665
233114;11824
233123;12084
233131;12494
233139;12952
233147;13444
233155;13811
233164;14141
233172;14354
233180;14468
233188;14505
233196;14490
233204;14493
233213;14413
233224;14412
233232;14385
233240;14256
233249;14188
233257;14066
233265;14034
233273;14001
233281;13970
233289;13904
233298;13880
233306;13862
233314;13842
233322;13797
233330;13802
233339;13781
233347;13781
233355;13766
233363;13763
233371;13750
233380;13734
233388;13631
233396;13476
233404;13347
233412;13329
233421;13290
233429;13333
233437;13315
233445;13309
233453;13332
233462;13433
233470;13502
233478;13491
233486;13483
233494;13469
233502;13450
233511;13410
233519;13399
233530;13427
233538;14152
233546;12979
233555;9221
233563;5093
233571;5365
233579;13265
233587;15759
233596;15303
233604;14716
233612;14539
233620;14348
233628;14085
233637;13944
233645;13901
233653;13827
233661;13757
233669;13730
233678;13653
233686;13583
233694;13496
233702;13409
233710;13325
233719;13196
233727;12993
233735;12778
233743;12513
233751;12265
233759;12007
233768;11827
233776;11799
233784;11826
233792;11898
233801;12057
233810;12278
233818;12663
233826;13083
233836;13707
233844;14127
233853;14350
233861;14490
233869;14562
233877;14579
233885;14600
233894;14581
233903;14530
233911;14441
233919;14384
233927;14292
233936;14256
233944;14223
233952;14144
233960;14085
233968;14065
233977;14022
233985;13985
233993;13963
234001;13978
234009;13979
234018;14000
234026;13936
234034;13947
234042;13824
234050;13638
234058;13537
234067;13535
234075;13508
234083;13525
234091;13558
234099;13669
234108;13761
234116;13872
234124;13883
234135;13950
234143;13995
234152;13954
234160;13923
234168;13931
234176;13911
234184;13807
234193;14389
234201;13761
234209;10513
234217;5975
234225;4610
234234;11667
234242;15740
234250;15462
234258;14800
234266;14533
234275;14295
234283;14060
234291;13921
234299;13836
234307;13702
234316;13650
234324;13581
234332;13509
234340;13426
234348;13337
234356;13226
234365;13141
234373;13003
234381;12900
234389;12744
234397;12538
234406;12277
234414;12074
234422;11909
234430;11903
234441;12058
234450;12265
234458;12427
234466;12718
234474;13088
234482;13506
234491;13844
234499;14182
234507;14414
234515;14565
234523;14639
234532;14646
234540;14628
234548;14690
234556;14663
234564;14634
234573;14541
234581;14554
234589;14515
234597;14529
234605;14505
234614;14531
234622;14546
234630;14563
234638;14558
234646;14554
234654;14542
234663;14546
234671;14549
234679;14587
234687;14579
234695;14601
234704;14600
234712;14497
234720;14337
234728;14164
234739;14086
234748;14158
234756;14104
234764;14073
234772;14076
234780;14105
234789;14165
234797;14183
234805;14125
234813;14078
234821;14016
234830;14001
234838;13967
234846;13897
234854;13815
234862;14068
234871;14256
234879;12090
234887;7854
234895;5235
234903;9214
234911;15850
234920;16005
234928;15363
234936;14700
234944;14493
234952;14266
234961;14011
234969;13964
234977;13865
234985;13800
234993;13794
235002;13778
235010;13721
235018;13692
235026;13603
235034;13489
235046;13369
235054;13223
235062;12929
235070;12678
235078;12424
235087;12174
235095;11985
235103;11888
235111;11958
235119;12054
235128;12168
235136;12357
235144;12715
235152;13125
235160;13520
235169;13876
235177;14155
235185;14355
235193;14475
235201;14580
235209;14625
235218;14663
235226;14617
235234;14575
235242;14521
235250;14485
235259;14441
235267;14383
235275;14313
235283;14322
235291;14307
235300;14293
235308;14296
235316;14304
235324;14213
235332;14117
235341;13950
235352;13868
235360;13931
235368;13944
235376;13991
235385;14098
235393;14314
235401;14547
235409;14695
235417;14750
235426;14777
235434;14798
235442;14841
235450;14841
235458;14814
235466;14803
235475;14729
235483;14679
235491;15216
235499;14296
235507;10867
235516;7292
235524;6701
235532;13963
235540;17086
235548;16475
235557;15782
235565;15247
235573;14988
235581;14695
235589;14448
235598;14321
235606;14157
235614;14049
235622;13959
235630;13946
235639;13841
235650;13767
235658;13696
235666;13523
235674;13303
235683;13087
235691;12797
235699;12544
235707;12273
235715;11980
235724;11751
235732;11750
235740;11769
235748;11930
235756;12114
235764;12412
235773;12849
235781;13306
235789;13643
235797;13959
235805;14183
235814;14330
235822;14408
235830;14451
235838;14444
235846;14400
235855;14340
235863;14284
235871;14193
235879;14150
235887;14068
235896;13977
235904;13935
235912;13864
235920;13818
235928;13809
235937;13793
235945;13842
235956;13940
235964;14043
235972;13960
235981;13962
235989;13844
235997;13726
236005;13606
236013;13607
236022;13585
236030;13609
236038;13677
236046;13743
236054;13845
236062;13927
236071;13901
236079;13919
236087;13865
236095;13804
236103;13747
236112;13729
236120;13730
236128;13637
236136;14255
236144;13153
236153;9402
236161;5261
236169;5307
236177;13193
236185;15720
236194;15236
236202;14604
236210;14269
236218;14059
236226;13742
236234;13590
236243;13505
236251;13453
236262;13407
236270;13378
236279;13311
236287;13218
236295;13095
236303;13002
236311;12951
236319;12825
236328;12662
236336;12465
236344;12222
236352;11967
236360;11756
236369;11643
236377;11631
236385;11703
236393;11819
236401;12001
236410;12329
236418;12791
236426;13191
236434;13601
236442;13910
236452;14127
236460;14231
236468;14306
236476;14304
236484;14301
236493;14274
236501;14263
236509;14177
236517;14115
236525;14000
236534;13944
236542;13864
236550;13859
236560;13904
236569;13984
236578;13935
236586;13871
236594;13859
236602;13791
236610;13778
236618;13777
236627;13757
236635;13772
236643;13753
236651;13708
236659;13607
236668;13481
236676;13334
236684;13343
236692;13368
236700;13402
236709;13430
236717;13511
236725;13602
236733;13729
236741;13765
236750;13813
236758;13739
236766;13729
236774;13701
236782;13695
236791;13585
236799;13548
236807;13835
236815;13965
236823;11652
236831;7316
236840;4395
236848;8498
236856;15223
236867;15478
236876;14867
236884;14589
236892;14351
236900;14101
236908;13940
236916;13886
236925;13821
236933;13789
236941;13703
236949;13621
236957;13562
236966;13537
236974;13448
236982;13400
236990;13245
236998;13100
237007;12869
237015;12609
237023;12332
237031;12129
237039;11937
237048;11934
237056;11954
237064;12038
237072;12101
237080;12352
237089;12690
237097;13125
237105;13474
237113;13821
237121;14030
237129;14229
237138;14309
237146;14380
237154;14354
237162;14329
237174;14373
237182;14386
237190;14322
237198;14243
237206;14156
237214;14123
237223;14028
237231;14012
237239;13987
237247;13997
237255;13922
237264;13943
237272;13891
237280;13922
237288;13927
237296;13982
237305;13938
237313;13957
237321;13881
237329;13770
237337;13552
237346;13494
237354;13508
237362;13531
237370;13529
237378;13588
237386;13692
237395;13833
237403;13911
237411;13927
237419;13922
237427;13905
237436;13878
237444;13891
237452;13863
237460;13783
237471;13880
237480;14481
237488;12627
237496;8359
237504;4609
237512;7080
237521;14874
237529;15735
237537;15068
237545;14545
237553;14389
237562;14119
237570;13925
237578;13809
237586;13752
237594;13705
237603;13653
237611;13554
237619;13518
237627;13433
237635;13375
237644;13315
237652;13202
237660;13046
237668;12887
237676;12685
237684;12497
237693;12252
237701;12031
237709;11904
237717;11901
237725;11961
237734;12109
237742;12285
237750;12644
237758;13039
237766;13459
237778;14038
237786;14340
237794;14531
237802;14633
237810;14674
237819;14727
237827;14707
237835;14669
237843;14668
237851;14661
237860;14627
237868;14611
237876;14554
237884;14562
237892;14519
237901;14525
237909;14523
237917;14510
237925;14481
237933;14532
237942;14526
237950;14556
237958;14513
237966;14555
237974;14525
237982;14582
237991;14464
237999;14380
238007;14291
238015;14284
238023;14259
238032;14248
238040;14301
238048;14342
238056;14423
238064;14437
238073;14414
238084;14484
238092;14488
238100;14422
238108;14376
238117;14303
238125;14238
238133;14226
238141;14889
238149;13601
238158;9690
238166;6401
238174;7198
238182;15090
238190;16662
238199;16029
238207;15326
238215;14966
238223;14757
238231;14513
238239;14326
238248;14226
238256;14121
238264;14074
238272;14001
238280;13933
238289;13844
238297;13786
238305;13700
238313;13575
238321;13411
238330;13257
238338;13054
238346;12805
238354;12545
238362;12330
238371;12150
238390;12588
238398;12737
238406;12845
238415;13080
238423;13390
238431;13796
238439;14138
238447;14429
238456;14591
238464;14679
238472;14715
238480;14716
238488;14706
238497;14713
238505;14635
238513;14593
238522;14527
238530;14474
238538;14355
238547;14293
238555;14227
238563;14179
238571;14089
238579;14119
238588;14108
238596;14117
238604;14075
238612;14107
238620;13990
238629;13892
238637;13835
238645;13852
238653;13842
238661;13928
238670;13997
238678;14097
238686;14183
238697;14262
238705;14304
238714;14255
238722;14161
238730;14147
238738;14118
238746;14070
238755;13964
238763;13879
238771;14354
238779;13795
238787;10735
238796;6903
238804;5720
238812;12219
238820;16483
238828;15978
238836;15261
238845;14629
238853;14344
238861;14053
238869;13790
238877;13665
238886;13592
238894;13482
238902;13386
238910;13320
238918;13262
238927;13180
238935;13093
238943;12975
238951;12848
238959;12665
238968;12465
238976;12192
238984;11963
238992;11743
239003;11639
239012;11651
239020;11671
239028;11847
239036;12060
239044;12334
239053;12720
239061;13128
239069;13487
239077;13803
239085;14047
239094;14159
239102;14215
239110;14218
239118;14211
239126;14181
239134;14178
239143;14141
239151;14084
239159;14014
239167;13948
239175;13895
239184;13865
239192;13865
239200;13867
239208;13866
239216;13859
239225;13854
239233;13830
239241;13786
239249;13828
239257;13841
239266;13795
239274;13782
239282;13687
239290;13525
239301;13529
239310;13530
239318;13526
239326;13515
239334;13546
239342;13576
239351;13646
239359;13643
239367;13677
239375;13671
239383;13654
239391;13641
239400;13632
239408;13589
239416;13563
239424;13620
239432;14155
239441;12448
239449;8300
239457;4389
239465;5979
239473;14060
239482;15662
239490;15153
239498;14637
239506;14464
239514;14239
239523;14015
239531;13865
239539;13743
239547;13682
239555;13631
239564;13620
239572;13565
239580;13560
239588;13434
239596;13351
239608;13229
239616;13148
239624;12957
239632;12745
239640;12471
239649;12280
239657;12085
239665;12038
239673;12009
239681;12057
239689;12169
239698;12409
239706;12727
239714;13145
239722;13521
239730;13829
239739;14072
239747;14303
239755;14416
239763;14487
239771;14503
239780;14505
239788;14433
239796;14414
239804;14345
239812;14312
239821;14232
239829;14175
239837;14110
239845;14043
239853;13967
239862;13947
239870;13925
239878;13932
239886;14018
239894;14051
239902;14097
239914;14211
239922;14292
239930;14330
239938;14328
239946;14245
239955;14118
239963;13922
239971;13766
239979;13745
239987;13753
239996;13723
240004;13726
240012;13747
240020;13767
240028;13840
240037;13821
240045;13786
240053;13775
240061;13748
240069;13688
240078;13678
240086;13635
240094;13527
240102;14134
