Tempo (ms);Valor
240136;5822
240144;13273
240153;16380
240162;15907
240170;15186
240178;14888
240186;14620
240194;14282
240202;14078
240211;13944
240219;13794
240227;13703
240235;13630
240243;13511
240252;13418
240260;13274
240268;13121
240276;12960
240284;12803
240293;12634
240301;12422
240309;12164
240317;11915
240325;11680
240334;11516
240342;11461
240350;11486
240358;11569
240366;11721
240375;11940
240383;12325
240391;12748
240399;13210
240407;13555
240415;13926
240424;14167
240435;14407
240443;14513
240451;14494
240460;14466
240468;14460
240476;14426
240484;14414
240492;14396
240500;14421
240509;14362
240517;14321
240525;14255
240533;14220
240541;14207
240550;14173
240558;14122
240566;14137
240574;14153
240582;14206
240591;14210
240599;14211
240607;14177
240615;14042
240623;13943
240632;13946
240640;13933
240648;13942
240656;13975
240664;14060
240673;14116
240681;14229
240689;14261
240697;14250
240705;14227
240713;14209
240722;14147
240733;14188
240741;14199
240749;14113
240758;14273
240766;14610
240774;12597
240782;8354
240790;5349
240798;8607
240807;15783
240815;16233
240823;15595
240831;15007
240839;14736
240848;14447
240856;14132
240864;13958
240872;13820
240880;13746
240889;13657
240897;13605
240905;13475
240913;13418
240921;13348
240930;13311
240938;13139
240946;12991
240954;12823
240962;12663
240970;12399
240979;12165
240987;11967
240995;11863
241003;11778
241011;11868
241020;11975
241028;12150
241039;12682
241047;13211
241055;13619
241064;14004
241072;14237
241080;14482
241088;14572
241096;14676
241105;14688
241113;14651
241121;14623
241129;14619
241137;14484
241146;14393
241154;14305
241162;14312
241170;14293
241178;14324
241187;14314
241195;14331
241203;14329
241211;14416
241219;14472
241228;14537
241236;14561
241244;14535
241252;14464
241260;14333
241268;14243
241277;14238
241285;14188
241293;14220
241301;14370
241309;14448
241318;14513
241326;14619
241334;14725
241345;14908
241353;14951
241362;14850
241370;14792
241378;14821
241386;14770
241394;14694
241403;14643
241411;15193
241419;13681
241427;9763
241435;6871
241444;8054
241452;15712
241460;16976
241468;16364
241476;15539
241485;14923
241493;14589
241501;14269
241509;14028
241517;13913
241526;13809
241534;13801
241542;13682
241550;13626
241558;13470
241566;13417
241575;13204
241583;13059
241591;12874
241599;12739
241607;12481
241616;12270
241624;11975
241632;11768
241640;11557
241651;11596
241660;11688
241668;11808
241676;12016
241684;12374
241692;12784
241701;13231
241709;13532
241717;13847
241725;14058
241733;14228
241742;14276
241750;14349
241758;14317
241766;14337
241774;14246
241783;14281
241791;14227
241799;14216
241807;14130
241815;14167
241823;14135
241832;14154
241840;14100
241848;14133
241856;14085
241864;14109
241873;14117
241881;14143
241889;14028
241897;14014
241905;13837
241914;13754
241922;13639
241930;13592
241938;13518
241949;13595
241958;13666
241966;13749
241974;13707
241982;13689
241990;13620
241999;13634
242007;13558
242015;13507
242023;13411
242031;13357
242040;13214
242048;13830
242056;13131
242064;9820
242072;5730
242081;4554
242089;11176
242097;15325
242105;15116
242113;14537
242121;13996
242130;13792
242138;13504
242146;13350
242154;13231
242162;13195
242171;13115
242179;13066
242187;12916
242195;12828
242203;12744
242212;12606
242220;12423
242228;12249
242236;12043
242244;11747
242256;11458
242264;11261
242272;11013
242280;10915
242288;10853
242297;10902
242305;11012
242313;11285
242321;11671
242329;12179
242338;12612
242346;13068
242354;13384
242362;13607
242370;13698
242378;13815
242387;13861
242395;13907
242403;13954
242411;14030
242419;14076
242429;14125
242437;14112
242445;14118
242453;14086
242461;14059
242470;14017
242478;13964
242486;13939
242494;13868
242502;13845
242511;13812
242519;13872
242527;13907
242535;13960
242543;13974
242552;13923
242563;13931
242571;13972
242579;13971
242587;13963
242596;14053
242604;14077
242612;14136
242620;14175
242628;14232
242637;14288
242645;14337
242653;14393
242661;14435
242669;14437
242678;14376
242686;14208
242694;14520
242702;14442
242710;11675
242718;6766
242727;4183
242735;8475
242743;15089
242751;15823
242759;15329
242768;15058
242776;14860
242784;14661
242792;14551
242800;14512
242809;14438
242817;14413
242825;14316
242833;14292
242841;14159
242850;14086
242861;13971
242869;13882
242877;13676
242885;13467
242894;13207
242902;12954
242910;12644
242918;12409
242926;12264
242935;12226
242943;12225
242951;12376
242959;12485
242967;12819
242975;13232
242984;13754
242992;14133
243000;14466
243008;14649
243016;14775
243025;14760
243033;14745
243041;14678
243049;14682
243057;14599
243066;14564
243074;14455
243082;14479
243090;14374
243098;14350
243107;14225
243115;14164
243123;14094
243131;14099
243139;14078
243148;14081
243156;13998
243167;14041
243175;14069
243183;14071
243192;13960
243200;13919
243208;13836
243216;13755
243224;13554
243233;13391
243241;13287
243249;13310
243257;13277
243265;13294
243273;13292
243282;13349
243290;13371
243298;13468
243306;13433
243314;13429
243323;13371
243331;13396
243339;13340
243347;13320
243355;13262
243364;13235
243372;13892
243380;13108
243388;9598
243396;5045
243405;4345
243413;11494
243421;15369
243429;15224
243437;14665
243446;14498
243454;14273
243462;14097
243473;14035
243481;14060
243490;13975
243498;13903
243506;13824
243514;13821
243522;13699
243530;13597
243539;13494
243547;13356
243555;13203
243563;13091
243571;12899
243580;12721
243588;12427
243596;12216
243604;12102
243612;12094
243621;12127
243629;12193
243637;12346
243645;12700
243653;13125
243662;13620
243670;14022
243678;14305
243686;14544
243694;14657
243703;14726
243711;14694
243719;14680
243727;14659
243735;14629
243743;14543
243752;14541
243760;14443
243771;14439
243779;14505
243788;14439
243796;14416
243804;14375
243812;14350
243820;14315
243828;14327
243837;14316
243845;14302
243853;14286
243861;14298
243869;14303
243878;14314
243886;14239
243894;14151
243902;13976
243910;13904
243919;13933
243927;13911
243935;13845
243943;13846
243951;13953
243960;14009
243968;14123
243976;14135
243984;14152
243992;14111
244001;14114
244009;14084
244017;14074
244025;13999
244033;13937
244041;14617
244050;13775
244058;10227
244066;6509
244077;8245
244086;15832
244094;16418
244102;15680
244110;14968
244118;14672
244126;14426
244135;14182
244143;14046
244151;13953
244159;13858
244167;13802
244176;13756
244184;13702
244192;13531
244200;13414
244208;13279
244217;13175
244225;13010
244233;12828
244241;12615
244249;12412
244258;12109
244266;11936
244274;11831
244282;11853
244290;11933
244298;12084
244307;12248
244315;12621
244323;13017
244331;13477
244340;13847
244349;14229
244357;14429
244365;14574
244373;14604
244383;14729
244392;14735
244400;14702
244408;14605
244416;14603
244424;14518
244433;14493
244441;14423
244449;14394
244457;14343
244466;14321
244475;14329
244483;14337
244491;14253
244499;14211
244507;13983
244516;13907
244524;13798
244532;13766
244540;13695
244548;13762
244557;13855
244565;13930
244573;14044
244581;14132
244589;14093
244598;14076
244606;14023
244614;14029
244622;14004
244630;14012
244638;13966
244647;13906
244655;13844
244663;14436
244671;13068
244682;8065
244691;5804
244699;9731
244707;16285
244715;16323
244723;15629
244732;15002
244740;14574
244748;14320
244756;13983
244764;13795
244773;13669
244781;13581
244789;13518
244797;13429
244805;13345
244814;13276
244822;13151
244830;13034
244838;12895
244846;12812
244855;12676
244863;12526
244871;12326
244879;12170
244887;12047
244895;11998
244904;12050
244912;12154
244920;12310
244928;12552
244936;12930
244945;13346
244953;13775
244961;14174
244969;14457
244977;14651
244989;14879
244997;15059
245005;15057
245013;15048
245021;15015
245030;15007
245038;14908
245046;14785
245054;14662
245062;14584
245071;14486
245079;14426
245087;14400
245095;14430
245103;14410
245112;14429
245120;14396
245128;14312
245136;14182
245144;14018
245153;13902
245161;13853
245169;13814
245177;13764
245185;13780
245193;13811
245202;13885
245210;13927
245218;13947
245226;13918
245234;13929
245243;13907
245251;13929
245259;13906
245267;13854
245275;13741
245287;14389
245295;13852
245303;10623
245311;6371
245319;5144
245328;12005
245336;15937
245344;15566
245352;14884
245360;14511
245369;14321
245377;14028
245385;13910
245393;13774
245401;13693
245410;13620
245418;13569
245426;13484
245434;13402
245442;13309
245450;13243
245459;13092
245467;12957
245475;12788
245483;12660
245491;12387
245500;12174
245508;11908
245516;11794
245524;11703
245532;11745
245541;11860
245549;12092
245557;12395
245565;12827
245573;13250
245582;13624
245593;14123
245601;14413
245609;14502
245617;14600
245626;14629
245634;14685
245642;14598
245650;14556
245658;14484
245667;14433
245675;14368
245683;14344
245691;14233
245699;14220
245708;14135
245716;14105
245724;14033
245732;14057
245740;14061
245748;14113
245757;14096
245765;14044
245773;13922
245781;13762
245789;13574
245798;13536
245806;13515
245814;13520
245822;13509
245830;13541
245839;13591
245847;13644
245855;13593
245863;13576
245871;13573
245880;13587
245888;13553
245899;13584
245907;13555
245915;13463
245924;14040
245932;13573
245940;10355
245948;5687
245956;4212
245965;10750
245973;15385
245981;15381
245989;14804
245997;14567
246006;14308
246014;14055
246022;13927
246030;13887
246038;13811
246046;13717
246055;13603
246063;13550
246071;13447
246079;13355
246087;13221
246096;13116
246104;13014
246112;12892
246120;12696
246128;12507
246137;12276
246145;12064
246153;11931
246161;11920
246169;11991
246178;12087
246186;12254
246197;12774
246205;13184
246213;13657
246222;13975
246230;14265
246238;14475
246246;14635
246254;14642
246263;14634
246271;14549
246279;14472
246287;14359
246295;14294
246303;14203
246312;14136
246320;14093
246328;14073
246336;14044
246344;14041
246353;14023
246361;14021
246370;13988
246378;13973
246386;13990
246395;14045
246403;14057
246411;14079
246419;14068
246427;13974
246436;13782
246444;13561
246452;13519
246460;13510
246468;13503
246477;13468
246485;13498
246493;13530
246504;13751
246512;13825
246521;13791
246529;13771
246537;13762
246545;13760
246553;13712
246562;13678
246570;13577
246578;14147
246586;13834
246594;10893
246602;6342
246611;4532
246619;10664
246627;15713
246635;15725
246643;15105
246652;14926
246660;14720
246668;14492
246676;14370
246684;14338
246693;14229
246701;14165
246709;14060
246717;14072
246725;13998
246734;13933
246742;13810
246750;13731
246758;13608
246766;13450
246775;13244
246783;13064
246791;12828
246799;12613
246810;12417
246819;12434
246827;12407
246835;12499
246843;12652
246851;12902
246860;13216
246868;13658
246876;14019
246884;14371
246892;14531
246900;14685
246909;14713
246917;14762
246925;14739
246933;14729
246941;14634
246950;14596
246958;14572
246966;14546
246974;14513
246982;14526
246991;14508
246999;14528
247007;14468
247015;14453
247023;14505
247032;14534
247040;14463
247048;14420
247056;14342
247064;14171
247073;13965
247081;13912
247089;13861
247097;13906
247108;14018
247117;14155
247125;14183
247133;14251
247141;14213
247149;14220
247158;14168
247166;14127
247174;14074
247182;14030
247190;14030
247198;14027
247207;13979
247215;14647
247223;13368
247231;9590
247239;6217
247248;6892
247256;14846
247264;16574
247272;15888
247280;15203
247289;14764
247297;14582
247305;14247
247313;14074
247321;13939
247330;13871
247338;13770
247346;13650
247354;13599
247362;13520
247370;13421
247379;13275
247387;13122
247395;12999
247403;12837
247415;12653
247423;12495
247431;12256
247439;12023
247447;11949
247455;11982
247464;12089
247472;12201
247480;12389
247488;12639
247496;13060
247505;13492
247513;13826
247521;14086
247529;14304
247537;14474
247546;14554
247554;14530
247562;14561
247570;14584
247578;14563
247587;14512
247595;14451
247603;14361
247611;14247
247619;14228
247628;14156
247636;14103
247644;14143
247652;14165
247660;14079
247668;14054
247677;13932
247685;13820
247693;13701
247701;13732
247709;13699
247721;13814
247729;13935
247737;13950
247745;14013
247753;14018
247762;13971
247770;13936
247778;13930
247786;13923
247794;13910
247803;13906
247811;13859
247819;13809
247827;14088
247835;14110
247844;11626
247852;7603
247860;5571
247868;10163
247876;16281
247885;16216
247893;15566
247901;14948
247909;14588
247917;14345
247926;14083
247934;13969
247942;13912
247950;13857
247958;13740
247966;13640
247975;13514
247983;13425
247991;13272
247999;13168
248007;13004
248019;12860
248027;12696
248035;12443
248043;12177
248051;11951
248060;11825
248068;11817
248076;11869
248084;12013
248092;12157
248101;12480
248109;12879
248117;13331
248125;13713
248133;14051
248142;14306
248150;14474
248158;14567
248166;14667
248174;14657
248183;14601
248191;14539
248199;14502
248207;14425
248215;14365
248223;14240
248232;14184
248240;14095
248248;14064
248256;14021
248264;14045
248273;14030
248281;14043
248289;14078
248297;14036
248305;13953
248314;13835
248325;13746
248333;13707
248341;13606
248349;13563
248358;13575
248366;13617
248374;13663
248382;13764
248390;13774
248399;13791
248407;13803
248415;13761
248423;13685
248431;13662
248440;13629
248448;13546
248456;13544
248464;14129
248472;12423
248481;8101
248489;4166
248497;5790
248506;13764
248514;15461
248522;15043
248531;14510
248539;14292
248547;13973
248555;13768
248563;13670
248572;13591
248580;13518
248588;13418
248596;13331
248604;13243
248613;13122
248621;13004
248632;12891
248640;12789
248648;12615
248657;12393
248665;12167
248673;11922
248681;11708
248689;11553
248698;11525
248706;11576
248714;11719
248722;11878
248730;12201
248739;12565
248747;13000
248755;13360
248763;13690
248771;13924
248780;14103
248788;14160
248796;14248
248804;14274
248812;14249
248820;14191
248829;14139
248837;14141
248845;14157
248853;14149
248861;14155
248870;14129
248878;14109
248886;14097
248894;14062
248902;14037
248911;14051
248919;14058
248930;14111
248938;14177
248946;14169
248955;14152
248963;14145
248971;14015
248979;13806
248987;13665
248996;13658
249004;13676
249012;13692
249020;13674
249028;13688
249037;13701
249045;13750
249053;13783
249061;13750
249069;13736
249078;13682
249086;13647
249094;13627
249102;13549
249110;13429
249118;13981
249127;13486
249135;10359
249143;5649
249151;4121
249159;10495
249168;15430
249176;15463
249184;14871
249192;14620
249200;14381
249209;14093
249217;14008
249225;13948
249236;13909
249244;13867
249253;13774
249261;13715
249269;13683
249277;13625
249285;13551
249294;13480
249302;13364
249310;13186
249318;12996
249326;12780
249335;12540
249343;12318
249351;12202
249359;12177
249367;12259
249375;12375
249384;12561
249392;12850
249400;13278
249408;13730
249416;14173
249425;14492
249433;14741
249441;14878
249449;14968
249457;14986
249466;15028
249474;14961
249482;14968
249490;14897
249498;14878
249507;14821
249515;14762
249523;14685
249531;14639
249542;14664
249551;14642
249559;14575
249567;14533
249575;14430
249583;14378
249592;14343
249600;14362
249608;14353
249616;14287
249624;14155
249633;13973
249641;13795
249649;13805
249657;13786
249665;13811
249673;13799
249682;13877
249690;13917
249698;14031
249706;14055
249714;14034
249723;14017
249731;14035
249739;14012
249747;14009
249755;13980
249764;13968
249772;14124
249780;14598
249788;12848
249796;8745
249805;5469
249813;8063
249821;15538
249829;16276
249840;15414
249849;15009
249857;14814
249865;14512
249873;14287
249881;14167
249890;14041
249898;13994
249906;13891
249914;13804
249922;13750
249930;13687
249939;13600
249947;13497
249955;13349
249963;13205
249971;13007
249980;12798
249988;12532
249996;12265
250004;12080
250012;11974
250021;11936
250029;11983
250037;12095
250045;12366
250053;12727
250062;13155
250070;13574
250078;13933
250086;14239
250094;14388
250103;14496
250111;14511
250119;14531
250127;14516
250135;14535
250147;14532
250155;14515
250163;14426
250171;14352
250179;14345
250188;14316
250196;14334
250204;14310
250212;14337
250220;14359
250228;14382
250237;14341
250245;14268
250253;14076
250261;13885
250269;13803
250278;13755
250286;13776
250294;13821
250302;13923
250310;13996
250319;14042
250327;14060
250335;14032
250343;14034
250351;14021
250360;14008
250368;13974
250376;13923
250384;13869
250392;13782
250401;14357
250409;13599
250417;10384
250425;6959
250433;6454
250441;13668
250453;16713
250461;16039
250469;15320
250477;14784
250486;14501
250494;14233
250502;14096
250510;13969
250518;13900
250526;13851
250535;13723
250543;13605
250551;13465
250559;13341
250567;13194
250576;13019
250584;12832
250592;12606
250600;12369
250608;12054
250617;11786
250625;11599
250633;11467
250641;11453
250649;11607
250658;11803
250666;12116
250674;12454
250682;12861
250690;13349
250698;13765
250707;14036
250715;14219
250723;14318
250731;14391
250739;14404
250751;14487
250759;14531
250767;14480
250775;14420
250783;14411
250792;14361
250800;14331
250808;14304
250816;14274
250824;14231
250833;14187
250841;14192
250849;14244
250857;14173
250865;14119
250874;13912
250882;13757
250890;13678
250898;13682
250906;13663
250915;13688
250923;13687
250931;13721
250939;13798
250947;13850
250956;13873
250964;13885
250972;13845
250980;13836
250989;13833
250998;13772
251006;13704
251014;13660
251022;14362
251030;13235
251038;9538
251047;5900
251057;8641
251065;15802
251073;16164
251081;15541
251090;14930
251098;14659
251107;14339
251115;14074
251123;13920
251132;13779
251140;13668
251148;13582
251156;13500
251164;13432
251173;13342
251181;13310
251189;13266
251197;13180
251205;12986
251214;12806
251222;12575
251230;12346
251238;12087
251246;11874
251255;11770
251263;11803
251271;11882
251279;12052
251287;12332
251295;12713
251304;13121
251312;13568
251320;13896
251328;14172
251336;14344
251345;14404
251353;14487
251364;14564
251372;14581
251380;14523
251389;14416
251397;14397
251405;14342
251413;14291
251421;14256
251430;14195
251438;14155
251446;14156
251454;14129
251462;14158
251471;14148
251479;14126
251487;14057
251495;14010
251503;13851
251512;13762
251520;13685
251528;13648
251536;13618
251544;13627
251553;13726
251561;13810
251569;13864
251577;13914
251585;13914
251593;13857
251602;13798
251610;13745
251618;13668
251626;13538
251634;13379
251643;13820
251651;13737
251662;9382
251670;4855
251678;4514
251687;12313
251695;15413
251703;15102
251711;14491
251719;14235
251728;13983
251736;13740
251744;13618
251752;13531
251760;13428
251769;13378
251777;13298
251785;13232
251793;13182
251801;13111
251810;13035
251818;12984
251826;12864
251834;12787
251842;12610
251850;12439
251859;12173
251867;11938
251875;11800
251883;11818
251891;11873
251900;12014
251908;12223
251916;12568
251924;12983
251932;13410
251941;13794
251949;14103
251957;14313
251968;14585
251976;14735
251985;14743
251993;14687
252001;14636
252009;14545
252017;14527
252026;14461
252034;14418
252042;14353
252050;14338
252058;14307
252067;14329
252075;14312
252083;14353
252091;14386
252099;14473
252108;14441
252116;14447
252124;14363
252132;14225
252140;14096
252148;14049
252157;14031
252165;14036
252173;14072
252181;14156
252189;14296
252198;14409
252206;14462
252214;14478
252222;14488
252230;14467
252239;14402
252247;14392
252255;14302
252263;14200
252274;14650
252283;14435
252291;11385
252299;6547
252307;4319
252315;10211
252324;15650
252332;15773
252340;15167
252348;14911
252356;14713
252365;14440
252373;14285
252381;14157
252389;14004
252397;13915
252406;13836
252414;13802
252422;13680
252430;13616
252438;13512
252446;13425
252455;13270
252463;13137
252471;12934
252479;12695
252487;12404
252496;12161
252504;11987
252512;11965
252520;12022
252528;12160
252537;12302
252545;12571
252553;12941
252561;13375
252572;13938
252581;14339
252589;14559
252597;14661
252605;14713
252613;14755
252622;14743
252630;14706
252638;14674
252646;14675
252654;14654
252663;14608
252671;14528
252679;14487
252687;14417
252695;14428
252703;14416
252712;14416
252720;14414
252728;14443
252736;14439
252744;14367
252753;14344
252761;14166
252769;14023
252777;13955
252785;13938
252794;13860
252802;13892
252810;13978
252818;14066
252826;14143
252835;14169
252843;14171
252851;14201
252859;14161
252867;14107
252879;14094
252887;14048
252895;13950
252903;13888
252911;14491
252920;13142
252928;9252
252936;5957
252944;6758
252952;14684
252961;16273
252969;15711
252977;15071
252985;14647
252993;14437
253001;14177
253010;14019
253018;13898
253026;13777
253034;13715
253042;13622
253051;13597
253059;13505
253067;13417
253075;13261
253083;13169
253092;13041
253100;12839
253108;12627
253116;12362
253124;12036
253133;11859
253142;11754
253150;11764
253158;11862
253166;11988
253175;12187
253185;12716
253193;13181
253201;13592
253209;13882
253218;14156
253226;14347
253234;14475
253242;14468
253250;14537
253258;14532
253267;14501
253276;14425
253284;14391
253292;14323
253300;14284
253309;14214
253317;14163
253325;14133
253333;14161
253341;14136
253350;14164
253358;14193
253366;14233
253374;14225
253382;14203
253391;14100
253399;13982
253407;13853
253415;13861
253423;13794
253432;13796
253440;13856
253448;13887
253456;13964
253464;14031
253473;13997
253484;13984
253492;14013
253500;13947
253508;13848
253517;13820
253525;13770
253533;13666
253541;14033
253549;13936
253558;11359
253566;7378
253574;5403
253582;10584
253590;16228
253598;16042
253607;15403
253615;14775
253623;14495
253631;14276
253639;14044
253648;13965
253656;13892
253664;13834
253672;13780
253680;13708
253689;13648
253697;13548
253705;13442
253713;13358
253721;13211
253730;13017
253738;12821
253746;12617
253754;12367
253762;12147
253770;11994
253779;11946
253790;12114
253798;12290
253806;12451
253815;12738
253823;13098
253831;13461
253839;13808
253847;14115
253855;14321
253864;14431
253872;14440
253880;14448
253888;14402
253896;14377
253905;14309
253913;14245
253921;14185
253929;14096
253937;13993
253946;13954
253954;13937
253962;13851
253970;13773
253978;13754
253987;13736
253995;13763
254003;13795
254011;13811
254019;13762
254028;13730
254036;13650
254044;13545
254052;13472
254060;13473
254068;13479
254077;13495
254088;13630
254096;13714
254104;13793
254113;13860
254121;13834
254129;13756
254137;13701
254145;13648
254153;13612
254162;13572
254170;13520
254178;13486
254186;14249
254194;13142
254203;9287
254211;5112
254219;5242
254227;13038
254235;15734
254244;15385
254252;14800
254260;14522
254268;14298
254276;14019
254285;13890
254293;13775
254301;13697
254309;13617
254317;13583
254326;13507
254334;13460
254342;13382
254350;13299
254358;13171
254366;13044
254375;12872
254383;12715
254394;12489
254402;12298
254410;12135
254419;12061
254427;12076
254435;12180
254443;12349
254451;12614
254460;12954
254468;13369
254476;13760
254484;14131
254492;14413
254501;14609
254509;14725
254517;14786
254525;14743
254533;14741
254542;14680
254550;14647
254558;14628
254566;14585
254574;14491
254583;14450
254591;14384
254599;14367
254607;14305
254615;14257
254623;14197
254632;14168
254640;14132
254648;14098
254656;14078
254664;14059
254673;14013
254681;13978
254689;13824
254700;13690
254708;13672
254717;13637
254725;13607
254733;13659
254741;13659
254749;13734
254758;13795
254766;13857
254774;13844
254782;13826
254790;13800
254799;13801
254807;13766
254815;13696
254823;13658
254831;13687
254840;14489
254848;13182
254856;9125
254864;4770
254872;5253
254881;13218
254889;15726
254897;15396
254905;14861
254913;14664
254921;14378
254930;14161
254938;14047
254946;13968
254954;13895
254962;13823
254971;13745
254979;13695
254987;13589
254995;13516
255006;13419
255015;13327
255023;13117
255031;12890
255039;12623
255047;12350
255056;12058
255064;11847
255072;11722
255080;11709
255088;11776
255097;11904
255105;12140
255113;12520
255121;12935
255129;13393
255138;13753
255147;14015
255155;14159
255163;14268
255171;14308
255180;14327
255188;14321
255196;14298
255204;14261
255212;14218
255220;14172
255229;14076
255237;14037
255245;14017
255253;13997
255261;13944
255270;13913
255278;13881
255286;13882
255294;13903
255305;13983
255314;14056
255322;14037
255330;14039
255338;14055
255346;14110
255355;14042
255363;13974
255371;13819
255379;13723
255387;13688
255396;13705
255404;13667
255412;13689
255420;13732
255428;13784
255437;13894
255445;13877
255453;13822
255461;13771
255469;13793
255478;13740
255486;13666
255494;13567
255502;13458
255510;14120
255518;13454
255527;10086
255535;5597
255543;4470
255551;11324
255559;15521
255568;15500
255576;14956
255584;14745
255592;14523
255600;14299
255612;14231
255620;14252
255628;14145
255636;14072
255644;13956
255653;13890
255661;13764
255669;13688
255677;13541
255685;13412
255694;13203
255702;13003
255710;12740
255718;12469
255726;12179
255735;11992
255743;11821
255751;11787
255759;11889
255767;12027
255775;12181
255784;12495
255792;12887
255800;13304
255808;13686
255816;14028
255825;14264
255833;14446
255841;14486
255849;14542
255857;14564
255866;14536
255874;14540
255882;14541
255890;14485
255898;14474
255910;14493
255918;14505
255926;14429
255934;14389
255942;14359
255951;14330
255959;14315
255967;14303
255975;14277
255983;14215
255992;14157
256000;14159
256008;14148
256016;14161
256024;14210
256033;14168
256041;14038
256049;13851
256057;13762
256065;13759
256073;13764
256082;13770
256090;13748
256098;13832
256106;13886
256114;13972
256123;13993
256131;13939
256139;13964
256147;14030
256155;14011
256164;13975
256172;13932
256180;13904
256188;14557
256196;13855
256205;10555
256216;5986
256224;7558
256232;15328
256240;16459
256249;15871
256257;15226
256265;14888
256273;14657
256281;14436
256290;14273
256298;14152
256306;14075
256314;14024
256322;13926
256330;13875
256339;13740
256347;13636
256355;13493
256363;13328
256371;13129
256380;12932
256388;12703
256396;12483
256404;12239
256412;12041
256421;11946
256429;11942
256437;12010
256445;12162
256453;12387
256462;12704
256470;13066
256478;13520
256486;13936
256494;14256
256503;14494
256511;14631
256522;14825
256530;14888
256538;14852
256547;14789
256555;14708
256563;14670
256571;14627
256579;14537
256588;14524
256596;14448
256604;14400
256612;14391
256620;14371
256628;14354
256637;14374
256645;14339
256653;14287
256661;14233
256669;14117
256678;13973
256686;13890
256694;13837
256702;13798
256710;13801
256719;13835
256727;13886
256735;13935
256743;13983
256751;14009
256760;13986
256768;13999
256776;13988
256784;13930
256792;13894
256801;13892
256809;13837
256820;13973
256828;14481
256836;12567
256845;8423
256853;5392
256861;7962
256869;15485
256877;16099
256886;15449
256894;14751
256902;14393
256910;14064
256918;13775
256926;13634
256935;13512
256943;13414
256951;13367
256959;13241
256967;13216
256976;13151
256984;13057
256992;12949
257000;12830
257008;12706
257017;12545
257025;12289
257033;12064
257041;11822
257050;11603
257059;11501
257067;11519
257075;11621
257083;11803
257091;12086
257100;12441
257108;12866
257116;13349
257126;13996
257134;14283
257143;14402
257151;14486
257159;14535
257168;14512
257176;14455
257185;14406
257193;14389
257201;14324
257209;14250
257217;14160
257225;14023
257234;13958
257242;13906
257250;13874
257258;13819
257266;13790
257275;13762
257283;13759
257291;13787
257299;13793
257307;13781
257316;13772
257324;13764
257332;13811
257340;13822
257348;13861
257357;13868
257365;13794
257373;13630
257381;13500
257389;13480
257398;13493
257406;13506
257414;13534
257422;13587
257433;13774
257442;13917
257450;13935
257458;13901
257466;13898
257474;13882
257482;13852
257491;13780
257499;13705
257507;13897
257515;14279
257523;12210
257532;7866
257540;4522
257548;7190
257556;14730
257564;15786
257573;15277
257581;14793
257589;14561
257597;14259
257605;14048
257614;13891
257622;13753
257630;13692
257638;13624
257646;13599
257655;13535
257663;13460
257671;13353
257679;13212
257687;13061
257695;12910
257704;12746
257712;12518
257720;12275
257731;11985
257740;11814
257748;11705
257756;11663
257764;11678
257772;11820
257780;12066
257789;12434
257797;12842
257805;13284
257813;13680
257821;13981
257830;14161
257838;14273
257846;14344
257854;14347
257862;14335
257871;14327
257879;14272
257887;14215
257895;14145
257903;14115
257912;14112
257920;14148
257928;14200
257936;14250
257944;14238
257953;14268
257961;14264
257969;14300
257977;14274
257985;14266
257993;14197
258002;14164
258010;14133
258018;14129
258026;14116
258038;14097
258046;14077
258054;13878
258062;13765
258070;13745
258078;13726
258087;13728
258095;13793
258103;13888
258111;13998
258119;14046
258128;14022
258136;13949
258144;13882
258152;13852
258160;13838
258169;13791
258177;13737
258185;13723
258193;14419
258201;13143
258210;9195
258218;5022
258226;5653
258234;13660
258242;15923
258250;15431
258259;14864
258267;14671
258275;14394
258283;14158
258291;14061
258300;13950
258308;13843
258316;13759
258324;13656
258332;13597
258344;13577
258352;13576
258360;13450
258368;13308
258376;13124
258385;12919
258393;12707
258401;12466
258409;12248
258417;12066
258426;11955
258434;12030
258442;12147
258450;12308
258458;12489
258467;12879
258475;13279
258483;13751
258491;14127
258499;14446
258508;14665
258516;14746
258524;14740
258532;14754
258540;14751
258548;14697
258557;14664
258565;14628
258573;14596
258581;14533
258589;14467
258598;14425
258606;14373
258614;14273
258622;14203
258630;14163
258642;14232
258650;14301
258658;14265
258666;14228
258674;14216
258683;14168
258691;14119
258699;13993
258707;13764
258715;13598
258724;13561
258732;13496
258740;13497
258748;13621
258756;13736
258765;13826
258773;13886
258781;13904
258789;13913
258797;13929
258806;13932
258814;13931
258822;13929
258830;13898
258838;13781
258846;14353
258855;13955
258863;10986
258871;6852
258879;5253
258887;11957
258896;16299
258904;15933
258912;15221
258920;14667
258928;14389
258937;14095
258948;13935
258956;13858
258964;13687
258972;13563
258981;13459
258989;13359
258997;13227
259005;13114
259013;13046
259022;12973
259030;12885
259038;12715
259046;12510
259054;12304
259063;12005
259071;11818
259079;11698
259087;11692
259095;11753
259103;11863
259112;12094
259120;12371
259128;12779
259136;13213
259144;13592
259153;13946
259161;14197
259169;14370
259177;14526
259185;14643
259194;14657
259202;14643
259210;14595
259218;14559
259226;14608
259235;14724
259243;14803
259254;14934
259262;15027
259270;14996
259279;15006
259287;15074
259295;15115
259303;15053
259311;15018
259320;14918
259328;14776
259336;14662
259344;14564
259352;14491
259361;14480
259369;14506
259377;14486
259385;14526
259393;14569
259401;14532
259410;14483
259418;14494
259427;14451
259435;14386
259443;14354
259452;14310
259460;14172
259468;14171
259476;14636
259484;12907
259493;8749
259501;5593
259509;7556
259517;15322
259525;16279
259534;15647
259542;14955
259561;14609
259569;14325
259578;14085
259586;13948
259594;13766
259602;13593
259610;13453
259619;13296
259627;13181
259635;13069
259643;12912
259651;12760
259660;12559
259668;12372
259676;12194
259684;11992
259692;11829
259700;11727
259709;11686
259717;11763
259725;11914
259733;12121
259741;12411
259750;12835
259758;13297
259766;13724
259774;14125
259782;14403
259791;14558
259799;14653
259807;14696
259815;14730
259823;14661
259832;14570
259840;14474
259848;14384
259856;14324
259867;14339
259876;14285
259884;14131
259892;14046
259900;13985
259908;13942
259917;13939
259925;13881
259933;13864
259941;13827
259949;13830
259958;13812
259966;13772
259974;13670
259982;13555
259990;13454
259998;13350
260007;13306
260015;13324
260023;13368
260031;13432
260039;13512
260048;13611
260056;13631
260064;13595
260072;13575
260080;13588
260089;13590
260097;13596
260105;13564
260113;13515
260121;13658
260130;14138
260138;12342
260146;8050
260154;4384
260162;6901
260174;15478
260182;15625
260190;14985
260198;14617
260206;14410
260215;14160
260223;14054
260231;13926
260239;13811
260247;13702
260255;13603
260264;13496
260272;13393
260280;13298
260288;13197
260296;13073
260305;12969
260313;12844
260321;12695
260329;12509
260337;12265
260346;12051
260354;11917
260362;11855
260370;11866
260378;11973
260387;12133
260395;12323
260403;12631
260411;12984
260419;13344
260428;13666
260436;13934
260444;14120
260452;14219
260460;14264
260472;14385
260480;14455
260488;14411
260496;14417
260504;14387
260513;14332
260521;14301
260529;14293
260537;14271
260545;14265
260553;14278
260562;14263
260570;14290
260578;14262
260586;14208
260594;14174
260603;14151
260611;14136
260619;14122
260627;14050
260635;13892
260644;13774
260652;13732
260660;13729
260668;13724
260676;13731
260685;13769
260693;13849
260701;13898
260709;13864
260717;13832
260726;13791
260734;13753
260742;13720
260750;13713
260758;13649
260766;13553
260778;14333
260786;13339
260794;9534
260802;5166
260810;5256
260819;13087
260827;15594
260835;15146
260843;14562
260851;14394
260860;14127
260868;13921
260876;13827
260884;13733
260892;13673
260901;13609
260909;13529
260917;13500
260925;13394
260933;13331
260942;13242
260950;13142
260958;13001
260966;12879
260974;12681
260983;12485
260991;12250
260999;12098
261007;12012
261015;11977
261023;12028
261032;12127
261040;12250
261048;12523
261056;12919
261064;13376
261073;13781
261084;14274
261092;14557
261100;14701
261108;14712
261117;14693
261125;14578
261133;14516
261141;14403
261149;14313
261158;14232
261166;14175
261174;14081
261182;14028
261190;13970
261199;13973
261207;13974
261215;14010
261223;14012
261231;14004
261240;13977
261248;13997
261256;14038
261264;14019
261272;14005
261281;13886
261289;13731
261297;13656
261305;13666
261313;13662
261321;13756
261330;13857
261338;13930
261346;14086
261354;14108
261362;14143
261371;14089
261382;14108
261390;14154
261398;14080
261406;13986
261415;13894
261423;14103
261431;14322
261439;12084
261447;7743
261456;4622
261464;8853
261472;15500
261480;15672
261488;14980
261497;14537
261505;14352
261513;14026
261521;13851
261529;13727
261538;13601
261546;13544
261554;13448
261562;13383
261570;13299
261578;13234
261587;13155
261595;13042
261603;12900
261611;12760
261619;12652
261628;12450
261636;12195
261644;11945
261652;11798
261660;11765
261669;11811
261677;11902
261688;12226
261696;12538
261704;12813
261713;13207
261721;13559
261729;13894
261737;14156
261745;14314
261754;14409
261762;14414
261770;14427
261778;14397
261786;14330
261795;14229
261803;14176
261811;14122
261819;14029
261828;13982
261837;13972
261845;13967
261853;13996
261861;14032
261869;14056
261878;14109
261886;14136
261894;14168
261902;14171
261910;14156
261918;14089
261927;13916
261935;13807
261943;13760
261951;13746
261959;13768
261968;13880
261976;13990
261984;14157
261995;14358
262003;14457
262012;14420
262020;14397
262028;14373
262036;14358
262044;14322
262053;14293
262061;14261
262069;14961
262077;13816
262085;10033
262094;6238
262102;6855
262110;14987
262118;16629
262126;15858
262135;15173
262143;14802
262151;14586
262159;14247
262167;14056
262175;13923
262184;13846
262192;13764
262200;13715
262208;13634
262216;13576
262225;13497
262233;13382
262241;13267
262249;13103
262257;12904
262266;12715
262274;12457
262282;12213
262293;12086
262301;12076
262310;12091
262318;12221
262326;12341
262334;12564
262342;12819
262351;13238
262359;13676
262367;14061
262375;14279
262383;14470
262392;14596
262400;14657
262408;14700
262416;14715
262424;14691
262433;14662
262441;14610
262449;14559
262457;14523
262465;14496
262473;14500
262482;14505
262490;14485
262498;14497
262506;14450
262514;14462
262523;14390
262531;14255
262539;14206
262547;14190
262555;14160
262564;14154
262572;14164
262580;14269
262588;14363
262599;14485
262608;14591
262616;14591
262624;14578
262632;14519
262640;14482
262649;14462
262657;14392
262665;14278
262673;14391
262681;14456
262690;12164
262698;8135
262706;6129
262714;10132
262722;16485
262730;16325
262739;15560
262747;14878
262755;14521
262763;14333
262771;14028
262780;13875
262788;13782
262796;13710
262804;13665
262812;13598
262821;13473
262829;13403
262837;13251
262845;13108
262853;12898
262862;12758
262870;12569
262878;12296
262886;12061
262894;11828
262906;11648
262914;11723
262922;11789
262930;11927
262938;12117
262947;12381
262955;12779
262963;13198
262971;13565
262979;13861
262988;14097
262996;14238
263004;14313
263012;14358
263020;14348
263028;14312
263037;14249
263045;14162
263053;14059
263061;13954
263069;13900
263078;13860
263086;13833
263094;13840
263102;13853
263110;13881
263119;13863
263127;13862
263135;13736
263143;13608
263151;13561
263160;13569
263168;13533
263176;13571
263184;13689
263192;13798
263204;14002
263212;14080
263220;14056
263228;14004
263236;13978
263245;13916
263253;13845
263261;13797
263269;13715
263277;13621
263286;14279
263294;13222
263302;9575
263310;5585
263318;5694
263326;13640
263335;15973
263343;15432
263351;14812
263359;14574
263367;14372
263376;14096
263384;13944
263392;13869
263400;13793
263408;13700
263417;13633
263425;13577
263433;13474
263441;13325
263449;13191
263458;13036
263466;12912
263474;12760
263482;12564
263490;12328
263498;12137
263510;12029
263518;12081
263526;12191
263534;12360
263543;12596
263551;12848
263559;13148
263567;13563
263575;13956
263583;14304
263592;14552
263600;14700
263608;14791
263616;14808
263624;14771
263633;14722
263641;14654
263649;14569
263657;14507
263665;14459
263674;14370
263682;14269
263690;14201
263698;14157
263706;14106
263715;14072
263723;14035
263731;14003
263739;13884
263747;13884
263756;13714
263764;13532
263772;13443
263780;13425
263788;13433
263796;13456
263805;13539
263816;13690
263824;13830
263832;13851
263841;13802
263849;13758
263857;13684
263865;13642
263873;13577
263881;13554
263890;13476
263898;13421
263906;14163
263914;13050
263922;9178
263931;4682
263939;4807
263947;12912
263955;15378
263963;14979
263972;14428
263980;14272
263988;14081
263996;13874
264004;13752
264013;13698
264021;13650
264029;13597
264037;13585
264045;13569
264054;13497
264062;13457
264070;13385
264078;13306
264086;13210
264094;13059
264103;12887
264114;12656
264122;12504
264130;12281
264138;12165
264147;12192
264155;12266
264163;12401
264171;12652
264179;13040
264188;13492
264196;13925
264204;14264
264212;14479
264220;14606
264229;14705
264237;14744
264245;14725
264253;14676
264261;14650
264270;14598
264278;14542
264286;14510
264295;14465
264303;14395
264312;14298
264320;14201
264328;14168
264336;14153
264344;14156
264353;14153
264361;14184
264369;14214
264377;14215
264385;14214
264393;14163
264402;14088
264410;13893
264421;13771
264429;13843
264438;13849
264446;13865
264454;13868
264462;13868
264470;13923
264478;14043
264487;14060
264495;14050
264503;14018
264511;14038
264519;13991
264528;13935
264536;13848
264544;13710
264552;14108
264560;14120
264569;11597
264577;7025
264585;4341
264593;9220
264601;15395
264610;15563
264618;14967
264626;14572
264634;14411
264642;14117
264650;13963
264659;13864
264667;13736
264675;13644
264683;13546
264691;13479
264700;13429
264708;13337
264716;13218
264727;13138
264735;13049
264744;12846
264752;12619
264760;12364
264768;12149
264776;11919
264785;11793
264793;11782
264801;11842
264809;11988
264817;12173
264826;12422
264834;12859
264842;13268
264850;13609
264858;13892
264867;14098
264875;14222
264883;14330
264891;14364
264899;14386
264908;14331
264916;14297
264924;14236
264932;14205
264940;14164
264948;14206
264957;14170
264965;14259
264973;14261
264981;14319
264989;14272
264998;14297
265006;14232
265014;14294
265025;14337
265033;14502
265042;14456
265050;14438
265058;14238
265066;14134
265074;13912
265083;13944
265091;13907
265099;13943
265107;13890
265115;14030
265124;14048
265132;14205
265140;14208
265148;14311
265156;14263
265165;14345
265173;14271
265181;14334
265189;14237
265197;14251
265206;14145
265214;15009
265222;13865
265230;10211
265238;6027
265246;6197
265255;13967
265263;16281
265271;15711
265279;15104
265287;14827
265296;14716
265304;14415
265312;14418
265320;14325
265331;14189
265340;14074
265348;14165
265356;14047
265364;14127
265372;13894
265381;13877
265389;13621
265397;13559
265405;13336
265413;13263
265422;12907
265430;12742
265438;12415
265446;12434
265454;12348
265463;12566
265471;12629
265479;12839
265487;13060
265495;13513
265503;13830
265512;14222
265520;14476
265528;14775
265536;14824
265544;14799
265553;14810
265561;14804
265569;14647
265577;14624
265585;14631
265594;14523
265602;14440
265610;14423
265618;14429
265626;14418
265638;14438
265646;14602
265654;14583
265662;14640
265670;14551
265679;14540
265687;14347
265695;14235
265703;14135
265711;14177
265720;14094
265728;14066
265736;14128
265744;14143
265752;14196
265761;14242
265769;14253
265777;14238
265785;14190
265793;14021
265801;13977
265810;13947
265818;13910
265826;13794
265834;13677
265842;14070
265851;13459
265859;10425
265867;6930
265875;6110
265883;12546
265892;16343
265900;15764
265908;14984
265916;14301
265924;13990
265936;13820
265944;13640
265952;13519
265960;13410
265968;13311
265977;13246
265985;13152
265993;13064
266001;12902
266009;12718
266018;12584
266026;12401
266034;12198
266042;11973
266050;11769
266058;11493
266067;11371
266075;11281
266083;11354
266091;11399
266099;11572
266108;11808
266116;12190
266124;12562
266132;13001
266140;13339
266149;13695
266157;13903
266165;14055
266173;14178
266181;14289
266190;14312
266198;14324
266206;14275
266214;14278
266222;14197
266231;14161
266242;14122
266250;14167
266258;14053
266266;13972
266275;13897
266283;13910
266291;13903
266299;13913
266307;13829
266316;13865
266324;13714
266332;13636
266340;13531
266348;13561
266356;13542
266365;13594
266373;13630
266381;13788
266389;13911
266397;14044
266406;13998
266414;14001
266422;13954
266430;13976
266438;13898
266447;13918
266455;13872
266463;13821
266471;14138
266479;14098
266488;11530
266496;7615
266504;5828
266512;11020
266520;16377
266529;16147
266537;15388
266548;14671
266556;14526
266564;14233
266573;13948
266581;13827
266589;13722
266597;13631
266605;13511
266614;13489
266622;13348
266630;13244
266638;13134
266646;13018
266654;12899
266663;12782
266671;12501
266679;12316
266687;12047
266695;11910
266704;11821
266712;11880
266720;11946
266728;12052
266736;12184
266745;12523
266753;12894
266762;13294
266770;13676
266778;13994
266787;14174
266795;14272
266803;14364
266811;14390
266819;14341
266828;14367
266836;14376
266846;14365
266855;14332
266863;14304
266872;14203
266880;14167
266888;14100
266896;14102
266904;13990
266913;13956
266921;13884
266929;13924
266937;13896
266945;13926
266953;13943
266962;13987
266970;13933
266978;13943
266986;13863
266994;13774
267003;13693
267011;13665
267019;13582
267027;13596
267035;13643
267044;13692
267052;13813
267060;13889
267068;13907
267076;13858
267085;13785
267093;13744
267101;13710
267109;13619
267117;13562
267126;13503
267134;14134
267142;12883
267153;7698
267161;4972
267170;8302
267178;15308
267186;15729
267194;15092
267202;14513
267210;14308
267219;14037
267227;13814
267235;13710
267243;13636
267251;13574
267260;13552
267268;13553
267276;13495
267284;13467
267292;13394
267301;13260
267309;13067
267317;12954
267325;12763
267333;12590
267342;12324
267350;12114
267358;11909
267366;11850
267374;11860
267383;12003
267391;12132
267399;12401
267407;12671
267415;13099
267423;13476
267432;13880
267440;14161
267448;14428
267459;14594
267468;14690
267476;14629
267484;14614
267492;14563
267500;14503
267508;14427
267517;14412
267525;14303
267533;14246
267541;14147
267549;14107
267558;14058
267566;14069
267574;14031
267582;14047
267590;14039
267599;14018
267607;13988
267615;14044
267623;14019
267631;14041
267640;13984
267648;13987
267656;13991
267664;13980
267672;13876
267681;13754
267689;13582
267697;13605
267705;13611
267713;13666
267721;13694
267730;13780
267738;13839
267746;14002
267757;14056
267766;14132
267774;14019
267782;14043
267790;14002
267798;14015
267806;13909
267815;13828
267823;14197
267831;14056
267839;11523
267847;7174
267856;4922
267864;9781
267872;15554
267880;15654
267888;14886
267897;14485
267905;14316
267913;14057
267921;13849
267929;13809
267938;13688
267946;13671
267954;13545
267962;13512
267970;13434
267978;13380
267987;13303
267995;13204
268003;13034
268011;12915
268019;12801
268028;12638
268036;12381
268044;12160
268052;11975
268063;11953
268072;12040
268080;12165
268088;12217
268096;12469
268104;12781
268113;13243
268121;13634
268129;14028
268137;14280
268145;14476
268154;14532
268162;14566
268170;14563
268178;14516
268186;14412
268195;14349
268203;14304
268211;14279
268219;14247
268227;14242
268236;14141
268244;14082
268252;14046
268260;14034
268268;13980
268276;13928
268285;13838
268293;13859
268301;13854
268309;13819
268317;13832
268326;13808
268334;13830
268342;13801
268350;13837
268361;13911
268370;13931
268378;13805
268386;13659
268394;13478
268402;13404
268411;13407
268419;13447
268427;13468
268435;13461
268443;13527
268452;13657
268460;13747
268468;13814
268476;13834
268484;13870
268493;13905
268501;13916
268509;13904
268517;13900
268525;13826
268534;14474
268542;13716
268550;10537
268558;6316
268566;5563
268574;12490
268583;16099
268591;15727
268599;15072
268607;14748
268615;14616
268624;14300
268632;14163
268640;14063
268648;14020
268656;13892
268668;13915
268676;13950
268684;13938
268692;13842
268700;13726
268709;13524
268717;13325
268725;13056
268733;12820
268741;12558
268750;12362
268758;12139
268766;12043
268774;11969
268782;12037
268791;12060
268799;12250
268807;12504
268815;12933
268823;13361
268831;13855
268840;14186
268848;14430
268856;14574
268864;14667
268872;14651
268881;14688
268889;14644
268897;14611
268905;14514
268913;14487
268922;14406
268930;14393
268938;14299
268946;14253
268954;14166
268963;14168
268974;14202
268982;14262
268990;14214
268998;14203
269007;14121
269015;14110
269023;14005
269031;14021
269039;13928
269048;13958
269056;13939
269064;13946
269072;13932
269080;13923
269089;13832
269097;13704
269105;13575
269113;13577
269121;13561
269129;13564
269138;13590
269146;13654
269154;13693
269162;13828
269170;13768
269179;13791
269187;13783
269195;13796
269203;13778
269211;13836
269220;13775
269228;13747
269236;14131
269244;14065
269252;11584
269261;7633
269272;6460
269280;13660
269288;16331
269296;15776
269305;15047
269313;14542
269321;14305
269329;14004
269337;13798
269346;13717
269354;13649
269362;13671
269370;13596
269378;13544
269386;13417
269395;13342
269403;13208
269411;13080
269419;12909
269427;12744
269437;12480
269445;12247
269453;11970
269461;11713
269469;11547
269478;11533
269486;11625
269494;11752
269502;11935
269510;12201
269519;12570
269527;12992
269535;13414
269543;13770
269551;14034
269560;14157
269568;14326
269579;14596
269587;14676
269595;14679
269604;14573
269612;14560
269620;14547
269628;14533
269636;14484
269645;14460
269653;14380
269661;14340
269669;14324
269677;14256
269686;14196
269694;14148
269702;14094
269710;14042
269718;13994
269726;13982
269735;13987
269743;13958
269751;13923
269759;13872
269767;13876
269776;13854
269784;13863
269792;13822
269800;13763
269808;13606
269817;13478
269825;13436
269833;13395
269841;13366
269849;13406
269858;13436
269866;13504
269874;13528
269885;13660
269893;13697
269902;13662
269910;13616
269918;13606
269926;13599
269934;13588
269943;13516
269951;14040
269959;13675
269967;10937
269975;6741
269983;5091
269992;10744
270000;15673
270008;15444
270016;14824
270024;14407
270033;14270
270041;13946
270049;13825
270057;13693
270065;13644
270074;13536
270082;13525
270090;13434
270098;13429
270106;13336
270115;13286
270123;13114
270131;13039
270139;12809
270147;12666
270156;12425
270164;12238
270172;11991
270183;11922
270191;11880
270200;11915
270208;11979
270216;12171
270224;12369
270232;12815
270241;13281
270249;13754
270257;14057
270265;14362
270273;14506
270281;14634
270290;14620
270298;14684
270306;14642
270314;14661
270322;14536
270331;14504
270339;14409
270347;14372
270355;14240
270363;14230
270372;14144
270380;14151
270388;14059
270396;14063
270404;13990
270413;13997
270421;13872
270429;13854
270437;13815
270445;13804
270454;13803
270462;13855
270470;13847
270478;13885
270489;13900
270498;13968
270506;13852
270514;13730
270522;13552
270530;13562
270538;13537
270547;13614
270555;13619
270563;13715
270571;13746
270579;13866
270588;13859
270596;13908
270604;13806
270612;13837
270620;13786
270629;13784
270637;13670
270645;13610
270653;13868
270661;14096
270670;11969
270678;7732
270686;4973
270694;8911
270702;15370
270711;15626
270719;14913
270727;14439
270735;14306
270743;14039
270751;13877
270760;13776
270768;13672
270776;13593
270784;13535
270796;13528
270804;13504
270812;13476
270820;13400
270828;13332
270836;13147
270845;13010
270853;12762
270861;12468
270869;12158
270877;11924
270886;11723
270894;11669
270902;11688
270910;11764
270918;11921
270927;12157
270935;12491
270943;12971
270951;13365
270959;13698
270968;13983
270976;14218
270984;14373
270992;14471
271000;14485
271009;14459
271017;14483
271025;14450
271033;14476
271041;14470
271049;14466
271058;14407
271066;14347
271074;14296
271082;14284
271094;14259
271102;14274
271110;14274
271118;14290
271126;14251
271134;14219
271143;14243
271151;14295
271159;14348
271167;14407
271175;14401
271184;14371
271192;14324
271200;14164
271208;13978
271216;13905
271225;13824
271233;13807
271241;13858
271249;13917
271257;13972
271266;14045
271274;14006
271282;13972
271290;13901
271298;13898
271308;13864
271316;13902
271324;13839
271332;13821
271340;13914
271348;14488
271357;12781
271365;8771
271373;5668
271381;7810
271389;15259
271400;16119
271408;15504
271416;14961
271424;14769
271432;14584
271442;14302
271450;14175
271458;14055
271466;13991
271474;13908
271483;13861
271491;13798
271499;13737
271507;13585
271515;13451
271524;13285
271532;13143
271540;12888
271548;12677
271556;12375
271565;12157
271573;11975
271581;11890
271589;11850
271597;11972
271606;12057
271614;12280
271622;12600
271630;12993
271638;13326
271646;13723
271655;14014
271663;14298
271671;14434
271679;14546
271687;14525
271696;14573
271707;14631
271715;14621
271723;14543
271731;14564
271740;14487
271748;14421
271756;14355
271764;14348
271772;14290
271781;14260
271789;14199
271797;14242
271805;14195
271813;14237
271822;14195
271830;14276
271838;14237
271846;14264
271854;14158
271863;14066
271871;13935
271879;13906
271887;13865
271895;13863
271903;13893
271912;13953
271920;14039
271928;14136
271936;14123
271944;14065
271953;14031
271961;14025
271969;14009
271977;14002
271985;13895
271994;13853
272005;14055
272013;14363
272021;12084
272029;8047
272038;5972
272046;9751
272054;16201
272062;16240
272070;15492
272079;14844
272087;14515
272095;14291
272103;14001
272111;13899
272120;13827
272128;13783
272136;13720
272144;13646
272152;13529
272161;13451
272169;13306
272177;13224
272185;13095
272193;12908
272201;12668
272210;12449
272218;12224
272226;11974
272234;11805
272242;11675
272251;11688
272259;11758
272267;11918
272275;12135
272283;12482
272292;12893
272300;13327
272311;13908
272319;14182
272327;14357
272336;14415
272344;14467
272352;14484
272360;14491
272368;14391
272377;14346
272385;14282
272393;14199
272401;14155
272409;14093
272418;14030
272426;13986
272434;13941
272442;13839
272450;13819
272458;13793
272467;13770
272475;13759
272483;13778
272491;13772
272499;13836
272508;13855
272516;13928
272524;13907
272532;13901
272540;13789
272549;13646
272557;13532
272565;13512
272573;13435
272581;13518
272590;13580
272598;13641
272606;13698
272617;13885
272625;13932
272634;13870
272642;13859
272650;13903
272658;13872
272666;13864
272675;13808
272683;14064
272691;14286
272699;12253
272707;8078
272716;5352
272724;8692
272732;15556
272740;15958
272748;15322
272756;14754
272765;14549
272773;14241
272781;13985
272789;13785
272797;13727
272806;13634
272814;13654
272822;13577
272830;13525
272838;13386
272847;13308
272855;13179
272863;13103
272871;12949
272879;12810
272888;12588
272896;12379
272904;12096
272915;11901
272923;11874
272932;11928
272940;11994
272948;12114
272956;12313
272964;12675
272973;13088
272981;13507
272989;13796
272997;14088
273005;14263
273014;14420
273022;14431
273030;14485
273038;14427
273046;14448
273054;14348
273063;14306
273071;14222
273079;14207
273087;14103
273095;14082
273104;13999
273112;13975
273120;13933
273128;13916
273136;13864
273145;13841
273153;13803
273161;13843
273169;13871
273177;13884
273186;13810
273194;13831
273202;13813
273210;13806
273221;13881
273230;13895
273238;13662
273246;13485
273254;13437
273262;13459
273271;13469
273279;13531
273287;13544
273295;13601
273303;13701
273311;13768
273320;13726
273328;13715
273336;13662
273344;13690
273352;13656
273361;13596
273369;13539
273377;13659
273385;14126
273393;12588
273402;8607
273410;5035
273418;6788
273426;14477
273434;15796
273443;15241
273451;14623
273459;14457
273467;14221
273475;13955
273484;13838
273492;13707
273500;13641
273508;13594
273516;13541
273528;13504
273536;13473
273544;13349
273552;13214
273560;13120
273569;12944
273577;12762
273585;12556
273593;12328
273601;12119
273609;11944
273618;11867
273626;11902
273634;11997
273642;12118
273650;12307
273659;12629
273667;13029
273675;13464
273683;13902
273691;14189
273700;14395
273708;14478
273716;14559
273724;14560
273732;14523
273741;14478
273749;14452
273757;14432
273765;14404
273773;14341
273782;14345
273790;14299
273798;14320
273806;14255
273814;14251
273826;14252
273834;14261
273842;14219
273850;14169
273858;14125
273866;14091
273875;14081
273883;14178
273891;14191
273899;14208
273907;14198
273916;14121
273924;13864
273932;13661
273940;13574
273948;13647
273957;13660
273965;13669
273973;13696
273981;13777
273989;13832
273998;13892
274006;13839
274014;13867
274022;13821
274030;13859
274039;13831
274047;13823
274055;13759
274063;13718
274071;14330
274079;13592
274088;10257
274096;6076
274104;5258
274112;12415
274120;15933
274132;15384
274140;14833
274148;14661
274156;14404
274164;14183
274173;13995
274181;13907
274189;13789
274197;13722
274205;13625
274214;13618
274222;13504
274230;13417
274238;13300
274246;13215
274255;13030
274263;12882
274271;12675
274280;12504
274288;12185
274297;11983
274305;11826
274313;11843
274321;11855
274329;11979
274338;12144
274346;12515
274354;12915
274362;13359
274370;13768
274378;14144
274387;14356
274395;14553
274403;14630
274411;14708
274419;14679
274428;14659
274439;14591
274447;14589
274455;14435
274463;14321
274472;14198
274480;14188
274488;14123
274496;14113
274504;14041
274513;14006
274521;13948
274529;13931
274537;13916
274545;13964
274554;13907
274562;13954
274570;13929
274578;13933
274586;13892
274595;13783
274603;13619
274611;13589
274619;13544
274627;13597
274636;13623
274644;13724
274652;13819
274660;13918
274668;13913
274676;13922
274685;13896
274693;13868
274701;13837
274709;13797
274717;13795
274726;13758
274737;13875
274745;14494
274753;12784
274761;8648
274770;5331
274778;7691
274786;15291
274794;16114
274802;15452
274811;14903
274819;14642
274827;14413
274835;14164
274843;14102
274852;14005
274860;13965
274868;13933
274876;13885
274884;13846
274893;13787
274901;13687
274909;13540
274917;13388
274925;13214
274934;13023
274942;12812
274950;12584
274958;12327
274966;12139
274974;11998
274983;12004
274991;12076
274999;12195
275007;12357
275015;12660
275024;13010
275032;13415
275043;14015
275051;14379
275059;14581
275068;14750
275076;14832
275084;14862
275092;14849
275100;14796
275109;14752
275117;14707
275125;14664
275133;14608
275141;14530
275150;14480
275158;14425
275166;14355
275174;14265
275182;14199
275191;14114
275199;14077
275207;14007
275215;14011
275223;13997
275231;14051
275240;14036
275248;13984
275256;13896
275264;13727
275272;13522
275281;13439
275289;13358
275297;13342
275305;13374
275313;13489
275322;13521
275330;13616
275341;13654
275349;13722
275357;13660
275366;13654
275374;13598
275382;13562
275390;13526
275398;13439
275407;13628
275415;13924
275423;11735
275431;7528
275439;4678
275448;8611
275456;15411
275464;15676
275472;14973
275480;14448
275489;14313
275497;14085
275505;13909
275513;13828
275521;13728
275529;13727
275538;13653
275546;13599
275554;13526
275562;13543
275570;13439
275579;13353
275587;13173
275595;13035
275603;12822
275611;12594
275620;12309
275628;12075
275636;11883
275647;11862
275655;11960
275664;12089
275672;12231
275680;12435
275688;12717
275696;13161
275705;13527
275713;13954
275721;14242
275729;14482
275737;14579
275746;14644
275754;14588
275762;14592
275770;14513
275778;14454
275786;14361
275795;14322
275803;14200
275811;14113
275819;14052
275827;14082
275836;14037
275844;14031
275852;13971
275860;13960
275868;13942
275877;13945
275885;13952
275893;13973
275901;13984
275909;14021
275918;14014
275926;13959
275934;13890
275942;13703
275953;13547
275962;13580
275970;13478
275978;13466
275986;13463
275994;13601
276003;13695
276011;13791
276019;13798
276027;13862
276035;13786
276044;13761
276052;13744
276060;13757
276068;13671
276076;13648
276084;13708
276093;14249
276101;12529
276109;8464
276117;4955
276125;7193
276134;14853
276142;15799
276150;15132
276158;14573
276166;14437
276175;14219
276183;13958
276191;13850
276199;13779
276207;13723
276216;13665
276224;13590
276232;13577
276240;13498
276248;13404
276260;13319
276268;13240
276276;13087
276284;12869
276292;12668
276301;12475
276309;12268
276317;12094
276325;12042
276333;12045
276342;12130
276350;12233
276358;12443
276366;12733
276374;13079
276382;13449
276391;13795
276399;14040
276407;14225
276416;14389
276424;14475
276433;14524
276441;14543
276449;14534
276457;14474
276465;14459
276474;14410
276482;14358
276490;14321
276498;14295
276506;14239
276515;14260
276523;14260
276531;14302
276539;14217
276547;14213
276559;14261
276567;14303
276575;14256
276583;14214
276591;14157
276600;14160
276608;14152
276616;14168
276624;14093
276632;13887
276641;13656
276649;13643
276657;13673
276665;13703
276673;13638
276681;13700
276690;13702
276698;13836
276706;13843
276714;13872
276722;13799
276731;13799
276739;13766
276747;13797
276755;13683
276763;13659
276772;13579
276780;14305
276788;13120
276796;9448
276804;5568
276813;6186
276821;14000
276829;16049
276837;15424
276845;14829
276854;14587
276865;14401
276873;14251
276881;14133
276889;13948
276898;13869
276906;13752
276914;13680
276922;13558
276930;13512
276938;13453
276947;13368
276955;13239
276963;13139
276971;12896
276979;12726
276988;12427
276996;12181
277004;11961
277012;11879
277020;11843
277029;11975
277037;12070
277045;12278
277053;12531
277061;12960
277070;13352
277078;13745
277086;14007
277094;14239
277102;14331
277111;14402
277119;14402
277127;14405
277135;14354
277143;14364
277151;14238
277160;14221
277171;14207
277179;14252
277187;14161
277196;14108
277204;14046
277212;14027
277220;13986
277228;13991
277236;13940
277245;13909
277253;13861
277261;13874
277269;13863
277277;13924
277286;13901
277294;13903
277302;13797
277310;13667
277318;13495
277327;13462
277335;13435
277343;13453
277351;13513
277359;13621
277368;13683
277376;13788
277384;13835
277392;13856
277400;13831
277409;13828
277417;13866
277425;13912
277433;13895
277441;13856
277449;13832
277458;14500
277469;12740
277477;8676
277485;5398
277494;8042
277502;15493
277510;16162
277518;15475
277526;14919
277534;14739
277543;14555
277551;14284
277559;14193
277567;14102
277575;14041
277584;13978
277592;13909
277600;13834
277608;13730
277616;13629
277625;13496
277633;13345
277641;13153
277649;12939
277657;12730
277666;12516
277674;12278
277682;12094
277690;12013
277698;12011
277706;12080
277715;12254
277723;12428
277731;12729
277739;13083
277747;13492
277756;13797
277764;14092
277775;14421
277783;14598
277791;14614
277800;14624
277808;14641
277816;14578
277824;14507
277832;14438
277841;14370
277849;14352
277857;14271
277865;14239
277873;14190
277882;14159
277890;14117
277898;14122
277906;14046
277914;14046
277923;14014
277931;14033
277939;13995
277947;14039
277955;14034
277964;14055
277972;14029
277980;13985
277988;13826
277996;13673
278004;13548
278013;13594
278021;13541
278029;13633
278037;13689
278045;13831
278054;13910
278062;13969
278073;13986
278081;14020
278089;13928
278098;13926
278106;13889
278114;13863
278122;13808
278130;13847
278139;14499
278147;13124
278155;9172
278163;5470
278171;6632
278180;14599
278188;16006
278196;15379
278204;14673
278212;14463
278221;14252
278229;14026
278237;13867
278245;13779
278253;13661
278262;13588
278270;13425
278278;13331
278286;13199
278294;13094
278302;12926
278311;12867
278319;12713
278327;12556
278335;12353
278343;12151
278352;11902
278360;11706
278368;11581
278379;11688
278387;11815
278396;12015
278404;12161
278412;12500
278420;12887
278428;13320
278437;13685
278445;14025
278453;14187
278461;14328
278469;14323
278478;14369
278486;14359
278494;14355
278502;14254
278510;14220
278519;14077
278527;13985
278535;13826
278543;13754
278552;13603
278561;13672
278569;13571
278577;13537
278585;13452
278593;13501
278601;13546
278610;13628
278618;13545
278626;13604
278634;13600
278642;13593
278651;13551
278659;13468
278667;13372
278675;13393
278685;13403
278695;13454
278703;13353
278711;13523
278719;13608
278727;13773
278736;13750
278744;13820
278752;13719
278760;13789
278768;13730
278777;13801
278785;13698
278793;13672
278801;13569
278809;14217
278818;13203
278826;9881
278834;5929
278842;5813
278850;13295
278858;16035
278867;15466
278875;14795
278883;14508
278891;14356
278899;14140
278908;13997
278916;13893
278924;13835
278932;13760
278940;13640
278949;13581
278957;13475
278965;13432
278973;13290
278981;13223
279001;13194
279009;13118
279017;12779
279025;12567
279034;12281
279042;12162
279050;12089
279058;12206
279066;12314
279075;12453
279083;12741
279091;13143
279099;13617
279107;14048
279116;14472
279124;14712
279132;14912
279140;15015
279148;15099
279156;15078
279165;15138
279173;15181
279181;15262
279189;15212
279197;15241
279206;15162
279214;15201
279222;15157
279230;15220
279238;15197
279247;15290
279255;15266
279263;15352
279271;15323
279279;15400
279288;15270
279299;15341
279307;15257
279315;15026
279323;14867
279332;14861
279340;14763
279348;14782
279356;14821
279364;14910
279373;14964
279381;15050
279389;15001
279397;14874
279405;14629
279414;14529
279422;14456
279430;14395
279438;14237
279446;14163
279454;14382
279463;14517
279471;12153
279479;8184
279487;5985
279495;10513
279504;16567
279512;16432
279520;15620
279528;14943
279536;14458
279545;14148
279553;13774
279561;13632
279569;13421
279577;13345
279586;13194
279594;13114
279605;13042
279613;13026
279621;12911
279630;12807
279638;12659
279646;12549
279654;12302
279662;12111
279671;11836
279679;11657
279687;11439
279695;11405
279703;11398
279711;11589
279720;11702
279728;12034
279736;12403
279744;12897
279752;13282
279761;13668
279769;13896
279777;14116
279785;14232
279793;14287
279802;14242
279810;14285
279818;14170
279826;14135
279834;14062
279843;14041
279851;13938
279859;13945
279867;13896
279875;13908
279884;13834
279892;13851
279903;13878
279911;13954
279919;13853
279928;13735
279936;13522
279944;13459
279952;13372
279960;13402
279969;13366
279977;13437
279985;13501
279993;13639
280001;13683
280009;13790
280018;13761
280026;13764
280034;13695
280042;13659
280050;13593
280059;13599
280067;13516
280075;13581
280083;14017
280091;12178
280100;8123
280108;5406
280116;7496
280124;15240
280132;16141
280141;15589
280149;14944
280157;14499
280165;14256
280173;13924
280182;13806
280190;13763
280198;13744
280209;13746
280217;13662
280226;13590
280234;13480
280242;13458
280250;13358
280258;13225
280266;12984
280275;12784
280283;12540
280291;12293
280299;12048
280307;11915
280316;11815
280324;11856
280332;11979
280340;12129
280348;12389
280357;12731
280365;13169
280373;13601
280381;13970
280389;14207
280398;14364
280406;14407
280414;14469
280422;14435
280431;14423
280440;14379
280448;14353
280456;14282
280464;14224
280472;14126
280481;14122
280489;14053
280497;14048
280505;14019
280515;14161
280524;14258
280532;14207
280540;14154
280548;14005
280557;13846
280566;13766
280574;13718
280582;13698
280590;13746
280598;13813
280606;13840
280615;13966
280623;14023
280631;14053
280639;13955
280647;13890
280656;13810
280664;13822
280672;13706
280680;13663
280688;13557
280697;13779
280705;13979
280713;11888
280721;7683
280729;4812
280738;8017
280746;15228
280754;15853
280762;15354
280770;14747
280778;14549
280787;14231
280795;14047
280803;13890
280811;13888
280823;13852
280831;13834
280839;13702
280847;13596
280855;13440
280863;13381
280872;13260
280880;13165
280888;12918
280896;12718
280904;12417
280913;12166
280921;11880
280929;11809
280937;11788
280945;11895
280954;11969
280962;12158
280970;12370
280978;12762
280986;13146
280995;13622
281003;13881
281011;14144
281019;14268
281027;14388
281036;14378
281044;14439
281052;14390
281060;14359
281068;14283
281076;14252
281085;14161
281093;14158
281101;14093
281109;14110
281121;14083
281129;14131
281137;14035
281145;14051
281153;13972
281161;14065
281170;14072
281178;14016
281186;13922
281194;13833
281202;13703
281211;13640
281219;13550
281227;13592
281235;13585
281243;13687
281252;13729
281260;13902
281268;13924
281276;13991
281284;13931
281293;13933
281301;13888
281309;13916
281317;13807
281325;13769
281334;13686
281342;14143
281350;13855
281358;11035
281366;6478
281374;4236
281383;9339
281391;15334
281399;15694
281407;15184
281415;14787
281427;14538
281435;14309
281443;14175
281451;14022
281459;13957
281468;13849
281476;13831
281484;13723
281492;13666
281500;13573
281509;13518
281517;13407
281525;13279
281533;13095
281541;12905
281550;12657
281558;12447
281566;12197
281574;12106
281582;12110
281591;12204
281599;12337
281607;12512
281615;12778
281623;13197
281631;13623
281640;13993
281648;14271
281656;14472
281664;14572
281672;14607
281681;14675
281689;14642
281697;14609
281705;14518
281713;14471
281722;14379
281733;14367
281741;14416
281749;14342
281757;14283
281766;14243
281774;14201
281782;14115
281790;14115
281798;14073
281807;14020
281815;14054
281823;14058
281831;14048
281839;14057
281848;14022
281856;13900
281864;13686
281872;13555
281880;13586
281889;13587
281897;13584
281905;13567
281913;13635
281921;13698
281929;13861
281938;13855
281946;13846
281954;13757
281962;13765
281970;13713
281979;13750
281987;13696
281995;13669
282003;13967
282011;13881
282020;11269
282031;5543
282039;4990
282047;12053
282055;15699
282064;15552
282072;14904
282080;14622
282088;14248
282096;13998
282105;13867
282113;13785
282121;13630
282129;13557
282137;13441
282146;13430
282154;13318
282162;13336
282170;13226
282178;13209
282186;13034
282195;12912
282203;12652
282211;12435
282219;12118
282227;11911
282236;11726
282244;11756
282252;11776
282260;11904
282268;12010
282277;12316
282285;12656
282293;13113
282301;13482
282309;13874
282318;14079
282326;14220
282337;14360
282345;14466
282353;14353
282362;14329
282370;14204
282378;14182
282386;14095
282394;14108
282403;14063
282411;14100
282419;14018
282427;14031
282435;13984
282444;14048
282452;14045
282460;14111
282468;14096
282476;14148
282484;14125
282493;14200
282501;14197
282509;14324
282517;14199
282525;14103
282534;13866
282542;13814
282550;13790
282558;13831
282566;13792
282575;13905
282583;13938
282591;14036
282599;14095
282607;14182
282616;14179
282624;14226
282635;14241
282643;14287
282651;14151
282660;14075
282668;14020
282676;14575
282684;12960
282692;8976
282701;5113
282709;6624
282717;14435
282725;16229
282733;15665
282742;15203
282750;14968
282758;14754
282766;14601
282774;14542
282783;14458
282792;14444
282800;14395
282808;14390
282816;14330
282824;14252
282833;14129
282841;14047
282849;13888
282857;13691
282865;13459
282874;13211
282882;12901
282890;12628
282898;12381
282906;12241
282915;12228
282923;12291
282931;12443
282942;12739
282950;13068
282959;13418
282967;13747
282975;14075
282983;14266
282991;14472
283000;14526
283008;14599
283016;14552
283024;14546
283032;14452
283041;14381
283049;14275
283057;14222
283065;14127
283073;14087
283081;14034
283090;13970
283098;13954
283106;13879
283114;13831
283122;13758
283131;13741
283139;13711
283147;13697
283155;13661
283163;13661
283172;13613
283180;13610
283188;13610
283196;13622
283204;13499
283213;13327
283221;13139
283229;13161
283237;13150
283248;13228
283257;13285
283265;13298
283273;13350
283281;13435
283289;13474
283298;13481
283306;13491
283314;13536
283322;13567
283330;13554
283338;13424
283347;13374
283355;13992
283363;12832
283371;9138
283379;5022
283388;5292
283396;13058
283404;15542
283412;15144
283420;14522
283429;14356
283437;14061
283445;13910
283453;13789
283461;13769
283470;13660
283478;13632
283486;13533
283494;13530
283502;13452
283511;13461
283519;13385
283527;13301
283535;13167
283543;13060
283555;12824
283563;12652
283571;12346
283579;12197
283587;12052
283596;12073
283604;12089
283612;12232
283620;12398
283628;12729
283636;13083
283645;13509
283653;13828
283661;14161
283669;14320
283677;14470
283686;14490
283694;14530
283702;14501
283710;14480
283718;14433
283727;14436
283735;14368
283743;14345
283751;14301
283759;14348
283768;14307
283776;14328
283784;14266
283792;14252
283800;14226
283809;14262
283817;14259
283825;14296
283833;14230
283841;14209
283853;14106
283861;14073
283869;13950
283877;13993
283885;13905
283894;13937
283902;13945
283910;14015
283918;14067
283926;14140
283934;14072
283943;14069
283951;14020
283959;14046
283967;14003
283975;13968
283984;13888
283992;13832
284000;14408
284008;13252
284016;9493
284025;6198
284033;6591
284041;14674
284049;16651
284057;15881
284066;15151
284074;14674
284082;14448
284090;14192
284098;14015
284106;13929
284115;13835
284123;13750
284131;13626
284139;13542
284147;13428
284159;13361
284167;13336
284175;13226
284183;12994
284191;12836
284200;12557
284208;12331
284216;12098
284224;11949
284232;11866
284241;11961
284249;12056
284257;12238
284265;12439
284273;12741
284282;13116
284290;13511
284298;13880
284306;14170
284314;14319
284323;14448
284331;14519
284339;14545
284347;14542
284355;14461
284364;14428
284372;14415
284380;14356
284388;14298
284396;14263
284404;14213
284413;14196
284421;14156
284429;14220
284437;14215
284445;14249
284457;14292
284465;14233
284473;14106
284481;13987
284489;13961
284498;13926
284506;13986
284514;14046
284522;14111
284530;14231
284539;14255
284547;14267
284555;14300
284563;14285
284571;14230
284580;14186
284588;14056
284596;14005
284604;13941
284612;14374
284621;13836
284629;10836
284637;7105
284645;6061
284653;12519
284662;16919
284670;16337
284678;15714
284686;15030
284694;14667
284702;14335
284711;14070
284719;13895
284727;13792
284735;13671
284743;13622
284752;13483
284763;13418
284771;13377
284779;13234
284787;13056
284796;12882
284804;12679
284812;12478
284820;12166
284828;11903
284837;11690
284845;11641
284853;11636
284861;11737
284869;11862
284878;12103
284886;12387
284894;12806
284902;13155
284910;13562
284919;13883
284927;14170
284935;14283
284943;14390
284951;14373
284959;14382
284968;14316
284976;14296
284984;14206
284992;14184
285000;14095
285009;14068
285017;13999
285025;14003
285033;13946
285041;13972
285050;14008
285059;13983
285069;13992
285077;13968
285085;13854
285094;13809
285102;13734
285110;13743
285118;13738
285126;13819
285135;13857
285143;13993
285151;14033
285159;14064
285167;14015
285176;14016
285184;13963
285193;13988
285201;13932
285209;13950
285218;13840
285226;14504
285234;13544
285242;9940
285250;6017
285258;5715
285267;13445
285275;16441
285283;15998
285291;15382
285299;14990
285308;14798
285316;14492
285324;14352
285332;14238
285340;14189
285349;14093
285357;14001
285365;13903
285376;13875
285384;13755
285393;13601
285401;13404
285409;13230
285417;12915
285425;12685
285434;12424
285442;12206
285450;11991
285458;11959
285466;11994
285475;12127
285483;12239
285491;12483
285499;12772
285507;13167
285516;13570
285524;13939
285532;14157
285540;14296
285548;14376
285556;14388
285565;14350
285573;14344
285581;14303
285589;14265
285597;14216
285606;14141
285614;14067
285622;13995
285630;13928
285638;13899
285647;13901
285655;13893
285663;13941
285674;14051
285682;14071
285691;14044
285699;13861
285707;13800
285715;13704
285723;13672
285732;13612
285740;13676
285748;13689
285756;13694
285764;13791
285773;13818
285781;13815
285789;13799
285797;13763
285805;13753
285814;13720
285822;13658
285830;13578
285838;13500
285846;14232
285854;12916
285863;8902
285871;4459
285879;4901
285887;13069
285895;15611
285904;15263
285912;14802
285920;14553
285928;14245
285936;13988
285945;13927
285953;13832
285961;13810
285969;13705
285980;13729
285989;13739
285997;13659
286005;13561
286013;13406
286021;13258
286030;13072
286038;12841
286046;12611
286054;12346
286062;12085
286071;11871
286079;11812
286087;11835
286095;11925
286103;12003
286111;12298
286120;12618
286128;13105
286136;13476
286144;13860
286152;14029
286161;14226
286169;14219
286177;14336
286185;14284
286193;14319
286202;14134
286210;14093
286218;13905
286226;13873
286234;13694
286243;13711
286251;13598
286259;13640
286267;13581
286278;13695
286287;13735
286295;13798
286303;13779
286311;13857
286319;13808
286328;13813
286336;13656
286344;13643
286352;13526
286360;13606
286369;13573
286377;13709
286385;13656
286393;13788
286401;13788
286409;13937
286418;13800
286426;13862
286434;13725
286442;13859
286450;13697
286459;13766
286467;13577
286475;13629
286483;14185
286491;13219
286500;9387
286508;4865
286516;4397
286524;12230
286532;15431
286541;15339
286549;14726
286557;14679
286565;14338
286573;14280
286585;14125
286593;14222
286601;14092
286609;14148
286617;13975
286626;13986
286634;13771
286642;13786
286650;13573
286658;13510
286666;13214
286675;13080
286683;12722
286691;12615
286699;12340
286707;12298
286716;12154
286724;12238
286732;12172
286740;12337
286748;12406
286757;12841
286765;13185
286773;13630
286781;13868
286789;14182
286798;14315
286806;14523
286814;14516
286822;14598
286830;14540
286839;14535
286847;14307
286855;14256
286863;14200
286872;14250
286881;14153
286891;14194
286899;14104
286907;14080
286915;13952
286924;14026
286932;13922
286940;13995
286948;13927
286956;14074
286964;14005
286973;14083
286981;13887
286989;13707
286997;13472
287006;13507
287015;13451
287023;13584
287031;13585
287039;13736
287047;13838
287056;14084
287064;14096
287072;14136
287080;14089
287088;14177
287097;14145
287105;14147
287113;14035
287121;13989
287129;14184
287138;14529
287146;12569
287154;8781
287162;5966
287170;9635
287178;16668
287187;16924
287198;15367
287206;14690
287214;13893
287223;13256
287231;12786
287239;12480
287247;12206
287255;12092
287263;12054
287272;12183
287280;12152
287288;12192
287296;12224
287304;12340
287313;12409
287321;12518
287329;12526
287337;12384
287345;12285
287354;12312
287362;12351
287370;12492
287378;12728
287386;13002
287395;13301
287403;13491
287411;13903
287419;14238
287427;14375
287436;14364
287444;14681
287452;14743
287460;14861
287468;14845
287476;14932
287485;14810
287496;14793
287504;14798
287512;14705
287521;14618
287529;14648
287537;14623
287545;14632
287553;14641
287561;14767
287570;14860
287578;14994
287586;15049
287594;15099
287602;15113
287611;15262
287619;15206
287627;15259
287635;15213
287643;15258
287652;15118
287660;15208
287668;15055
287676;15012
287684;14860
287693;14840
287701;14717
287709;14736
287717;14478
287725;14316
287734;14202
287742;14172
287750;14329
287758;14658
287766;14759
287774;15670
287783;16302
287791;16998
287802;15483
287810;11832
287818;8077
287827;8621
287835;16505
287843;18250
287851;17243
287859;16530
287868;16410
287876;16175
287884;15428
287892;14981
287900;14436
287909;14106
287917;13547
287925;13326
287933;12976
287941;12819
287950;12584
287958;12516
287966;12281
287974;12217
287982;11901
287991;11788
287999;11494
288007;11357
288015;11033
288023;11045
288031;11011
288040;11250
288048;11342
288056;11657
288064;11879
288072;12332
288081;12662
288089;13001
288100;13297
288108;13490
288116;13498
288125;13543
288133;13336
288141;13283
288149;13053
288157;13163
288166;13061
288174;13085
288182;13036
288190;13185
288198;13152
288207;13186
288215;13056
288223;13194
288231;13118
288239;13212
288248;13118
288256;13073
288264;12920
288272;12912
288280;12575
288289;11714
288297;10817
288305;10682
288313;11074
288321;11610
288329;11698
288338;11718
288346;11623
288354;12378
288362;12965
288370;13285
288379;13687
288387;14036
288395;14146
288406;14305
288414;14295
288423;14507
288431;14705
288439;12638
288447;8466
288455;6285
288464;9548
288472;16807
288480;17024
288488;16312
288496;15505
288505;15050
288513;14582
288521;14381
288529;14349
288537;14363
288546;14369
288554;14309
288562;14222
288570;14188
288578;14143
288586;14070
288595;13949
288603;13751
288611;13547
288619;13304
288627;13107
288636;12819
288644;12624
288652;12385
288660;12379
288668;12327
288677;12397
288685;12359
288693;12526
288701;12644
288712;13221
288721;13649
288729;13807
288737;13922
288745;13990
288753;14003
288762;14000
288770;13988
288778;13968
288786;13882
288794;13792
288803;13708
288811;13706
288819;13553
288827;13441
288835;13309
288844;13221
288852;13040
288860;12987
288868;12937
288876;12913
288884;12878
288893;12902
288901;12882
288909;12924
288917;12818
288925;12840
288934;12627
288942;12569
288950;12452
288958;12566
288966;12605
288975;12817
288983;12956
288991;13236
288999;13439
289010;13753
289019;13848
289027;13894
289035;13891
289043;13980
289051;14002
289060;14038
289068;13996
289076;14764
289084;13593
289092;9735
289101;5304
289109;5651
289117;13479
289125;16088
289133;15613
289142;15066
289150;14800
289158;14505
289166;14216
289174;14123
289182;13966
289191;13902
289199;13796
289207;13724
289215;13594
289223;13551
289232;13474
289240;13429
289248;13314
289256;13329
289264;13288
289273;13263
289281;13087
289289;12914
289297;12689
289305;12588
289317;12549
289325;12593
289333;12615
289341;12751
289349;13029
289358;13397
289366;13754
289374;14106
289382;14322
289390;14541
289399;14633
289407;14735
289415;14855
289423;14868
289431;14841
289439;14771
289448;14666
289456;14613
289464;14568
289472;14558
289480;14496
289489;14476
289497;14419
289505;14393
289513;14369
289521;14323
289530;14294
289538;14319
289546;14347
289554;14287
289562;14231
289571;14064
289579;13878
289587;13760
289595;13737
289603;13690
289612;13685
289623;13837
289631;13962
289639;14051
289647;14109
289656;14157
289664;14159
289672;14180
289680;14170
289688;14149
289697;14051
289705;13937
289713;14411
289721;14203
289729;11437
289737;6869
289746;4460
289754;10270
289762;15870
289770;15824
289778;15188
289787;14852
289795;14729
289803;14458
289811;14270
289819;14114
289828;13983
289836;13898
289844;13824
289852;13720
289860;13623
289869;13556
289877;13438
289885;13285
289893;13210
289901;13045
289910;12826
289921;12584
289929;12425
289937;12218
289945;12126
289954;12166
289962;12288
289970;12441
289978;12627
289986;12916
289994;13286
290003;13640
290011;13941
290019;14225
290027;14478
290035;14631
290044;14744
290052;14804
290060;14880
290068;14844
290076;14807
290085;14762
290093;14726
290101;14753
290109;14702
290117;14674
290127;14632
290135;14557
290143;14540
290151;14543
290159;14494
290168;14441
290176;14308
290184;14126
290192;14016
290200;13932
290209;13893
290217;13875
290227;13986
290235;14162
290243;14251
290253;14272
290261;14281
290269;14263
290277;14257
290285;14210
290294;14144
290302;14051
290310;13987
290318;13910
290326;14437
290334;13655
290343;10490
290351;7034
290359;6409
290367;13425
290375;16905
290384;16230
290392;15562
290400;14943
290408;14672
290416;14400
290425;14159
290433;14044
290441;13965
290449;13910
290457;13858
290466;13778
290474;13693
290482;13583
290490;13427
290498;13284
290506;13136
290515;12958
290523;12739
290534;12478
290542;12256
290551;12073
290559;12015
290567;12033
290575;12086
290583;12226
290591;12390
290600;12655
290608;13030
290616;13462
290624;13813
290632;14009
290641;14193
290649;14317
290657;14357
290665;14385
290673;14371
290682;14285
290690;14222
290698;14162
290706;14084
290714;14047
290723;13998
290731;13945
290739;13874
290747;13820
290755;13752
290764;13698
290772;13713
290780;13573
290788;13483
290796;13434
290804;13420
290813;13408
290821;13488
290832;13615
290840;13754
290849;13820
290857;13811
290865;13812
290873;13816
290881;13771
290889;13751
290898;13748
290906;13694
290914;13601
290922;13931
290930;13657
290939;10947
290947;7248
290955;5879
290963;10987
290971;16425
290980;16182
290988;15645
290996;15014
291004;14577
291012;14296
291021;13979
291029;13824
291037;13713
291045;13594
291053;13453
291062;13316
291070;13204
291078;13076
291086;12952
291094;12838
291102;12665
291111;12489
291119;12295
291127;12111
291138;11930
291146;11861
291155;11784
291163;11805
291171;11906
291179;12062
291187;12279
291196;12614
291204;13014
291212;13477
291220;13915
291228;14283
291237;14485
291245;14607
291253;14656
291261;14727
291269;14728
291278;14717
291286;14638
291294;14600
291302;14462
291310;14362
291319;14255
291327;14191
291335;14124
291343;14041
291351;13966
291359;13972
291368;13942
291376;13875
291384;13774
291392;13689
291400;13625
291409;13565
291417;13527
291425;13557
291433;13633
291444;13855
291453;14055
291461;14179
291469;14190
291477;14190
291485;14159
291494;14183
291502;14178
291510;14182
291518;14154
291526;14020
291535;14510
291543;13991
291551;10811
291559;6113
291567;4377
291576;10380
291584;15507
291592;15815
291600;15309
291608;15056
291617;14791
291625;14565
291633;14451
291641;14304
291649;14134
291657;13995
291666;13877
291674;13779
291682;13670
291690;13549
291698;13414
291707;13279
291715;13140
291723;12984
291731;12756
291742;12531
291751;12373
291759;12161
291767;12030
291775;12048
291783;12131
291792;12284
291800;12464
291808;12757
291816;13162
291824;13571
291833;13888
291841;14142
291849;14259
291857;14396
291865;14482
291874;14524
291882;14533
291890;14511
291898;14454
291906;14411
291914;14350
291923;14346
291931;14334
291939;14314
291947;14264
291955;14192
291964;14185
291972;14159
291980;14171
291988;14193
291996;14119
292005;14029
292013;13834
292021;13693
292029;13579
292037;13545
292049;13592
292057;13633
292065;13616
292073;13679
292081;13741
292090;13726
292098;13668
292106;13620
292114;13622
292122;13644
292131;13623
292139;13621
292147;13531
292155;14049
292163;13850
292172;10879
292180;6199
292188;4077
292196;9399
292204;15115
292212;15457
292221;14935
292230;14668
292238;14393
292246;14104
292254;13955
292263;13846
292271;13740
292279;13699
292287;13671
292295;13614
292304;13513
292312;13393
292320;13308
292328;13198
292336;13050
292345;12884
292356;12708
292364;12542
292372;12326
292380;12118
292389;12003
292397;12003
292405;12091
292413;12222
292421;12438
292430;12725
292438;13078
292446;13458
292454;13823
292462;14094
292471;14259
292479;14357
292487;14412
292495;14475
292503;14442
292511;14382
292520;14337
292528;14288
292536;14253
292544;14202
292552;14131
292561;14127
292569;14075
292577;14058
292585;14052
292593;14070
292602;14024
292610;13984
292618;13931
292626;13944
292634;13913
292643;13959
292654;13981
292662;13970
292670;13766
292678;13639
292687;13599
292695;13625
292703;13662
292711;13696
292719;13722
292728;13826
292736;13897
292744;13905
292752;13846
292760;13824
292769;13762
292777;13738
292785;13737
292793;13643
292801;13499
292809;14027
292818;13624
292826;10675
292834;6348
292842;4586
292850;10404
292859;15429
292867;15525
292875;14985
292883;14652
292891;14478
292900;14185
292908;14073
292916;13984
292924;13893
292932;13821
292941;13751
292949;13664
292960;13599
292968;13502
292976;13381
292985;13267
292993;13126
293001;12947
293009;12816
293017;12632
293026;12420
293034;12258
293042;12182
293050;12177
293058;12236
293066;12342
293075;12510
293083;12778
293091;13150
293099;13513
293107;13883
293116;14168
293124;14385
293132;14531
293140;14631
293148;14692
293157;14677
293165;14662
293173;14616
293181;14564
293189;14525
293198;14473
293206;14422
293214;14348
293222;14301
293230;14242
293239;14242
293247;14247
293255;14191
293266;14256
293274;14332
293283;14305
293291;14314
293299;14304
293307;14303
293315;14214
293324;14067
293332;13862
293340;13769
293348;13680
293356;13709
293364;13700
293373;13659
293381;13699
293389;13785
293397;13847
293405;13849
293414;13851
293422;13852
293430;13855
293438;13823
293446;13804
293455;13777
293463;13672
293471;14318
293479;13290
293487;9638
293496;5534
293504;5347
293512;12837
293520;15844
293528;15554
293537;14997
293545;14769
293553;14503
293564;14301
293572;14303
293581;14178
293589;14060
293597;13931
293605;13847
293613;13768
293622;13651
293630;13543
293638;13439
293646;13305
293654;13157
293662;12960
293671;12787
293679;12534
293687;12289
293695;12138
293703;12058
293712;12081
293720;12182
293728;12296
293736;12484
293744;12791
293753;13151
293761;13497
293769;13803
293777;14065
293785;14234
293794;14311
293802;14342
293810;14384
293818;14332
293826;14264
293834;14201
293843;14174
293851;14104
293859;14059
293870;13999
293879;14004
293887;13980
293895;13943
293903;13894
293911;13890
293919;13914
293928;13958
293936;13959
293944;13965
293952;13965
293960;13993
293969;14003
293977;14015
293985;14004
293993;13896
294001;13701
294010;13579
294018;13563
294026;13585
294034;13595
294042;13606
294051;13649
294060;13727
294068;13829
294076;13898
294084;13904
294093;13931
294101;13933
294109;13917
294117;13877
294125;13810
294134;13716
294142;14290
294150;13692
294158;10471
294168;5394
294177;6545
294186;14208
294194;16020
294202;15521
294210;15010
294218;14735
294227;14456
294235;14199
294243;14039
294251;13909
294259;13810
294268;13748
294276;13734
294284;13614
294292;13490
294300;13371
294309;13215
294317;13084
294325;12959
294333;12798
294341;12595
294350;12369
294358;12138
294366;11975
294374;11893
294382;11911
294391;12014
294399;12128
294407;12300
294415;12577
294423;12924
294431;13309
294440;13673
294448;13927
294456;14073
294464;14190
294476;14328
294484;14357
294492;14292
294500;14184
294508;14105
294516;14091
294525;14057
294533;14016
294541;13983
294549;13962
294557;13928
294566;13975
294574;13987
294582;13962
294590;13946
294598;13946
294607;13940
294615;13967
294623;13971
294631;13958
294639;13951
294648;13965
294656;14004
294664;13965
294672;13869
294680;13707
294689;13628
294697;13602
294705;13641
294713;13681
294721;13746
294729;13822
294738;13901
294746;13991
294754;13998
294762;13985
294770;13976
294782;14016
294790;14040
294798;13939
294806;13827
294814;14001
294823;13984
294831;11668
294839;7707
294847;5281
294855;9672
294864;15719
294872;15824
294880;15119
294888;14543
294896;14340
294905;14028
294913;13793
294921;13725
294929;13673
294937;13619
294946;13562
294954;13479
294962;13450
294970;13392
294978;13298
294986;13180
294995;13040
295003;12829
295011;12646
295019;12421
295027;12237
295036;12024
295044;11860
295052;11781
295060;11826
295068;11953
295077;12110
295088;12492
295096;12879
295104;13200
295112;13509
295121;13810
295129;14017
295137;14186
295145;14244
295153;14234
295162;14220
295170;14154
295178;14090
295186;14031
295194;14002
295203;13923
295211;13829
295219;13777
295227;13783
295235;13740
295244;13724
295252;13708
295260;13718
295268;13721
295276;13779
295284;13862
295293;13840
295301;13778
295309;13608
295317;13487
295325;13404
295334;13368
295342;13376
295350;13400
295358;13441
295366;13508
295375;13585
295386;13713
295394;13766
295402;13698
295410;13672
295419;13681
295427;13672
295435;13654
295443;13643
295451;13928
295460;13944
295468;11298
295476;6981
295484;4561
295492;9718
295501;15863
295509;15839
295517;15188
295525;14651
295533;14431
295542;14137
295550;13901
295558;13736
295566;13591
295574;13507
295582;13431
295591;13344
295599;13219
295607;13176
295615;13052
295623;12971
295632;12793
295640;12615
295648;12428
295656;12244
295664;12027
295673;11861
295681;11762
295692;11904
295700;12154
295708;12354
295717;12529
295725;12804
295733;13136
295741;13554
295749;13917
295758;14206
295766;14412
295774;14498
295782;14548
295790;14583
295799;14578
295807;14543
295815;14505
295823;14468
295831;14402
295839;14309
295848;14215
295856;14115
295864;14055
295872;14035
295880;13946
295889;13916
295897;13868
295905;13849
295913;13853
295921;13906
295930;13937
295938;13953
295946;13914
295954;13937
295962;13820
295971;13752
295979;13679
295990;13734
295998;13835
296006;13934
296015;13982
296023;14085
296031;14162
296039;14211
296047;14195
296056;14171
296064;14171
296072;14118
296080;14015
296088;13901
296097;13976
296105;14437
296113;12551
296121;8261
296129;4613
296137;7391
296146;15145
296154;15940
296162;15283
296170;14782
296178;14625
296187;14374
296195;14195
296203;14114
296211;14027
296219;13976
296228;13926
296236;13814
296244;13716
296252;13639
296260;13559
296269;13471
296278;13357
296286;13184
296296;13024
296304;12889
296313;12651
296321;12433
296329;12291
296337;12224
296345;12326
296354;12433
296363;12539
296371;12747
296379;13058
296387;13433
296396;13801
296404;14105
296412;14345
296420;14540
296428;14620
296436;14690
296445;14760
296453;14760
296461;14758
296469;14708
296477;14680
296486;14610
296494;14580
296502;14546
296510;14565
296518;14563
296527;14564
296535;14524
296543;14564
296551;14642
296559;14720
296568;14641
296576;14551
296584;14399
296592;14213
296603;14067
296612;14081
296620;14004
296628;13998
296636;14041
296644;14116
296653;14249
296661;14332
296669;14311
296677;14315
296685;14268
296694;14235
296702;14162
296710;14101
296718;14014
296726;13921
296734;14398
296743;12937
296751;9125
296759;6208
296767;7221
296775;15197
296784;16594
296792;15857
296800;15190
296808;14741
296816;14524
296825;14232
296833;13990
296841;13880
296849;13798
296857;13748
296866;13689
296874;13635
296882;13560
296890;13494
296898;13403
296910;13312
296918;13190
296926;13004
296934;12790
296942;12615
296951;12444
296959;12263
296967;12174
296975;12199
296983;12267
296991;12416
297000;12657
297008;12961
297016;13299
297024;13681
297032;14018
297041;14289
297049;14450
297057;14565
297065;14627
297073;14655
297082;14632
297090;14566
297098;14451
297106;14362
297114;14323
297123;14264
297131;14198
297139;14118
297147;14085
297155;14056
297164;14044
297172;13998
297180;13989
297188;13875
297196;13765
297208;13723
297216;13736
297224;13700
297232;13726
297240;13716
297249;13731
297257;13814
297265;13845
297273;13876
297281;13885
297289;13852
297298;13810
297306;13795
297314;13776
297322;13658
297330;13576
297339;14090
297347;12810
297355;9061
297363;6060
297371;6762
297380;14408
297388;16170
297396;15558
297404;14926
297412;14427
297421;14187
297429;13899
297437;13699
297445;13602
297453;13531
297462;13516
297470;13430
297478;13314
297486;13195
297494;13134
297502;13034
297514;12859
297522;12727
297530;12475
297538;12259
297546;12069
297555;11880
297563;11791
297571;11798
297579;11844
297587;11974
297596;12186
297604;12453
297612;12794
297620;13147
297628;13503
297637;13799
297645;14070
297653;14212
297661;14307
297669;14301
297678;14339
297686;14322
297694;14289
297702;14273
297710;14264
297719;14265
297727;14231
297735;14201
297743;14161
297751;14116
297759;14168
297768;14176
297776;14231
297784;14240
297792;14216
297800;14129
297809;13984
297820;13895
297828;13922
297836;13850
297844;13888
297853;13932
297861;13994
297869;14033
297877;14128
297885;14164
297894;14167
297902;14130
297910;14120
297918;14054
297926;13961
297935;13862
297943;13711
297951;14271
297959;13274
297967;9684
297976;5383
297984;4861
297992;12474
298000;15527
298008;15287
298017;14703
298025;14434
298033;14197
298041;13947
298049;13816
298057;13697
298066;13607
298074;13536
298082;13436
298090;13351
298098;13238
298107;13077
298118;12955
298126;12857
298134;12640
298142;12401
298151;12151
298159;11874
298167;11690
298175;11607
298183;11562
298192;11705
298200;11868
298208;12071
298216;12279
298224;12670
298233;13036
298241;13405
298249;13736
298257;13960
298265;14161
298274;14240
298282;14233
298290;14209
298298;14163
298306;14073
298314;14032
298324;13962
298332;13946
298340;13876
298348;13831
298356;13788
298365;13804
298373;13751
298381;13739
298389;13725
298397;13775
298406;13787
298414;13787
298433;13946
298441;13990
298450;13897
298458;13819
298466;13834
298474;13782
298482;13785
298491;13826
298499;13804
298507;13714
298515;13671
298523;13587
298532;13547
298540;13492
298548;13444
298556;13355
298564;13494
298573;13854
298581;11715
298589;7155
298597;3591
298605;6565
298614;14309
298622;15472
298630;15032
298638;14676
298646;14483
298654;14196
298663;14063
298671;13997
298679;13948
298687;13880
298695;13803
298704;13751
298712;13617
298720;13491
298728;13357
298739;13245
298748;13156
298756;13009
298764;12852
298772;12673
298780;12456
298789;12292
298797;12189
298805;12179
298813;12246
298821;12340
298830;12530
298838;12847
298846;13229
298854;13622
298862;13965
298871;14271
298879;14494
298887;14611
298895;14680
298903;14714
298911;14718
298920;14711
298928;14676
298936;14664
298944;14610
298952;14578
298961;14543
298969;14469
298977;14453
298985;14442
298993;14443
299002;14429
299010;14444
299018;14380
299026;14340
299037;14361
299046;14393
299054;14345
299062;14255
299070;14090
299078;13867
299087;13751
299095;13720
299103;13729
299111;13660
299119;13628
299128;13675
299136;13747
299144;13865
299152;13897
299160;13956
299169;13996
299177;14028
299185;13980
299193;13977
299201;13932
299209;13874
299218;14529
299226;13052
299234;9041
299242;5052
299250;5948
299259;14002
299267;15993
299275;15558
299283;14979
299291;14798
299300;14552
299308;14337
299316;14234
299324;14116
299332;13989
299344;13960
299352;13942
299360;13850
299368;13753
299376;13633
299385;13486
299393;13328
299401;13158
299409;13015
299417;12790
299426;12595
299434;12362
299442;12212
299450;12161
299458;12245
299466;12346
299475;12452
299483;12675
299491;12984
299499;13312
299507;13699
299516;14047
299524;14312
299532;14498
299540;14614
299548;14642
299557;14660
299565;14678
299573;14596
299581;14495
299589;14453
299598;14444
299606;14362
299614;14372
299622;14334
299630;14287
299639;14285
299650;14354
299658;14395
299666;14373
299674;14330
299683;14238
299691;14211
299699;14091
299707;14030
299715;14001
299724;13994
299732;13975
299740;14013
299748;14104
299756;14167
299764;14278
299773;14324
299781;14292
299789;14292
299797;14282
299805;14270
299814;14257
299822;14239
299830;14169
299838;14119
299846;14662
299855;13243
299863;9414
299871;6399
299879;7363
299887;15390
299896;16968
299904;16328
299912;15621
299920;15050
299928;14751
299937;14493
299948;14359
299956;14281
299964;14146
299972;14032
299981;13877
299989;13780
299997;13660
300005;13510
300013;13391
300022;13216
300030;13018
300038;12827
300046;12574
300054;12300
300062;12056
300071;11850
300079;11775
300087;11790
300095;11898
300103;12023
300112;12248
300120;12577
300128;12913
300136;13288
