Tempo (ms);Valor
300171;15071
300179;15090
300187;14942
300196;14822
300204;14702
300212;14568
300220;14396
300228;14256
300237;14113
300245;13988
300253;13924
300261;13825
300269;13780
300278;13777
300286;13754
300294;13783
300302;13752
300310;13665
300318;13545
300327;13403
300335;13278
300343;13214
300351;13151
300359;13188
300368;13292
300376;13414
300384;13522
300392;13639
300400;13645
300409;13628
300417;13583
300425;13599
300433;13604
300441;13604
300450;13569
300458;13490
300469;14082
300477;13542
300485;10256
300494;6140
300502;4815
300510;11597
300518;15832
300526;15635
300535;15027
300543;14577
300551;14301
300559;13982
300567;13760
300575;13603
300584;13489
300592;13377
300600;13272
300608;13233
300616;13158
300625;13063
300633;12957
300641;12841
300649;12676
300657;12477
300666;12222
300674;11981
300682;11752
300690;11566
300698;11496
300707;11522
300715;11645
300723;11802
300731;12033
300739;12303
300748;12724
300756;13126
300764;13456
300775;13852
300783;14032
300792;14059
300800;14130
300808;14209
300816;14181
300824;14148
300833;14054
300841;13997
300849;13929
300857;13930
300865;13884
300873;13862
300882;13828
300890;13834
300898;13835
300906;13847
300914;13839
300923;13870
300931;13841
300939;13811
300947;13806
300955;13823
300964;13833
300972;13846
300980;13871
300988;13861
300996;13770
301005;13642
301013;13512
301021;13528
301029;13588
301037;13658
301046;13695
301054;13760
301062;13830
301073;14028
301081;14110
301090;14061
301098;14047
301106;14031
301114;14018
301122;13995
301130;13944
301139;14073
301147;14347
301155;12380
301163;8136
301171;4967
301180;7582
301188;14795
301196;15936
301204;15373
301212;14925
301221;14701
301229;14412
301237;14235
301245;14140
301253;13996
301262;13922
301270;13858
301278;13811
301286;13689
301294;13588
301303;13462
301311;13374
301319;13219
301327;13070
301335;12898
301343;12705
301352;12480
301360;12267
301368;12112
301379;12093
301388;12188
301396;12281
301404;12413
301412;12619
301420;12936
301428;13339
301437;13718
301445;14012
301453;14256
301461;14415
301469;14499
301478;14539
301486;14562
301494;14532
301502;14441
301510;14339
301519;14278
301527;14240
301535;14180
301543;14178
301551;14148
301560;14194
301568;14205
301576;14254
301584;14300
301592;14349
301601;14348
301609;14348
301617;14292
301625;14282
301633;14229
301641;14232
301650;14206
301658;14194
301666;14184
301677;14137
301686;14059
301694;13963
301702;13943
301710;13964
301718;13991
301726;14017
301735;14015
301743;14010
301751;14033
301759;14064
301767;14023
301776;13994
301784;14001
301792;13994
301800;13976
301808;13911
301817;13771
301825;14298
301833;13838
301841;10860
301849;6512
301858;5050
301866;10780
301874;15648
301882;15664
301890;15017
301898;14744
301907;14494
301915;14245
301923;14164
301931;14074
301939;13975
301948;13892
301956;13772
301964;13686
301972;13584
301983;13528
301992;13485
302000;13316
302008;13161
302016;12965
302024;12802
302033;12543
302041;12291
302049;12116
302057;11948
302065;11896
302074;11914
302082;11980
302090;12157
302098;12434
302106;12796
302115;13171
302123;13490
302131;13774
302139;13991
302147;14113
302156;14208
302164;14225
302172;14193
302180;14144
302188;14052
302196;14020
302205;13985
302213;14010
302221;13964
302229;13945
302237;13958
302246;14011
302254;14034
302262;14045
302270;14024
302278;13982
302290;14050
302298;14052
302306;14047
302314;14002
302322;13981
302331;13964
302339;13915
302347;13896
302355;13900
302363;13853
302372;13865
302380;13852
302388;13755
302396;13559
302404;13408
302413;13346
302421;13365
302429;13394
302437;13410
302445;13442
302454;13472
302463;13479
302471;13473
302479;13448
302487;13471
302495;13493
302504;13496
302512;13459
302520;13419
302528;13507
302536;14009
302545;12283
302553;8245
302561;4955
302569;7216
302577;14627
302586;15714
302596;14965
302604;14716
302613;14513
302621;14257
302630;14114
302638;14004
302646;13916
302654;13849
302662;13787
302671;13709
302679;13593
302687;13487
302695;13347
302703;13222
302712;13074
302720;12913
302728;12670
302736;12448
302744;12170
302753;11908
302761;11754
302769;11706
302777;11738
302785;11822
302793;11956
302802;12119
302810;12397
302818;12754
302826;13149
302834;13501
302843;13811
302851;14042
302859;14226
302867;14291
302875;14288
302884;14274
302895;14246
302903;14213
302911;14107
302919;14042
302928;13975
302936;13876
302944;13806
302952;13778
302960;13770
302969;13756
302977;13778
302985;13776
302993;13687
303001;13658
303010;13648
303018;13646
303026;13639
303034;13613
303042;13623
303050;13590
303059;13607
303067;13567
303075;13456
303083;13250
303091;13155
303100;13140
303108;13188
303116;13195
303124;13208
303132;13266
303141;13412
303149;13533
303157;13544
303165;13576
303173;13602
303182;13608
303190;13616
303201;13664
303209;13647
303217;14129
303226;13876
303234;11037
303242;6824
303250;4987
303258;11140
303267;15875
303275;15487
303283;14679
303291;14258
303299;14042
303308;13786
303316;13730
303324;13712
303332;13696
303340;13692
303348;13657
303357;13615
303365;13598
303373;13546
303381;13467
303389;13417
303398;13309
303406;13186
303414;12961
303422;12819
303430;12649
303439;12483
303447;12357
303455;12351
303463;12411
303471;12556
303480;12716
303488;12923
303499;13449
303507;13925
303515;14262
303524;14593
303532;14849
303540;15053
303548;15150
303556;15227
303565;15306
303573;15298
303581;15284
303589;15226
303597;15236
303606;15119
303614;14944
303622;14852
303630;14717
303638;14588
303646;14498
303655;14487
303663;14441
303671;14398
303679;14356
303687;14291
303696;14239
303704;14221
303712;14133
303720;14051
303728;13965
303737;13841
303745;13754
303753;13722
303761;13702
303769;13820
303778;14001
303786;14093
303794;14219
303805;14311
303813;14316
303822;14246
303830;14136
303838;14015
303846;13935
303854;13897
303863;13817
303871;14390
303879;13315
303887;9681
303895;6198
303903;6131
303912;13994
303920;16657
303928;16035
303936;15411
303944;14782
303953;14554
303961;14289
303969;14118
303977;14026
303985;13954
303994;13906
304002;13886
304010;13800
304018;13729
304026;13640
304035;13550
304043;13518
304051;13398
304059;13249
304067;13100
304076;12980
304084;12776
304092;12633
304100;12513
304111;12659
304120;12806
304128;12909
304136;13070
304144;13348
304152;13708
304161;14083
304169;14422
304177;14716
304185;14941
304193;15190
304201;15410
304210;15483
304218;15475
304226;15472
304234;15459
304242;15460
304251;15446
304259;15481
304267;15449
304275;15371
304283;15396
304292;15454
304300;15386
304308;15345
304316;15467
304324;15934
304333;16376
304341;16602
304349;16670
304357;16725
304365;16620
304374;16592
304382;16540
304390;16771
304398;17013
304409;17388
304418;17605
304426;17612
304434;17567
304442;17496
304450;17366
304458;17325
304467;17193
304475;17089
304483;16960
304491;17418
304499;17100
304508;14062
304516;9981
304524;8701
304532;14666
304540;19259
304549;18879
304557;18260
304565;17450
304573;16931
304581;16440
304590;16059
304598;15742
304606;15509
304614;15278
304623;15010
304632;14789
304640;14565
304648;14386
304656;14179
304664;13972
304673;13787
304681;13556
304689;13289
304697;12970
304705;12629
304716;12316
304724;12193
304732;12020
304740;11973
304749;11991
304758;12035
304766;12241
304774;12581
304782;12922
304790;13186
304798;13403
304807;13462
304815;13469
304823;13399
304831;13278
304839;13123
304848;12961
304856;12796
304864;12678
304872;12577
304880;12449
304889;12303
304897;12188
304905;12096
304913;12014
304921;11958
304930;11943
304938;11910
304946;11885
304954;11918
304962;11975
304970;12023
304979;12006
304987;11930
304995;11837
305003;11801
305011;11824
305023;11844
305031;11883
305039;11905
305047;11984
305055;12095
305064;12121
305072;12080
305080;12052
305088;11991
305096;11932
305105;11878
305113;11823
305121;11713
305129;12167
305137;12100
305146;9252
305154;4578
305162;2384
305170;7410
305178;13391
305187;13790
305195;13274
305203;12890
305211;12652
305219;12378
305228;12239
305236;12195
305244;12181
305252;12225
305260;12253
305268;12168
305277;12129
305285;12066
305293;11967
305301;11844
305309;11768
305321;11656
305329;11540
305337;11310
305345;11060
305353;10882
305362;10863
305370;10921
305378;10992
305386;11114
305394;11287
305403;11526
305411;11893
305419;12260
305427;12586
305435;12818
305444;12978
305452;13127
305460;13225
305468;13297
305476;13310
305485;13327
305493;13293
305501;13281
305509;13301
305517;13340
305526;13384
305534;13374
305542;13399
305550;13403
305558;13481
305566;13550
305575;13630
305583;13653
305591;13729
305599;13759
305607;13787
305616;13733
305627;13745
305635;13800
305643;13729
305651;13707
305660;13742
305668;13832
305676;13997
305684;14178
305692;14337
305701;14392
305709;14465
305717;14564
305725;14580
305733;14635
305742;14595
305750;14506
305758;15100
305766;14115
305774;10499
305783;7361
305791;7258
305799;14506
305807;17229
305815;16646
305823;16013
305832;15252
305840;14860
305848;14504
305856;14191
305864;13964
305873;13758
305881;13584
305889;13400
305897;13216
305905;12911
305914;12838
305922;13299
305933;13663
305941;14053
305949;14258
305958;14396
305966;14276
305974;14133
305982;14051
305990;14177
305999;14360
306007;14574
306015;14901
306023;15323
306031;15877
306040;16450
306048;17032
306056;17536
306064;17767
306072;17849
306081;17861
306089;17673
306097;17579
306105;17491
306113;17324
306121;17248
306130;17361
306138;17457
306146;17474
306154;17557
306162;17641
306171;17929
306179;18422
306187;18936
306195;19456
306203;19856
306212;20273
306220;20606
306231;21166
306239;21622
306247;21994
306256;22210
306264;22366
306272;22574
306280;23097
306288;24042
306297;24915
306305;25645
306313;25938
306321;26009
306329;26046
306338;26050
306346;26030
306354;25986
306362;25892
306370;26017
306378;25373
306387;21298
306395;17302
306403;16461
306411;23615
306419;26033
306428;25908
306436;25151
306444;24111
306452;23382
306460;22692
306469;22115
306477;21633
306485;21165
306493;20715
306501;20233
306510;19666
306518;19006
306526;18194
306537;17141
306545;16396
306554;15428
306562;14444
306570;13287
306578;11945
306586;10528
306595;9580
306603;9078
306611;8755
306619;8658
306627;8643
306636;8749
306644;8985
306652;9158
306660;9285
306668;9345
306676;9393
306685;9329
306693;9262
306701;9246
306709;9269
306717;9321
306726;9334
306734;9337
306742;9314
306750;9322
306758;9340
306767;9482
306775;9726
306783;10173
306791;10707
306799;11300
306808;11943
306816;12670
306824;13395
306832;14166
306840;14829
306852;15862
306860;16661
306868;17349
306876;18121
306884;19088
306893;20071
306901;21080
306909;22094
306917;23042
306925;24024
306934;24952
306942;25796
306950;26063
306958;26146
306966;26193
306974;26224
306983;26244
306991;26258
306999;26270
307007;26279
307015;26274
307024;26249
307032;26209
307040;26250
307048;26281
307056;26289
307065;26293
307073;26293
307081;26293
307089;26288
307097;26285
307106;26280
307114;26271
307122;26260
307130;26240
307138;26209
307146;26129
307158;24002
307166;21818
307174;20196
307182;18638
307191;17056
307199;15513
307207;13909
307215;12218
307223;10626
307231;9169
307240;7857
307248;6701
307256;5687
307264;4782
307272;3982
307281;3344
307289;2810
307297;2486
307305;2100
307313;1103
307322;62
307330;7
307338;98
307346;997
307354;1368
307363;1271
307371;991
307379;699
307387;339
307395;80
307404;7
307412;7
307420;6
307428;8
307436;6
307444;5
307452;7
307460;4
307468;7
307476;861
307484;1585
307496;1835
307504;1859
307512;1926
307520;1992
307528;2219
307537;2453
307545;2846
307553;3329
307561;3743
307569;4139
307578;4594
307586;4901
307594;5202
307602;5521
307610;5852
307619;6119
307627;6395
307635;6582
307643;6813
307651;7872
307660;6617
307668;2527
307676;5
307684;8
307692;6938
307700;10642
307709;10809
307717;10464
307725;10309
307733;10348
307741;10323
307750;10492
307758;10693
307766;10929
307774;11181
307782;11475
307791;11757
307799;12022
307807;12315
307818;12739
307826;12985
307835;13114
307843;13129
307851;13101
307859;13091
307867;12992
307876;12927
307884;12955
307892;13067
307900;13183
307908;13326
307917;13531
307925;13853
307933;14204
307941;14562
307949;14798
307958;14886
307966;14908
307974;14842
307982;14639
307990;14365
307999;14214
308008;14243
308016;14440
308024;14462
308032;14156
308040;13403
308049;12761
308057;13212
308065;13655
308073;13721
308081;13544
308090;13334
308098;13166
308106;13019
308114;12858
308125;12749
308134;12609
308142;12448
308150;12342
308158;12238
308166;12121
308175;12030
308183;11958
308191;11689
308199;11257
308207;10923
308216;10902
308224;10847
308232;10836
308240;10975
308248;10761
308257;10691
308265;11267
308273;11914
308281;12303
308289;12458
308297;12381
308306;12326
308314;12274
308322;12203
308330;12040
308338;12278
308347;12277
308355;9707
308363;5199
308371;2665
308379;6040
308388;12974
308396;14043
308404;13508
308412;13133
308420;13083
308432;13055
308440;13073
308448;12970
308456;12945
308464;12931
308473;13050
308481;13259
308489;13531
308497;13797
308505;13995
308514;14200
308522;14346
308530;14410
308538;14227
308546;13875
308554;13439
308563;12997
308571;12709
308579;12597
308587;12632
308595;12393
308604;12174
308612;11889
308620;12000
308628;12537
308636;13320
308645;14108
308653;14601
308661;15079
308669;15706
308677;16035
308686;16021
308694;16080
308702;16191
308710;16091
308718;15958
308730;15963
308738;15957
308746;15821
308754;15714
308762;15622
308771;15642
308779;15549
308787;15255
308795;15120
308803;15214
308812;15417
308820;15607
308828;15816
308836;16002
308844;16163
308852;16194
308861;16110
308869;15959
308877;15692
308885;15329
308893;14839
308902;14427
308910;14221
308918;14121
308926;13929
308934;13743
308943;13689
308951;13814
308959;13953
308967;14050
308975;14203
308984;14315
308992;14335
309000;14238
309008;14090
309016;13890
309025;13637
309036;13463
309044;13362
309052;13339
309060;13702
309069;11842
309077;7843
309085;4722
309093;6373
309101;13562
309110;15409
309118;15253
309126;15038
309134;14956
309142;14775
309150;14712
309159;14762
309167;14888
309175;15168
309183;15257
309191;15211
309200;15203
309208;15132
309216;15070
309224;15005
309232;14886
309241;14747
309249;14435
309257;13985
309265;13447
309273;12893
309282;12296
309290;11674
309298;11290
309306;10787
309314;10881
309322;11228
309331;11969
309342;13153
309350;14131
309358;14940
309367;15284
309375;15765
309383;16321
309391;16832
309399;17004
309407;16761
309416;16499
309424;16465
309432;16373
309440;16292
309448;16151
309457;16469
309465;16953
309473;17450
309481;17880
309489;18139
309498;18418
309506;18998
309514;19535
309522;19668
309530;19269
309539;18636
309547;17836
309555;17047
309563;16273
309571;15404
309580;14484
309588;13593
309596;12475
309604;11702
309612;11543
309620;12266
309629;12676
309640;13123
309648;13165
309656;12865
309665;12532
309673;12275
309681;12036
309689;11891
309697;11760
309705;11666
309714;11616
309722;11559
309730;11517
309738;11379
309746;11274
309755;11164
309763;11006
309771;10623
309779;10171
309787;9835
309796;10424
309804;9564
309812;6047
309820;2241
309828;1531
309837;8264
309845;12640
309853;13025
309861;13037
309869;13481
309878;13948
309886;13629
309894;12742
309902;11816
309910;10611
309918;10587
309927;11408
309935;11822
309946;12317
309954;12421
309962;12286
309971;12039
309979;12023
309987;12395
309995;12971
310003;13719
310012;14256
310020;15115
310028;15940
310036;16448
310044;16740
310053;16862
310061;16456
310069;15796
310077;15445
310085;15251
310094;15132
310102;15077
310110;14928
310118;14785
310126;14557
310135;14393
310143;14216
310151;13981
310159;13683
310167;13366
310177;13208
310185;13008
310193;12886
310201;12867
310209;12865
310217;12849
310226;12850
310234;12935
310242;13132
310252;13440
310260;13658
310270;13752
310278;13771
310286;13719
310294;13632
310302;13468
310311;13236
310319;13044
310327;12934
310335;12893
310343;12845
310352;12685
310360;12557
310368;12522
310376;12506
310384;12460
310393;12481
310401;12431
310409;12344
310417;12257
310425;12334
310434;12382
310442;12444
310450;12423
310458;12413
310466;12347
310474;12177
310483;11858
310491;11585
310499;11368
310507;11156
310515;11169
310524;11438
310532;11752
310540;12029
310551;13025
310559;11046
310568;6772
310576;4113
310584;7210
310592;14391
310600;15439
310609;14955
310617;14563
310625;14405
310633;14233
310641;14205
310650;14213
310658;14244
310666;14173
310674;13496
310682;12438
310691;11250
310699;10131
310707;9217
310715;8308
310723;7518
310732;6679
310740;5657
310748;4186
310756;3788
310764;3958
310772;4178
310781;4623
310789;5077
310797;5575
310805;6214
310813;6820
310822;7504
310830;8256
310838;8991
310846;9606
310854;10176
310866;10951
310874;11390
310882;11730
310890;12050
310898;12246
310907;12402
310915;12449
310923;12596
310931;12726
310939;12675
310948;12583
310956;12513
310964;12404
310972;12378
310980;12427
310989;12433
310997;12425
311005;12555
311013;12772
311021;12840
311030;12854
311038;12798
311046;13005
311054;13201
311062;12902
311070;12666
311079;12718
311087;12821
311095;12894
311103;13099
311111;13326
311120;13553
311128;13803
311136;14076
311144;14354
311152;14547
311161;14657
311172;14814
311180;14964
311188;15005
311196;14996
311205;15063
311213;15096
311221;15558
311229;15112
311237;12178
311246;8581
311254;7377
311262;13479
311270;17979
311278;17708
311287;17082
311295;16427
311303;15953
311311;15175
311319;14437
311327;14000
311336;13582
311344;13194
311352;12719
311360;12382
311368;11849
311377;11321
311385;11026
311393;10840
311401;10701
311409;10461
311418;10183
311426;9931
311434;9514
311442;9074
311450;8770
311459;8627
311467;8534
311478;8676
311486;8920
311494;9200
311503;9591
311511;10201
311519;10704
311527;11094
311535;11381
311544;11542
311552;11547
311560;11486
311568;11385
311576;11293
311585;11148
311593;11003
311601;10893
311609;10775
311617;10694
311625;10639
311634;10648
311642;10706
311650;10804
311658;11019
311666;11206
311675;11473
311683;11858
311691;12320
311699;12644
311707;13036
311716;13405
311724;13678
311732;13887
311740;13963
311748;13975
311757;14042
311765;14059
311773;13955
311784;14134
311792;14393
311801;14590
311809;14760
311817;14809
311825;14862
311833;14883
311842;14959
311850;15059
311858;14946
311866;14738
311874;14985
311882;14905
311891;12361
311899;8736
311907;7456
311915;12100
311923;18210
311932;18235
311940;17842
311948;17405
311956;17061
311964;16824
311973;16570
311981;16399
311989;16319
311997;16240
312005;16168
312014;16073
312022;15932
312030;15775
312038;15642
312046;15533
312055;15350
312063;15128
312071;14856
312079;14621
312090;14359
312099;14110
312107;13888
312115;13752
312123;13691
312131;13731
312140;13847
312148;14088
312156;14442
312164;14760
312172;14999
312180;15108
312189;15192
312197;15235
312205;15227
312213;15197
312221;15193
312230;15136
312238;14948
312246;14829
312254;14752
312262;14646
312271;14509
312279;14446
312287;14361
312295;14234
312303;14150
312312;13972
312320;13712
312328;13565
312336;13410
312344;13258
312353;13177
312361;13060
312369;12877
312377;12717
312388;12499
312397;12415
312405;12323
312413;12191
312421;12210
312429;12259
312438;12319
312446;12353
312454;12399
312462;12421
312470;12455
312478;12537
312487;12694
312495;12821
312503;12842
312511;12956
312519;13587
312528;13383
312536;10584
312544;7013
312552;5756
312560;12072
312569;16952
312577;16987
312585;16760
312593;16506
312601;16493
312610;16438
312618;16295
312626;16396
312634;16568
312642;16736
312650;16894
312659;16973
312667;17019
312675;17154
312683;17284
312695;17285
312703;17135
312711;17023
312719;16835
312727;16417
312735;15935
312744;15587
312752;15356
312760;15285
312768;15251
312776;15273
312785;15477
312793;15835
312801;16330
312809;16719
312817;17066
312826;17435
312834;17545
312842;17563
312850;17499
312858;17422
312867;17395
312875;17302
312883;17152
312891;16950
312899;16843
312908;16722
312916;16505
312924;16331
312932;16139
312940;15920
312948;15685
312957;15446
312965;15206
312973;14995
312981;14804
312989;14665
313001;14450
313009;14250
313017;13843
313025;13439
313033;13081
313042;12848
313050;12635
313058;12531
313066;12465
313074;12602
313083;12846
313091;13096
313099;13317
313107;13392
313115;13391
313124;13319
313132;13242
313140;13214
313148;13245
313156;13284
313165;14031
313173;12790
313181;8764
313189;4757
313197;4892
313207;12691
313215;15090
313223;14886
313231;14661
313239;14592
313247;14477
313256;14262
313264;14150
313272;13988
313280;13840
313288;13732
313299;13642
313307;13542
313315;13331
313323;13161
313332;12928
313341;12711
313349;12422
313357;12157
313365;11891
313373;11786
313382;11676
313390;11487
313398;11422
313406;12051
313414;12697
313423;12335
313431;12837
313439;13394
313447;13676
313455;14279
313464;14902
313472;15276
313480;15388
313488;15367
313496;15305
313505;15283
313513;15234
313521;15022
313529;14732
313537;14491
313545;14303
313554;14091
313562;13899
313570;13762
313578;13652
313586;13541
313595;13417
313606;13177
313614;12881
313622;12716
313630;12629
313639;12112
313647;11886
313655;11784
313663;11573
313671;11542
313680;11579
313688;11545
313696;12201
313704;12952
313712;13053
313721;12895
313729;12891
313737;13067
313745;13078
313753;13060
313762;12954
313770;12627
313778;12208
313786;12000
313794;11896
313802;12506
313811;12079
313819;8658
313827;4162
313835;2810
313843;9280
313852;14407
313860;14751
313868;14283
313876;13995
313884;13794
313893;13601
313901;13533
313912;13684
313920;13747
313928;13714
313937;13689
313945;13720
313953;13889
313961;14026
313969;13976
313978;13930
313986;13917
313994;13923
314002;13925
314010;13763
314019;13702
314027;13753
314035;13576
314043;13513
314051;13763
314060;14081
314068;14361
314076;14825
314084;15214
314092;15182
314100;15202
314109;15308
314117;15353
314125;15384
314133;15294
314141;15208
314150;15204
314158;15150
314166;14989
314174;14807
314182;14636
314191;14434
314199;14162
314210;13905
314218;13738
314226;13645
314235;13642
314243;13717
314251;13790
314259;13830
314267;13882
314276;14013
314284;14018
314292;13990
314300;13912
314308;13740
314317;13571
314325;13418
314333;13301
314341;13246
314349;13243
314358;13279
314366;13241
314374;13253
314382;13199
314390;13100
314398;12992
314407;12889
314415;12715
314423;12615
314431;12501
314439;12303
314448;12222
314456;12846
314464;11005
314472;6484
314480;2434
314489;3526
314497;11347
314505;13300
314516;13088
314524;12770
314533;12312
314541;12103
314549;12001
314557;11972
314565;12030
314574;12112
314582;12263
314590;12429
314598;12465
314606;12429
314615;12499
314623;12668
314631;12818
314639;12918
314647;12865
314655;12877
314664;12770
314672;12740
314680;12809
314688;12889
314696;13017
314705;13206
314713;13400
314721;13620
314729;13965
314737;14435
314746;14965
314754;15449
314762;15911
314770;16358
314778;16669
314787;16821
314795;16730
314803;16546
314811;16499
314822;16487
314831;16460
314839;16356
314847;16207
314855;16031
314863;15899
314872;15761
314880;15588
314888;15488
314896;15484
314904;15437
314913;15376
314921;15271
314929;15142
314937;14977
314945;14743
314953;14380
314962;14112
314970;13864
314978;13621
314986;13469
314994;13342
315003;13345
315011;13409
315019;13465
315027;13443
315035;13325
315044;13206
315052;13056
315060;12977
315068;12892
315076;12791
315085;12707
315093;12567
315101;13283
315109;12631
315120;7027
315129;3276
315137;4429
315145;12676
315153;14446
315161;14179
315170;13720
315178;13488
315186;13284
315194;13087
315202;12905
315210;12767
315219;12595
315227;12426
315235;12096
315243;11858
315251;11819
315260;11692
315268;11383
315276;11107
315284;10891
315292;10717
315301;10525
315309;10339
315317;10141
315325;10077
315333;10200
315342;10436
315350;10714
315358;11090
315366;11512
315374;11996
315383;12463
315391;12992
315399;13350
315407;13582
315415;13729
315427;13881
315435;13944
315443;14095
315451;14226
315459;14344
315468;14392
315476;14459
315484;14438
315492;14456
315500;14481
315508;14527
315517;14598
315525;14708
315533;14774
315541;14902
315549;15116
315558;15463
315566;15343
315574;15059
315582;14974
315590;14952
315599;14986
315607;15133
315615;15080
315623;14877
315631;14843
315640;14950
315648;15104
315656;15165
315664;15153
315672;15234
315681;15244
315689;15185
315698;15087
315706;15119
315714;14956
315722;14800
315733;15284
315741;14757
315749;11350
315757;7503
315766;6488
315774;13169
315782;17109
315790;16754
315798;16176
315806;15578
315816;15205
315824;14837
315832;14514
315840;14348
315848;14197
315857;14041
315865;13885
315873;13715
315881;13526
315889;13449
315898;13294
315906;13033
315914;12734
315922;12419
315930;12111
315939;11740
315947;11323
315955;10995
315963;10754
315971;10731
315980;10844
315988;11038
315996;11275
316004;11617
316012;12095
316020;12607
316032;13180
316040;13471
316048;13609
316056;13704
316065;13734
316073;13774
316081;13793
316089;13885
316097;13842
316105;13865
316114;13880
316122;13864
316130;13910
316138;13989
316146;14065
316155;14192
316163;14257
316171;14320
316179;14485
316187;14659
316196;14822
316204;14910
316212;14896
316220;14890
316228;14927
316237;14865
316245;14876
316253;14791
316261;14788
316269;14663
316278;14506
316286;14421
316294;14385
316302;14315
316310;14218
316318;14066
316327;13934
316338;13872
316346;13762
316354;13533
316362;13334
316371;13155
316379;13387
316387;13758
316395;11114
316403;6222
316412;3407
316420;7069
316428;14345
316436;15310
316444;15013
316453;14587
316461;14393
316469;14103
316477;13935
316485;13811
316494;13760
316502;13725
316510;13661
316518;13555
316526;13584
316535;13579
316543;13564
316551;13513
316559;13414
316567;13295
316575;13121
316584;12923
316592;12804
316600;12669
316608;12646
316616;12347
316625;12328
316633;12548
316644;12855
316652;13005
316660;13221
316669;13569
316677;13834
316685;14006
316693;14268
316701;14469
316710;14638
316718;14725
316726;14774
316734;14773
316742;14773
316751;14713
316759;14621
316767;14566
316775;14599
316783;14573
316792;14622
316800;14617
316808;14679
316816;14734
316824;14735
316833;14706
316841;14713
316849;14701
316857;14675
316865;14631
316873;14591
316882;14528
316890;14434
316898;14273
316906;14126
316914;13996
316923;13818
316931;13719
316942;13684
316950;13683
316958;13642
316967;13452
316975;13245
316983;13029
316991;12893
316999;12761
317008;12682
317016;12588
317024;12499
317032;13264
317040;12523
317049;8667
317057;3939
317065;3037
317073;9930
317081;14287
317090;14475
317098;14011
317106;13888
317114;13611
317122;13368
317130;13295
317139;13226
317147;13127
317155;13064
317163;13051
317171;13048
317180;13029
317188;13040
317196;13118
317204;13160
317212;13102
317221;13092
317229;13003
317237;12917
317248;12759
317256;12790
317265;12827
317273;12960
317281;13084
317289;13311
317297;13572
317306;13930
317314;14327
317322;14721
317330;14948
317338;15098
317347;15204
317355;15322
317363;15335
317371;15304
317379;15221
317388;15166
317396;15079
317404;14979
317412;14918
317421;14851
317430;14705
317438;14658
317446;14619
317454;14559
317462;14528
317470;14531
317479;14470
317487;14451
317495;14461
317503;14404
317511;14411
317520;14434
317528;14415
317536;14338
317544;14333
317555;14200
317564;14067
317572;13787
317580;13593
317588;13467
317596;13339
317605;13299
317613;13337
317621;13371
317629;13424
317637;13511
317646;13514
317654;13442
317662;13372
317670;13359
317678;13300
317687;13149
317695;13034
317703;12886
317711;13667
317719;12771
317727;8726
317736;4049
317744;3435
317752;10851
317760;14902
317768;15003
317777;14567
317785;14426
317793;14329
317801;14199
317809;14193
317818;14179
317826;14188
317834;14213
317842;14258
317853;14362
317862;14458
317870;14463
317878;14440
317886;14321
317894;14178
317903;13940
317911;13692
317919;13415
317927;13029
317935;12725
317944;12532
317952;12442
317960;12470
317968;12580
317976;12687
317985;12818
317993;13144
318001;13528
318009;13844
318017;14070
318025;14237
318034;14256
318042;14268
318050;14213
318058;14245
318066;14317
318075;14347
318083;14305
318091;14215
318099;14122
318107;14025
318116;13944
318124;13826
318132;13639
318140;13413
318148;13255
318160;13180
318168;13090
318176;13032
318184;13031
318192;13092
318201;13170
318209;13212
318217;13275
318225;13264
318233;13313
318242;13377
318250;13451
318258;13665
318266;13858
318274;14026
318282;14124
318291;14216
318299;14302
318307;14382
318315;14405
318323;14351
318332;14277
318340;14260
318348;14201
318356;14161
318364;14032
318373;13899
318381;14721
318389;13856
318397;9648
318405;4772
318414;4231
318422;12114
318430;15505
318438;15246
318446;14629
318455;14370
318466;14108
318474;13864
318482;13535
318490;13178
318499;12885
318507;12688
318515;12535
318523;12409
318531;12251
318540;12163
318548;12087
318556;12038
318564;11993
318572;11854
318580;11719
318589;11645
318597;11595
318605;11597
318613;11724
318621;11881
318630;12067
318638;12289
318646;12486
318654;12742
318662;13127
318671;13581
318679;13963
318687;14341
318695;14621
318703;14736
318712;14803
318720;14842
318728;14778
318736;14705
318744;14589
318753;14508
318764;14418
318772;14392
318780;14244
318788;14189
318797;14081
318805;14001
318813;13806
318821;13687
318829;13495
318838;13287
318846;13091
318854;13073
318862;12933
318870;12764
318878;12664
318887;12710
318895;12746
318903;12866
318911;13023
318919;13222
318928;13432
318936;13680
318944;13898
318952;14071
318960;14257
318969;14418
318977;14426
318985;14435
318993;14356
319001;14288
319010;14285
319018;14361
319026;15160
319034;13619
319042;9255
319050;5553
319059;6754
319070;16366
319078;16532
319086;15861
319095;15182
319103;14873
319111;14529
319119;14199
319127;13936
319135;13720
319144;13561
319152;13324
319160;13017
319168;12884
319176;12806
319185;12650
319193;12476
319201;12241
319209;12002
319217;11749
319226;11551
319234;11376
319242;11166
319250;11061
319258;11155
319267;11305
319275;11540
319283;11759
319291;12036
319299;12455
319308;12894
319316;13256
319324;13653
319332;13997
319340;14336
319348;14521
319357;14646
319365;14754
319376;14889
319384;14905
319393;14812
319401;14785
319409;14800
319417;14829
319425;14837
319433;14806
319442;14914
319450;15011
319458;15065
319466;15052
319474;15048
319483;14937
319491;14860
319499;14750
319507;14717
319515;14710
319524;14780
319532;14839
319540;14880
319548;14903
319556;14864
319565;14731
319574;14570
319582;14449
319590;14347
319598;14286
319607;14195
319615;14005
319623;13873
319631;14331
319639;13656
319647;10109
319656;6215
319664;5124
319682;16117
319692;15529
319700;14885
319708;14305
319716;14030
319724;13731
319732;13488
319741;13374
319749;13323
319757;13264
319765;13165
319773;13189
319782;13165
319790;13138
319798;13099
319806;13047
319814;13034
319823;12994
319831;12873
319839;12717
319847;12531
319855;12394
319864;12301
319872;12343
319880;12397
319888;12554
319896;12851
319905;13235
319913;13748
319921;14261
319929;14734
319937;15134
319945;15407
319954;15588
319962;15672
319970;15716
319978;15683
319990;15492
319998;15374
320006;15154
320014;14920
320022;14769
320030;14627
320039;14461
320047;14332
320055;14280
320063;14200
320071;14143
320080;14100
320088;14078
320096;14037
320104;14071
320112;14080
320121;14074
320129;14147
320137;14230
320145;14279
320153;14263
320162;14164
320170;13986
320178;13796
320186;13641
320194;13492
320202;13431
320211;13324
320219;13147
320227;13179
320235;13409
320243;11272
320252;7049
320260;4566
320268;7548
320276;14815
320284;15314
320296;14682
320304;14132
320312;13800
320320;13446
320328;13208
320337;13121
320345;13065
320353;13019
320361;13016
320369;13082
320378;13142
320386;13164
320394;13271
320402;13304
320410;13274
320419;13210
320427;13143
320435;13060
320443;12919
320451;12839
320460;12854
320468;13000
320476;13246
320484;13452
320492;13653
320500;13923
320509;14324
320517;14723
320525;15078
320533;15374
320541;15552
320550;15661
320558;15680
320566;15591
320574;15515
320582;15424
320594;15225
320602;15068
320610;14779
320618;14621
320626;14479
320635;14332
320643;14176
320651;14118
320659;13968
320667;13809
320676;13601
320684;13494
320692;13393
320700;13454
320708;13344
320717;13260
320725;13031
320733;12984
320741;12873
320749;12891
320758;12812
320766;12802
320774;12826
320782;12899
320790;12962
320798;13066
320807;13084
320815;13122
320823;13261
320831;13621
320839;11694
320848;7323
320856;4067
320864;6765
320872;14105
320880;15230
320889;14834
320900;14476
320908;14274
320916;14096
320924;13965
320933;13959
320941;13924
320949;13939
320957;13950
320965;14035
320974;14000
320982;14002
320990;13921
320998;13908
321006;13747
321015;13611
321023;13304
321031;13029
321039;12714
321047;12434
321055;12245
321064;12207
321072;12284
321080;12390
321088;12538
321096;12788
321105;13116
321113;13516
321121;13889
321129;14300
321137;14566
321146;14672
321154;14722
321162;14747
321170;14705
321178;14597
321187;14533
321195;14411
321270;16148
321278;15607
321286;15078
321294;14613
321302;14313
321310;14035
321319;13894
321327;13715
321335;13674
321343;13629
321351;13542
321360;13388
321368;13219
321376;13067
321384;13080
321392;13074
321401;13014
321410;12911
321418;12863
321426;13534
321434;12089
321443;7713
321451;3414
321459;3845
321467;11954
321475;14738
321484;14537
321492;13956
321500;13678
321508;13332
321516;13137
321524;13007
321533;13034
321541;13027
321549;13055
321557;12991
321565;13062
321577;13094
321585;13162
321593;13054
321601;12931
321609;12756
321618;12536
321626;12274
321634;12097
321642;11929
321650;11816
321659;11769
321667;11892
321675;12022
321683;12226
321691;12468
321700;12895
321708;13320
321716;13729
321724;14063
321732;14339
321741;14424
321749;14526
321757;14471
321765;14463
321773;14343
321782;14248
321790;14167
321798;14117
321806;14064
321814;14122
321822;14107
321831;14176
321839;14282
321847;14450
321855;14627
321863;14716
321875;14809
321883;14836
321891;14591
321899;14399
321907;14228
321916;14249
321924;14183
321932;14243
321940;14319
321948;14426
321957;14513
321965;14661
321973;14698
321981;14691
321989;14650
321998;14619
322006;14623
322014;14653
322022;14630
322030;14511
322039;15061
322047;14732
322055;11388
322063;6197
322071;4111
322079;10078
322088;15741
322096;15960
322104;15433
322112;15249
322120;15104
322129;14925
322137;14868
322145;14793
322153;14795
322161;14832
322170;14819
322181;14795
322189;14754
322197;14709
322205;14692
322214;14576
322222;14005
322230;13376
322238;12777
322246;12253
322255;11885
322263;11723
322271;11772
322279;11880
322287;12000
322296;12133
322304;12302
322312;12589
322320;13003
322328;13465
322337;13829
322345;14057
322353;14184
322361;14242
322369;14266
322377;14186
322386;14084
322394;13977
322402;13886
322410;13784
322418;13754
322427;13672
322435;13687
322443;13736
322451;13727
322459;13786
322468;13865
322479;14004
322487;14066
322495;14060
322503;14077
322512;14178
322520;14268
322528;14402
322536;14506
322544;14536
322553;14465
322561;14524
322569;14697
322577;14798
322585;14880
322594;14973
322602;15113
322610;15280
322618;15500
322626;15557
322634;15620
322643;15664
322651;15742
322659;15793
322667;15793
322675;15777
322684;15672
322692;16295
322700;15219
322708;11228
322716;6701
322725;6647
322733;14313
322741;17592
322749;17468
322757;16946
322766;16732
322774;16368
322785;16090
322793;15933
322801;15776
322810;15560
322818;15419
322826;15250
322834;15137
322842;14999
322851;14804
322859;14509
322867;14239
322875;14000
322883;13725
322892;13382
322900;13118
322908;12896
322916;12769
322924;12739
322932;12820
322941;12842
322949;12936
322957;13119
322965;13394
322973;13637
322982;13954
322990;14179
322998;14378
323006;14482
323014;14560
323023;14547
323031;14528
323039;14420
323047;14331
323055;14171
323064;14071
323072;13952
323080;13885
323091;13852
323099;13868
323108;13797
323116;13769
323124;13698
323132;13706
323140;13635
323149;13656
323157;13655
323165;13627
323173;13656
323181;13662
323190;13505
323198;13305
323206;13192
323214;13183
323222;13203
323230;13181
323239;13166
323247;13212
323255;13292
323263;13452
323271;13408
323280;13388
323288;13390
323296;13335
323304;13280
323312;13265
323321;13217
323330;13161
323338;13599
323346;13520
323354;10479
323363;5555
323371;3390
323379;9631
323389;15336
323397;14952
323406;14393
323414;14282
323422;14050
323430;13879
323438;13754
323447;13663
323455;13562
323463;13483
323471;13368
323480;13308
323489;13209
323497;13182
323505;13084
323513;12939
323521;12783
323529;12614
323538;12425
323546;12189
323554;11948
323562;11790
323570;11687
323579;11689
323587;11783
323595;11928
323603;12095
323611;12338
323620;12737
323628;13133
323636;13442
323644;13681
323652;13887
323661;14049
323669;14138
323677;14169
323685;14154
323696;14203
323705;14175
323713;14062
323721;13955
323729;13878
323737;13820
323746;13837
323754;13784
323762;13805
323770;13760
323778;13646
323786;13623
323795;13577
323803;13463
323811;13421
323819;13226
323827;13004
323836;12847
323844;12675
323852;12562
323860;12339
323868;12167
323877;12016
323885;11891
323893;11707
323901;11546
323909;11346
323918;11157
323926;10955
323934;10885
323942;10811
323950;10824
323959;10918
323967;11626
323975;9981
323983;5612
323991;2024
324003;8008
324011;13905
324019;13505
324027;12756
324035;12214
324044;12028
324052;11792
324060;11623
324068;11489
324076;11417
324084;11388
324093;11345
324101;11318
324109;11335
324117;11355
324125;11393
324134;11479
324142;11510
324150;11454
324158;11320
324166;11164
324175;10976
324183;10917
324191;10865
324199;10938
324207;11194
324216;11436
324224;11733
324232;12148
324240;12560
324248;13056
324257;13558
324265;14106
324273;14568
324281;14894
324289;15180
324301;15385
324309;15445
324317;15433
324325;15358
324333;15284
324342;15208
324350;15154
324358;15073
324366;15016
324374;14975
324382;14951
324391;14896
324399;14882
324407;14819
324415;14640
324423;14524
324432;14466
324440;14397
324448;14341
324456;14376
324464;14410
324473;14482
324481;14547
324489;14562
324497;14569
324505;14822
324514;15254
324522;15686
324530;16099
324538;16358
324546;16459
324554;16741
324563;17014
324571;14937
324579;11005
324587;8563
324595;12580
324607;19386
324615;18820
324623;18144
324631;17611
324639;17188
324648;16645
324656;16090
324664;15663
324672;15225
324680;14893
324689;14525
324697;14148
324705;13761
324713;13367
324721;12996
324730;12687
324738;12436
324746;12258
324754;12160
324762;12106
324771;12253
324779;12405
324787;12620
324795;12755
324803;12757
324812;12605
324820;12397
324828;12096
324836;11983
324844;11987
324852;12109
324861;12198
324869;12354
324877;12502
324885;12725
324893;12879
324902;13033
324913;13215
324921;13338
324929;13363
324937;13283
324946;13206
324954;13179
324962;13170
324970;13170
324978;13149
324987;13159
324995;13109
325003;13093
325011;13119
325019;13222
325028;13223
325036;13283
325044;13328
325052;13361
325060;13374
325069;13348
325077;13341
325085;13331
325093;13274
325101;13291
325110;13288
325118;13323
325126;13302
325134;13228
325142;13767
325150;13138
325159;10050
325167;6559
325175;5510
325183;12108
325191;15751
325200;15424
325211;14724
325219;14429
325227;14150
325235;13956
325244;13785
325252;13728
325260;13634
325268;13585
325276;13510
325285;13447
325293;13318
325301;13170
325309;13058
325317;12975
325326;12862
325334;12698
325342;12522
325350;12394
325358;12128
325367;12058
325376;12008
325384;12070
325392;12289
325400;12488
325409;12712
325417;12988
325425;13280
325433;13653
325441;13941
325449;14160
325458;14327
325466;14492
325474;14593
325482;14627
325490;14640
325499;14640
325507;14560
325518;14587
325526;14619
325534;14551
325543;14564
325551;14625
325559;14629
325567;14623
325575;14561
325584;14558
325592;14499
325600;14552
325608;14497
325616;14527
325625;14570
325633;14589
325641;14654
325649;14783
325657;14886
325666;14851
325674;14774
325682;14768
325690;14707
325698;14622
325706;14539
325715;14455
325723;14786
325731;14591
325739;11918
325747;8015
325756;6005
325764;10837
325772;16276
325780;16354
325788;15933
325797;15464
325805;15152
325813;14874
325824;14691
325832;14617
325841;14449
325849;14364
325857;14249
325865;14102
325873;13912
325882;13769
325890;13580
325898;13379
325906;13219
325914;13043
325923;12785
325931;12541
325939;12245
325947;12042
325955;11965
325964;11967
325972;12040
325980;12191
325988;12390
325996;12640
326004;12984
326013;13349
326021;13634
326029;13890
326037;14021
326045;14118
326054;14165
326062;14259
326070;14225
326078;14209
326086;14187
326095;14143
326103;14030
326111;13986
326122;14022
326130;14064
326139;13970
326147;13878
326155;13852
326163;13742
326171;13648
326180;13618
326188;13566
326196;13538
326204;13589
326212;13656
326221;13705
326229;13819
326237;13872
326245;13859
326253;13858
326262;13824
326270;13822
326278;13798
326286;13789
326294;13756
326302;13743
326311;14341
326319;13576
326327;10252
326335;6381
326343;5063
326352;11476
326360;15578
326368;15554
326376;15111
326384;14634
326393;14356
326401;14070
326409;13840
326417;13780
326428;13833
326437;13799
326445;13719
326453;13636
326461;13555
326469;13457
326478;13356
326486;13224
326494;13035
326502;12814
326510;12593
326519;12329
326527;12098
326535;11941
326543;11945
326551;11984
326559;12064
326568;12222
326576;12417
326584;12742
326592;13087
326600;13345
326609;13544
326617;13702
326625;13779
326633;13765
326641;13736
326650;13848
326658;13870
326666;13864
326674;13707
326682;13699
326691;13596
326699;13639
326707;13575
326715;13786
326723;13707
326735;13921
326743;13992
326751;14039
326759;13941
326767;13913
326776;13839
326784;13861
326792;13836
326800;14069
326808;14056
326817;14164
326825;14121
326833;14202
326841;14052
326849;14108
326857;14069
326866;14267
326874;14235
326882;14415
326890;14259
326898;14277
326907;14785
326915;14135
326923;10562
326931;6429
326939;5428
326948;12325
326956;15870
326964;15878
326972;15283
326980;15020
326989;14778
326997;14641
327005;14514
327013;14396
327021;14200
327033;14184
327041;14050
327049;13987
327057;13877
327065;13786
327074;13601
327082;13576
327090;13445
327098;13375
327106;12988
327114;12847
327123;12554
327131;12562
327139;12426
327147;12558
327155;12698
327164;12946
327172;13050
327180;13351
327188;13648
327196;14060
327205;14255
327213;14497
327221;14588
327229;14639
327237;14496
327246;14356
327254;14081
327262;13775
327270;13371
327278;13040
327287;12713
327295;12564
327303;12269
327311;12194
327319;11968
327327;11958
327339;12135
327347;12463
327355;12624
327363;12787
327372;12789
327380;12887
327388;12929
327396;12880
327404;12843
327412;12885
327421;12938
327429;13151
327437;13339
327445;13497
327453;13613
327462;13975
327470;14132
327478;14266
327486;14743
327494;15209
327503;14940
327511;15244
327519;14246
327527;11339
327535;7449
327544;6820
327552;13343
327560;16523
327568;16085
327576;15332
327585;14782
327593;14459
327601;14036
327609;13796
327617;13605
327625;13628
327634;13629
327645;13740
327653;13693
327661;13681
327670;13626
327678;13690
327686;13507
327694;13615
327702;13489
327710;13542
327719;13343
327727;13130
327735;12776
327743;12733
327751;12722
327760;12845
327768;12980
327776;13240
327784;13470
327792;13871
327801;14343
327809;14971
327817;15598
327825;16129
327833;16316
327842;16309
327850;16524
327858;16546
327866;16371
327874;16098
327882;16013
327891;15867
327899;15654
327907;15385
327915;15698
327923;15629
327932;15452
327943;15545
327951;15779
327959;15845
327967;15824
327976;16047
327984;15940
327992;15882
328000;15862
328008;15927
328017;16038
328025;16173
328033;16285
328041;16293
328049;16256
328058;16181
328066;16179
328074;16028
328082;16166
328090;16233
328099;16371
328107;16044
328115;14011
328123;10800
328131;10777
328140;14602
328148;19629
328156;19208
328164;18405
328172;17391
328180;16959
328189;16622
328197;16438
328205;16183
328213;16134
328221;16005
328230;16034
328238;15733
328249;15705
328257;15547
328265;15317
328274;15096
328282;14964
328290;14770
328298;14594
328306;14358
328315;14231
328323;14049
328331;14126
328339;14138
328347;14389
328356;14424
328364;14800
328372;15099
328380;15478
328388;15689
328397;16163
328405;16355
328413;16703
328421;16924
328429;17157
328438;17267
328446;17305
328454;17281
328462;17193
328470;17099
328478;16937
328487;16682
328496;16495
328504;16456
328512;16281
328520;16188
328529;16001
328537;15880
328547;15636
328555;15598
328563;15531
328572;15512
328580;15416
328588;15535
328596;15543
328604;15626
328613;15619
328622;15679
328630;15631
328638;15601
328646;15540
328655;15468
328663;15284
328671;15201
328679;15089
328687;14986
328696;14196
328704;11931
328712;8931
328720;8791
328728;13298
328737;17685
328745;16911
328753;15990
328761;14849
328769;14293
328777;13951
328786;13538
328794;13334
328802;13132
328810;13035
328818;12991
328827;12882
328835;12792
328843;12601
328854;12565
328862;12424
328871;12317
328879;12040
328887;11881
328895;11608
328903;11321
328912;11144
328920;11193
328928;11257
328936;11418
328944;11542
328953;11882
328961;12172
328969;12541
328977;12899
328985;13273
328994;13535
329002;13754
329010;13812
329018;13878
329026;13912
329034;13930
329043;13916
329051;13909
329059;13847
329067;13732
329075;13732
329084;13706
329092;13677
329100;13651
329108;13677
329116;13620
329125;13609
329133;13524
329141;13442
329149;13358
329160;13400
329169;13464
329177;13449
329185;13466
329193;13507
329201;13483
329210;13558
329218;13678
329226;13791
329234;13857
329242;13882
329251;13815
329259;13819
329267;13787
329275;13692
329283;13585
329292;13503
329300;13311
329308;11853
329316;8770
329324;7348
329332;10449
329341;16179
329349;16455
329357;15584
329365;14691
329373;14371
329382;14007
329390;13850
329398;13664
329406;13581
329414;13445
329423;13405
329431;13237
329439;13202
329447;13125
329458;13068
329467;12978
329475;12827
329483;12614
329491;12383
329499;12113
329508;11868
329516;11632
329524;11519
329532;11475
329540;11542
329549;11614
329557;11838
329565;12089
329573;12445
329581;12847
329590;13239
329598;13556
329606;13800
329614;13977
329622;14184
329630;14169
329639;14164
329647;14195
329655;14184
329663;14129
329671;14084
329680;13983
329688;13965
329696;13889
329704;13946
329712;13914
329721;13942
329729;13832
329737;13803
329745;13727
329753;13743
329765;13672
329773;13654
329781;13614
329789;13616
329797;13622
329806;13673
329814;13694
329822;13786
329830;13894
329838;13990
329847;13956
329855;13996
329863;13934
329871;13922
329879;13843
329887;13850
329896;13715
329904;13796
329912;12800
329920;10313
329928;7977
329937;8727
329945;14786
329953;16800
329961;16078
329969;15115
329978;14566
329986;14311
329994;13982
330002;13831
330010;13708
330019;13631
330027;13535
330035;13485
330043;13390
330051;13279
330060;13139
330071;13083
330079;12945
330087;12746
330095;12514
330104;12324
330112;12025
330120;11833
330128;11621
330136;11620
330145;11615
330153;11747
330161;11857
330169;12148
330177;12464
330185;12798
330194;13177
330202;13547
330210;13789
330218;13970
330226;14052
330235;14145
330243;14168
330251;14212
330259;14160
330267;14171
330276;14139
330284;14126
330292;14063
330300;14049
330308;13992
330317;13948
330325;13925
330333;13907
330341;13917
330349;13845
330358;13810
330369;13837
330377;13817
330385;13878
330393;13718
330402;13561
330410;13409
330418;13347
330426;13368
330434;13395
330442;13413
330451;13321
330459;13367
330467;13447
330475;13563
330483;13527
330492;13562
330500;13526
330508;13614
330516;13499
330524;13609
330533;13451
330541;13465
330549;13167
330557;11598
330565;8349
330574;7014
330583;10640
330591;16210
330599;16491
330607;15556
330616;14894
330624;14569
330632;14324
330640;14115
330648;14053
330657;13976
330665;14002
330675;14019
330683;13987
330691;13972
330700;13777
330708;13670
330717;13464
330725;13319
330733;13096
330742;12922
330750;12634
330758;12314
330766;12101
330774;11963
330782;12025
330791;12057
330799;12190
330807;12453
330815;12799
330823;13131
330832;13611
330840;13996
330848;14371
330856;14561
330864;14708
330873;14769
330881;14824
330889;14805
330897;14845
330905;14693
330914;14702
330922;14516
330930;14496
330938;14274
330946;14246
330954;14101
330963;14157
330974;14066
330982;14109
330990;14007
330999;14012
331007;13903
331015;13947
331023;13860
331031;13869
331039;13724
331048;13670
331056;13472
331064;13371
331072;13206
331080;13279
331089;13134
331097;13195
331105;13076
331113;13178
331121;13178
331130;13324
331138;13213
331146;13294
331154;13174
331162;13242
331171;13145
331179;13220
331187;13085
331195;13104
331203;13264
331212;12708
331220;10318
331228;6893
331236;6222
331244;11776
331252;15856
331261;15657
331269;14587
331280;14048
331288;13631
331297;13471
331305;13282
331313;13245
331321;13088
331329;13117
331337;12969
331346;13016
331354;12879
331362;12851
331370;12683
331378;12664
331387;12448
331395;12420
331403;12123
331411;12022
331419;11701
331428;11667
331436;11446
331444;11507
331452;11493
331460;11746
331469;11853
331477;12193
331485;12583
331493;13074
331501;13363
331510;13706
331518;13858
331526;14097
331534;14057
331542;14177
331550;14131
331559;14169
331567;14100
331575;14049
331586;14020
331594;14118
331603;13934
331611;13965
331619;13846
331627;13873
331635;13712
331644;13806
331652;13666
331660;13740
331668;13680
331676;13760
331685;13716
331693;13787
331701;13724
331709;13767
331717;13673
331726;13716
331734;13642
331742;13722
331750;13643
331758;13533
331767;13324
331775;13286
331783;13294
331791;13373
331799;13344
331807;13342
331816;13418
331824;13496
331832;13592
331840;13650
331848;13660
331857;13654
331865;13680
331873;13672
331884;13664
331892;13722
331901;13851
331909;13353
331917;11068
331925;7806
331933;7284
331942;12628
331950;16503
331958;16138
331966;15007
331974;14527
331983;14136
331991;13835
331999;13654
332007;13560
332015;13451
332024;13326
332032;13335
332040;13281
332048;13252
332056;13176
332065;13127
332073;13029
332081;12993
332089;12857
332097;12740
332105;12393
332114;12195
332122;11944
332130;11919
332138;11768
332146;11880
332155;11859
332163;12102
332171;12237
332179;12663
332190;13130
332199;13544
332207;13830
332215;14062
332223;14137
332231;14233
332240;14223
332248;14295
332256;14225
332264;14242
332272;14150
332281;14184
332289;14076
332297;14151
332305;14068
332313;14100
332322;14012
332330;14080
332338;13902
332346;14004
332354;13923
332362;14086
332371;13961
332379;14070
332387;13941
332395;14095
332403;13972
332412;14031
332420;13833
332428;13960
332436;13754
332444;13853
332453;13667
332461;13847
332469;13568
332477;13566
332485;13259
332497;13386
332505;13391
332513;13462
332521;13326
332529;13490
332538;13435
332546;13677
332554;13637
332562;13717
332570;13563
332579;13648
332587;13507
332595;13595
332603;13471
332611;13568
332620;13494
332628;12273
332636;8871
332644;7057
332652;9329
332660;15921
332669;16425
332677;15579
332685;14595
332693;14328
332701;13879
332710;13759
332718;13463
332726;13478
332734;13278
332742;13346
332751;13116
332759;13224
332767;12979
332775;13042
332783;12847
332795;12795
332803;12523
332811;12470
332819;12081
332827;11905
332836;11593
332844;11550
332852;11380
332860;11419
332868;11418
332877;11633
332885;11785
332893;12168
332901;12455
332909;12976
332918;13156
332926;13559
332934;13619
332942;13871
332950;13824
332958;14021
332967;13959
332975;14060
332983;13904
332991;13984
332999;13882
333008;13934
333016;13773
333024;13841
333032;13793
333040;13885
333049;13817
333057;13888
333065;13881
333073;13937
333081;13928
333091;14023
333101;13950
333109;14227
333117;14059
333125;14226
333134;14071
333142;14247
333150;14132
333158;14198
333166;14007
333175;14043
333183;13818
333191;13813
333199;13708
333207;13852
333215;13759
333224;13900
333233;13866
333241;14076
333249;14126
333257;14155
333266;14059
333274;14139
333282;14047
333290;14043
333298;13998
333307;13903
333315;13955
333323;13580
333331;11534
333339;8315
333348;7596
333356;12340
333364;17321
333372;16773
333380;15881
333389;14931
333397;14642
333408;14333
333416;14055
333424;14003
333433;13876
333441;13819
333449;13711
333457;13749
333465;13659
333474;13645
333482;13494
333490;13389
333498;13197
333506;13053
333514;12905
333523;12721
333531;12481
333539;12219
333547;12098
333555;12043
333564;12193
333572;12292
333580;12471
333588;12563
333596;13006
333605;13303
333613;13732
333621;13992
333629;14342
333637;14421
333646;14587
333654;14556
333662;14675
333670;14470
333678;14608
333687;14438
333695;14524
333706;14437
333714;14441
333722;14282
333731;14236
333739;14140
333747;14124
333755;14044
333763;14080
333772;14041
333780;14074
333788;14000
333796;14041
333804;13857
333812;13747
333821;13570
333829;13620
333837;13421
333845;13541
333853;13473
333862;13711
333870;13664
333878;13853
333886;13748
333894;13868
333903;13781
333911;13890
333919;13703
333927;13839
333935;13663
333944;13723
333952;13808
333960;13280
333968;10672
333976;7744
333985;7282
333993;13662
334001;17126
334012;16220
334020;15161
334029;14683
334037;14204
334045;13946
334053;13587
334061;13581
334070;13303
334078;13369
334086;13105
334094;13134
334102;12971
334110;13027
334119;12741
334127;12730
334135;12437
334143;12502
334151;12194
334160;12114
334168;11769
334176;11726
334184;11510
334192;11715
334201;11700
334209;12006
334217;12063
334225;12476
334233;12728
334242;13232
334250;13457
334258;13853
334266;13919
334274;14191
334282;14113
334291;14267
334299;14226
334310;14357
334318;14233
334327;14322
334335;14093
334343;14132
334351;13925
334359;14078
334367;13879
334376;13965
334384;13779
334392;13933
334400;13763
334408;13879
334417;13757
334425;13953
334433;13805
334441;13900
334449;13776
334458;13857
334466;13660
334474;13635
334482;13526
334490;13551
334499;13523
334507;13641
334515;13688
334523;13809
334531;13814
334540;13872
334548;13815
334556;13886
334564;13844
334572;13811
334580;13753
334589;13689
334597;13705
334605;13454
334616;10430
334625;7421
334633;7243
334641;13971
334649;16660
334657;16168
334665;15132
334674;14602
334682;14256
334690;14057
334698;13850
334706;13820
334715;13646
334723;13571
334731;13498
334739;13392
334747;13315
334756;13272
334764;13149
334772;13092
334780;13003
334788;12831
334797;12666
334805;12483
334813;12309
334821;12056
334829;12014
334838;12023
334846;12150
334854;12182
334862;12408
334870;12583
334878;12954
334887;13249
334895;13660
334903;13833
334911;14114
334922;14353
334931;14435
334939;14526
334947;14422
334955;14379
334963;14257
334972;14132
334980;14035
334988;13942
334996;13887
335004;13816
335013;13785
335021;13754
335029;13803
335037;13691
335045;13784
335054;13690
335062;13690
335070;13729
335078;13873
335086;13804
335096;13862
335104;13707
335112;13693
335120;13476
335128;13653
335137;13520
335145;13680
335153;13596
335161;13799
335169;13756
335177;13972
335186;13827
335194;13985
335202;13853
335210;14000
335220;13905
335230;13911
335238;13769
335246;13930
335254;13411
335262;11516
335271;8003
335279;6852
335287;11748
335295;16653
335303;16273
335312;15343
335320;14486
335328;14233
335336;13709
335344;13604
335353;13265
335361;13356
335369;13128
335377;13107
335385;13057
335394;13179
335402;13030
335410;13086
335418;12839
335426;12927
335434;12714
335443;12768
335451;12416
335459;12318
335467;12019
335475;12040
335484;11841
335492;12053
335500;12050
335508;12345
335516;12435
335528;13226
335536;13637
335544;14173
335552;14285
335560;14691
335569;14770
335577;14782
335585;14978
335593;14821
335601;14943
335610;14727
335618;14551
335626;14339
335634;14184
335642;14196
335651;14058
335659;14117
335667;14033
335675;14006
335683;14057
335692;14005
335700;13943
335708;14075
335716;13953
335724;14005
335732;13938
335741;13882
335749;13801
335757;13665
335765;13472
335773;13389
335782;13333
335790;13469
335798;13567
335806;13701
335814;13847
335823;14006
335834;14148
335842;14235
335850;14224
335858;14215
335867;14288
335875;14270
335883;14161
335891;14226
335899;13904
335908;12275
335916;9056
335924;7543
335932;11667
335940;17081
335949;16993
335957;15960
335965;15287
335973;14947
335981;14585
335990;14454
335998;14298
336006;14210
336014;14073
336022;13965
336030;13816
336039;13708
336047;13579
336055;13417
336063;13279
336071;13122
336080;12970
336088;12788
336096;12591
336104;12378
336112;12177
336121;12014
336132;12057
336140;12217
336148;12334
336156;12460
336165;12641
336173;12892
336181;13230
336189;13575
336197;13890
336206;14092
336214;14220
336222;14240
336230;14263
336238;14287
336247;14279
336255;14200
336263;14142
336271;14100
336279;14003
336287;13962
336296;13891
336304;13888
336312;13854
336320;13835
336328;13797
336337;13796
336345;13778
336353;13761
336361;13743
336369;13746
336378;13645
336386;13592
336394;13420
336402;13339
336410;13291
336419;13346
336427;13343
336438;13535
336446;13730
336454;13870
336463;13920
336471;13921
336479;13872
336487;13867
336495;13803
336504;13755
336512;13662
336520;13643
336528;13595
336536;13384
336545;11702
336553;8476
336561;6816
336569;10704
336577;16414
336585;16273
336594;15086
336602;14375
336610;14012
336618;13684
336626;13499
336635;13510
336643;13454
336651;13403
336659;13301
336667;13213
336676;13093
336684;13081
336692;12955
336700;12908
336708;12734
336717;12621
336725;12435
336733;12342
336744;12113
336752;12015
336761;11887
336769;11951
336777;12002
336785;12115
336793;12276
336802;12527
336810;12749
336818;13076
336826;13342
336834;13630
336842;13852
336851;14066
336859;14165
336867;14309
336875;14320
336883;14295
336892;14208
336900;14154
336908;14069
336916;14061
336924;13967
336933;13926
336941;13856
336949;13894
336957;13823
336965;13821
336975;13783
336983;13837
336991;13821
336999;13873
337007;13885
337016;13876
337024;13842
337032;13798
337042;13715
337050;13793
337059;13768
337067;13813
337075;13862
337084;13984
337092;14056
337101;14150
337109;14157
337117;14181
337125;14104
337133;14121
337142;14087
337150;14061
337158;13941
337166;13865
337174;14043
337182;12888
337191;10134
337199;7647
337207;8778
337215;15727
337223;17092
337232;16073
337240;14990
337248;14610
337256;14243
337264;14003
337273;13870
337281;13809
337289;13654
337297;13610
337305;13525
337314;13482
337322;13383
337330;13345
337338;13277
337349;13122
337358;12957
337366;12814
337374;12560
337382;12334
337390;12117
337399;12053
337407;12048
337415;12224
337423;12366
337431;12591
337439;12780
337448;13080
337456;13392
337464;13690
337472;13922
337480;14165
337489;14270
337497;14364
337505;14368
337513;14392
337521;14335
337530;14267
337538;14206
337546;14194
337554;14113
337562;14033
337571;13960
337579;13930
337587;13948
337595;13944
337603;13985
337612;13967
337620;13971
337628;13973
337636;13997
337647;14048
337656;14096
337664;14048
337672;13951
337680;13845
337688;13668
337697;13531
337705;13479
337713;13505
337721;13524
337729;13561
337737;13596
337746;13699
337754;13796
337762;13804
337770;13784
337778;13805
337787;13819
337795;13772
337803;13727
337811;13680
337819;13658
337828;13352
337836;11604
337844;8324
337852;6939
337860;11125
337869;16820
337877;16481
337885;15352
337893;14445
337901;14147
337910;13799
337918;13599
337926;13474
337934;13473
337942;13396
337954;13409
337962;13343
337970;13259
337978;13170
337986;13065
337994;12951
338003;12862
338011;12697
338019;12497
338027;12257
338035;12093
338044;11906
338052;11848
338060;11808
338068;11874
338076;11973
338085;12143
338093;12297
338101;12558
338109;12895
338117;13301
338126;13546
338134;13765
338142;13890
338150;14054
338158;14084
338167;14123
338175;14057
338183;14086
338191;14044
338199;14021
338207;13994
338216;14039
338224;13968
338232;13980
338240;13942
338248;13987
338260;14051
338268;14121
338276;14094
338284;14134
338292;14051
338301;14039
338309;13849
338317;13768
338325;13645
338333;13611
338342;13562
338350;13645
338358;13721
338366;13882
338374;13985
338383;14069
338391;14019
338399;14045
338407;14020
338415;14009
338424;13965
338432;13872
338440;13786
338448;13709
338456;13800
338465;12285
338473;9051
338481;6996
338489;8746
338497;16068
338505;17061
338514;16064
338522;14973
338530;14347
338538;14001
338546;13663
338555;13415
338566;13297
338574;13320
338582;13216
338590;13084
338599;12978
338607;12735
338615;12614
338623;12519
338631;12384
338640;12281
338648;12107
338656;12021
338664;11798
338672;11764
338681;11693
338689;11957
338697;12240
338705;12697
338713;12944
338722;13312
338730;13645
338738;14062
338746;14390
338754;14773
338762;15102
338771;15308
338779;15326
338787;15330
338795;15356
338803;15277
338812;15176
338820;14975
338828;14936
338836;14775
338844;14605
338853;14292
338864;14027
338872;13983
338880;13838
338888;13934
338897;13847
338905;13968
338913;13962
338921;14056
338929;13920
338938;13841
338946;13664
338954;13626
338962;13536
338970;13606
338979;13699
338987;13742
338995;13831
339003;13886
339011;14015
339020;14080
339028;14209
339036;14208
339044;14340
339052;14214
339060;14201
339069;14097
339077;14124
339085;14233
339093;12791
339101;9379
339110;7250
339118;8903
339126;16320
339134;16994
339142;16343
339151;15284
339159;14804
339178;14358
339186;14177
339195;14021
339203;13866
339211;13759
339219;13595
339227;13602
339236;13442
339244;13417
339252;13210
339260;13117
339268;12881
339277;12845
339285;12531
339293;12388
339301;12048
339309;12062
339318;12029
339326;12177
339334;12159
339342;12375
339351;12372
339359;12736
339368;12858
339376;13340
339384;13479
339392;13821
339400;13832
339409;14100
339417;14027
339425;14142
339433;13930
339441;14026
339450;13845
339458;13890
339466;13624
339477;13671
339485;13600
339494;13668
339502;13516
339510;13536
339518;13359
339526;13467
339535;13280
339543;13363
339551;13097
339559;13151
339567;13037
339576;13171
339584;13009
339592;13147
339600;12893
339608;13117
339617;13193
339625;13470
339633;13690
339641;14006
339649;13884
339657;13831
339666;13582
339674;13625
339682;13321
339690;13581
339698;13008
339707;10759
339715;6929
339723;5455
339731;10527
339739;15854
339748;15514
339756;14827
339764;14037
339772;13791
339783;13268
339792;13307
339800;13038
339808;13113
339816;12919
339824;13002
339833;12873
339841;12989
339849;12804
339857;12919
339865;12757
339874;12824
339882;12632
339890;12639
339898;12347
339906;12252
339914;12073
339923;12115
339931;12049
339939;12244
339947;12275
339955;12607
339964;12841
339972;13254
339980;13541
339988;13967
339996;14192
340005;14455
340013;14521
340021;14655
340029;14645
340037;14681
340046;14557
340054;14426
340062;14322
340070;14265
340078;14192
340090;14247
340098;14141
340106;14211
340114;14056
340122;14131
340131;14044
340139;14135
340147;14077
340155;14167
340163;14082
340172;14118
340180;14001
340188;13981
340196;13866
340204;13891
340212;13914
340221;14021
340229;14058
340237;14233
340245;14314
340253;14333
340262;14375
340270;14380
340278;14383
340286;14345
340294;14285
340303;14139
340311;14079
340319;14422
340327;13101
340335;9317
340344;5865
340352;7369
340360;15019
340368;16259
340376;15796
340385;15059
340396;14769
340404;14504
340412;14265
340420;14109
340429;13958
340437;13857
340445;13806
340453;13641
340461;13469
340470;13304
340478;13159
340486;12926
340494;12720
340502;12423
340510;12207
340519;11820
340527;11627
340535;11355
340543;11318
340551;11294
340560;11462
340568;11489
340576;11783
340584;11903
340592;12331
340601;12592
340609;13096
340617;13267
340625;13647
340633;13735
340642;13967
340650;13935
340658;14122
340666;13986
340674;14073
340682;13892
340694;14040
340702;14077
340710;14098
340718;13897
340727;13875
340735;13741
340743;13751
340751;13553
340759;13573
340767;13453
340776;13521
340784;13428
340792;13544
340800;13468
340808;13601
340817;13552
340825;13698
340833;13549
340841;13634
340849;13432
340858;13521
340866;13410
340874;13524
340882;13261
340890;13338
340899;13223
340907;13446
340915;13363
340923;13446
340931;13294
340940;13458
340948;13394
340956;13573
340964;13529
340972;13623
340980;13534
340989;14081
341000;11394
341008;7559
341016;5711
341025;10699
341033;16195
341041;16303
341049;15392
341057;14871
341065;14502
341074;14259
341082;13890
341090;13912
341098;13716
341106;13760
341115;13592
341123;13663
341131;13430
341139;13409
341147;13151
341156;13041
341164;12670
341172;12525
341180;12243
341188;12161
341197;11951
341205;11923
341213;11733
341221;11905
341229;12046
341238;12438
341246;12681
341254;13055
341262;13430
341270;13893
341278;14223
341287;14551
341298;14691
341306;15091
341314;15490
341322;15759
341331;15584
341339;15593
341347;15395
341355;15426
341363;15278
341372;15276
341380;15155
341388;15213
341396;15073
341404;15094
341413;15162
341421;15316
341429;15335
341437;15392
341445;15409
341454;15497
341462;15572
341470;15740
341478;15759
341486;15700
341495;15646
341503;15653
341511;15758
341519;15732
341527;15549
341535;15309
341544;14958
341552;14468
341560;14166
341568;14124
341576;14142
341585;13975
341593;13938
341604;13915
341612;13969
341620;14030
341629;13912
341637;13754
341645;13553
341653;13439
341661;13336
341670;13146
341678;12867
341686;12504
341694;12751
341702;12117
341711;9213
341719;4791
341727;3121
341735;8117
341743;13275
341752;13391
341760;12820
341768;12395
341776;12104
341784;11895
341793;12023
341801;12053
341809;12096
341817;12009
341825;12118
341833;12149
341842;12250
341850;12211
341858;12259
341866;12236
341874;12239
341883;12129
341891;12038
341899;11930
341910;11808
341918;11703
341927;11697
341935;11783
341943;11903
341951;12020
341959;12224
341968;12475
341976;12870
341984;13216
341992;13567
342000;13816
342009;14037
342017;14159
342025;14220
342033;14275
342041;14278
342050;14225
342058;14200
342066;14167
342074;14162
342082;14113
342090;14133
342099;14129
342107;14097
342115;14099
342123;14110
342131;14124
342140;14133
342148;14078
342156;14011
342164;13999
342172;13963
342181;13964
342189;13989
342197;14032
342208;14225
342216;14399
342225;14520
342233;14475
342241;14389
342249;14248
342257;14248
342266;14248
342274;14260
342282;14210
342290;14215
342298;14244
342307;14363
342315;14420
342323;14399
342331;14337
342339;14309
342348;14281
342356;14259
342364;14176
342372;14036
342380;14532
342388;14099
342397;11057
342405;6840
342413;5409
342421;11813
342429;15995
342438;15723
342446;15003
342454;14691
342462;14381
342470;14065
342479;13909
342487;13776
342495;13681
342503;13563
342514;13475
342523;13458
342531;13343
342539;13196
342547;13104
342555;12967
342564;12828
342572;12699
342580;12562
342588;12356
342596;12162
342605;12010
342613;11927
342621;11956
342629;12097
342637;12215
342646;12426
342654;12672
342662;13072
342670;13438
342678;13808
342686;14098
342695;14353
342703;14505
342711;14687
342719;14777
342727;14816
342736;14765
342744;14753
342752;14701
342760;14643
342768;14579
342777;14523
342785;14430
342793;14382
342801;14347
342809;14337
342821;14361
342829;14448
342837;14432
342845;14451
342853;14454
342862;14467
342870;14459
342878;14459
342886;14428
342894;14421
342903;14432
342911;14396
342919;14270
342927;14077
342935;13882
342943;13822
342952;13826
342960;13822
342968;13825
342976;13883
342984;13943
342993;14034
343001;14006
343009;13960
343017;13884
343025;13866
343034;13826
343042;13749
343050;13696
343058;13786
343066;14390
343075;12830
343083;8883
343091;5575
343099;7371
343107;15242
343119;16002
343127;15385
343135;14861
343143;14705
343151;14450
343160;14301
343168;14160
343176;14101
343184;14008
343192;13919
343201;13833
343209;13796
343217;13720
343225;13612
343233;13515
343241;13390
343250;13189
343258;12960
343266;12690
343274;12450
343282;12232
343291;12066
343299;12016
343307;12119
343315;12285
343323;12455
343332;12639
343340;12965
343348;13306
343357;13660
343365;13923
343374;14177
343382;14360
343390;14506
343398;14523
343406;14528
343415;14488
343425;14483
343433;14444
343441;14392
343449;14242
343458;14212
343466;14121
343475;14049
343483;13879
343491;13935
343500;13880
343508;13951
343516;13936
343524;13986
343532;13918
343540;13951
343549;13769
343557;13675
343565;13594
343573;13519
343581;13411
343590;13434
343598;13445
343606;13588
343614;13637
343622;13665
343631;13620
343639;13553
343647;13481
343655;13466
343663;13403
343672;13410
343680;13342
343688;13490
343696;13705
343704;11459
343713;7371
343721;4981
343732;12369
343740;16340
343748;15729
343757;15111
343765;14561
343773;14448
343781;14186
343789;14013
343798;13865
343806;13766
343814;13672
343822;13626
343830;13525
343838;13523
343847;13431
343855;13355
343863;13220
343871;13093
343879;12951
343888;12775
343896;12504
343904;12259
343912;12005
343920;11921
343929;11969
343937;12071
343945;12199
343953;12353
343961;12635
343970;12980
343978;13373
343986;13702
343994;14013
344002;14211
344010;14365
344019;14435
344030;14613
344038;14704
344046;14659
344055;14578
344063;14459
344071;14366
344079;14224
344087;14180
344095;14123
344104;14048
344112;14025
344120;13981
344128;13971
344136;14001
344145;14113
344153;14120
344161;14127
344169;14031
344177;13975
344186;13843
344194;13851
344202;13768
344210;13799
344218;13819
344227;13824
344235;13850
344243;13899
344251;13837
344259;13851
344268;13797
344276;13783
344284;13700
344292;13633
344300;13528
344308;13819
344317;13935
344325;11620
344336;6199
344344;5080
344353;12397
344361;16055
344369;15671
344377;15078
344385;14640
344393;14430
344402;14076
344410;13869
344418;13725
344426;13656
344434;13600
344443;13538
344451;13438
344459;13412
344467;13295
344475;13234
344484;13061
344492;12945
344500;12743
344508;12554
344516;12277
344525;12058
344533;11853
344541;11795
344549;11792
344557;11932
344566;12098
344574;12348
344582;12628
344590;13017
344598;13363
344606;13699
344615;13951
344623;14184
344631;14284
344642;14472
344650;14533
344659;14478
344667;14344
344675;14247
344683;14156
344691;14105
344700;14023
344708;13976
344716;13855
344724;13821
344732;13769
344741;13715
344749;13701
344757;13710
344765;13703
344773;13703
344782;13696
344790;13635
344798;13536
344806;13518
344814;13472
344823;13494
344831;13542
344839;13600
344847;13632
344855;13704
344863;13713
344872;13755
344880;13742
344888;13786
344896;13798
344904;13792
344913;13690
344921;13617
344929;14081
344940;13575
344948;9968
344957;5638
344965;5082
344973;13039
344981;16316
344989;16140
344998;15601
345006;15387
345014;15140
345022;14931
345030;14744
345039;14625
345047;14409
345055;14212
345063;13988
345071;13779
345080;13545
345088;13358
345096;13147
345104;12891
345112;12604
345121;12346
345129;12120
345137;11952
345145;11779
345153;11617
345161;11537
345170;11598
345178;11751
345186;11918
345194;12152
345202;12468
345211;12880
345219;13339
345227;13749
345235;13970
345246;14175
345255;14311
345263;14310
345271;14181
345279;14060
345287;13963
345296;13750
345304;13526
345312;13296
345320;13132
345328;13099
345337;13078
345345;13076
345353;13079
345361;13119
345369;13139
345378;13233
345386;13258
345394;13315
345402;13200
345410;13168
345418;13181
345427;13234
345435;13281
345443;13378
345451;13493
345459;13618
345468;13742
345476;13872
345484;13917
345492;13953
345500;13942
345509;13946
345517;13917
345525;13911
345533;13822
345541;14320
345553;13933
345561;10389
345569;5830
345577;5093
345585;12897
345594;16160
345602;15825
345610;15253
345618;14998
345626;14790
345635;14551
345643;14447
345651;14382
345659;14369
345667;14331
345676;14257
345684;14156
345692;14052
345700;13917
345708;13845
345716;13692
345725;13550
345733;13352
345741;13184
345749;12962
345757;12734
345766;12520
345775;12445
345783;12455
345791;12540
345799;12663
345808;12893
345816;13132
345824;13568
345832;13982
345840;14381
345851;14855
345859;15156
345867;15278
345876;15355
345884;15365
345893;15360
345901;15191
345909;15059
345917;14937
345925;14842
345934;14753
345942;14687
345950;14625
345958;14613
345966;14605
345975;14670
345983;14675
345991;14762
345999;14747
346007;14737
346015;14677
346024;14527
346032;14360
346040;14214
346048;14048
346056;13949
346065;13918
346073;13964
346081;14011
346089;14053
346097;14037
346106;14025
346114;14029
346122;13919
346130;13808
346138;13794
346147;13751
346158;13719
346166;14105
346174;14116
346182;11633
346191;7241
346199;4325
346207;9179
346215;15477
346223;15591
346232;14975
346240;14564
346248;14399
346256;14255
346264;14039
346273;14009
346281;13898
346289;13765
346297;13657
346305;13590
346313;13491
346322;13427
346330;13342
346338;13221
346346;13055
346354;12884
346363;12557
346371;12392
346379;12225
346387;12025
346395;11884
346404;11840
346412;11908
346420;12034
346428;12240
346436;12404
346445;12714
346453;13060
346464;13612
346472;13961
346480;14116
346489;14259
346497;14348
346505;14330
346513;14298
346521;14240
346530;14214
346538;14178
346546;14180
346554;14154
346562;14099
346570;14098
346579;14110
346587;14101
346595;14076
346603;14121
346611;14060
346620;13931
346628;13778
346636;13642
346644;13563
346652;13477
346661;13459
346669;13501
346677;13609
346685;13738
346693;13883
346702;13932
346710;14013
346718;13989
346726;13943
346734;13881
346743;13886
346751;13794
346762;13717
346770;14022
346778;13647
346787;10849
346795;7329
346803;6486
346811;11472
346819;16415
346828;16018
346836;15361
346844;14667
346852;14119
346860;13839
346868;13580
346877;13372
346885;13280
346893;13270
346901;13151
346909;13158
346918;13057
346926;12953
346934;12809
346942;12707
346950;12460
346959;12262
346967;12000
346975;11861
346983;11612
346991;11394
347000;11292
347008;11508
347016;11644
347024;11901
347032;12131
347041;12392
347049;12750
347057;13146
347068;13704
347076;14068
347085;14290
347093;14384
347101;14476
347109;14643
347117;14607
347126;14592
347134;14531
347142;14465
347150;14411
347158;14315
347166;14215
347175;14072
347183;13949
347191;13892
347199;13893
347207;13761
347216;13641
347224;13615
347232;13538
347240;13455
347248;13558
347257;13672
347265;13813
347273;13895
347281;13833
347289;13978
347298;14005
347306;13953
347314;13967
347322;13879
347330;13825
347338;13754
347347;13732
347355;13930
347366;12720
347374;9845
347383;8808
347391;9917
347399;15272
347407;16354
347415;15776
347423;15057
347432;14455
347440;14060
347448;13792
347456;13552
347464;13382
347473;13363
347481;13291
347489;13225
347497;13235
347505;13156
347514;13071
347522;12920
347530;12717
347538;12605
347546;12518
347555;12368
347563;12171
347571;12031
347579;11860
347587;11931
347596;12099
347604;12277
347612;12436
347620;12600
347628;12986
347636;13459
347645;13640
347653;13764
347661;14061
347672;14260
347681;14350
347689;14392
347697;14259
347705;14331
347713;14196
347721;14256
347730;14142
347738;14159
347746;14079
347754;14073
347762;14027
347771;13983
347779;14038
347787;13896
347795;13867
347803;13833
347812;13835
347820;13835
347828;13821
347836;13743
347844;13547
347853;13700
347861;13745
347869;13757
347878;13673
347886;13704
347895;13836
347903;13947
347911;13991
347919;13995
347927;14071
347935;14033
347944;14006
347952;14031
347960;13985
347968;14000
347978;13916
347987;11755
347995;9755
348003;9801
348012;13549
348020;16521
348029;16000
348037;15302
348045;14502
348053;14034
348061;13680
348070;13388
348078;13282
348086;13293
348094;13252
348102;13249
348111;13289
348119;13238
348127;13232
348135;13210
348143;13134
348152;12929
348160;12746
348168;12577
348176;12341
348184;12156
348193;12043
348201;12024
348209;12159
348217;12274
348225;12550
348233;12762
348242;12956
348250;13280
348258;13502
348266;13826
348274;14107
348286;14376
348294;14547
348302;14505
348310;14405
348318;14337
348327;14332
348335;14325
348343;14232
348351;14139
348359;14116
348368;14054
348376;14072
348384;13955
348392;13893
348400;13910
348409;13976
348417;13986
348425;13960
348433;14026
348441;13969
348450;14014
348458;13980
348466;13972
348474;13965
348482;13979
348490;13930
348499;13874
348507;13881
348515;13827
348523;13819
348531;13791
348540;13813
348548;13812
348556;13811
348564;13760
348572;13795
348584;13842
348592;13918
348600;13891
348608;13918
348616;13857
348625;13826
348633;13852
348641;13857
348649;13823
348657;13826
348666;13765
348674;13692
348682;13617
348690;13620
348698;13516
348707;13489
348715;13382
348723;13348
348731;13242
348739;13232
348748;13166
348756;13162
348764;13167
348772;13163
348780;13179
348788;13241
348797;13249
348805;13261
348813;13236
348821;13239
348829;13272
348838;13324
348846;13340
348854;13396
348862;13398
348870;13493
348879;13507
348890;13588
348898;13614
348906;13604
348914;13581
348923;13606
348931;13518
348939;13526
348947;13514
348955;13490
348964;13450
348972;13431
348980;13415
348988;13392
348996;13291
349005;13262
349013;13217
349021;13203
349029;13121
349037;13120
349046;13034
349054;13016
349062;13013
349070;13008
349078;12971
349086;12946
349095;12868
349103;13191
349111;12681
349119;10576
349127;7827
349136;6744
349144;10784
349152;15084
349160;15064
349168;14627
349177;14168
349188;13846
349196;13672
349204;13545
349212;13475
349221;13463
349229;13406
349237;13356
349245;13264
349253;13225
349262;13164
349270;13146
349278;12978
349286;12903
349294;12790
349303;12586
349311;12421
349319;12229
349327;12053
349335;11922
349343;11894
349352;11954
349360;12067
349368;12260
349376;12508
349384;12751
349393;13096
349401;13428
349409;13701
349417;13979
349425;14201
349434;14319
349442;14403
349450;14443
349458;14488
349466;14497
349475;14450
349483;14391
349494;14388
349502;14359
349510;14258
349519;14150
349527;14136
349535;14177
349543;14213
349551;14188
349560;14225
349568;14158
349576;14084
349584;14025
349592;14062
349601;13997
349609;13971
349617;13910
349625;13906
349633;13908
349641;13866
349650;13823
349658;13780
349666;13711
349674;13683
349682;13625
349691;13545
349699;13506
349707;13438
349715;13403
349723;13418
349732;13413
349740;13438
349749;13426
349757;13431
349765;13439
349774;13461
349782;13469
349790;13532
349800;13632
349808;13718
349817;13722
349825;13728
349833;13717
349841;13729
349849;13717
349858;13692
349866;13637
349874;13586
349882;13571
349890;13552
349900;13474
349908;13409
349916;13420
349924;13508
349932;13644
349940;13722
349949;13811
349957;13929
349965;13995
349973;14076
349981;14061
349990;13992
349998;13889
350006;13722
350014;13488
350022;13357
350031;13777
350039;12702
350047;9418
350055;6083
350063;5991
350072;12668
350080;15294
350088;15100
350099;14486
350107;14297
350116;13984
350124;13691
350132;13544
350140;13461
350148;13418
350157;13344
350165;13252
350173;13254
350181;13215
350189;13169
350198;13027
350206;12945
350214;12791
350222;12618
350230;12460
350238;12286
350247;12025
350255;11768
350263;11549
350271;11459
350279;11439
350288;11603
350296;11775
350304;12071
350312;12423
350320;12885
350329;13312
350337;13714
350345;13995
350353;14223
350361;14356
350370;14410
350378;14449
350386;14491
350394;14508
350405;14582
350414;14593
350422;14553
350430;14510
350438;14469
350446;14405
350455;14386
350463;14361
350471;14323
350479;14311
350487;14338
350495;14357
350504;14360
350512;14398
350520;14393
350528;14385
350536;14401
350545;14397
350553;14364
350561;14307
350569;14294
350577;14218
350586;14137
350594;14077
350602;14045
350610;14056
350618;14018
350627;14018
350635;14003
350643;13970
350651;13943
350659;13936
350668;13880
350676;13837
350684;13777
350692;13734
350703;13707
350712;13733
350720;13625
350728;13437
350736;13245
350744;13108
350753;13082
350761;13075
350769;13129
350777;13161
350785;13229
350793;13321
350802;13451
350810;13545
350818;13523
350826;13511
350834;13478
350843;13435
350851;13352
350859;13892
350867;13025
350875;9996
350884;6178
350892;5676
350900;12205
350908;15611
350916;15600
350925;15168
350933;14924
350941;14797
350949;14531
350957;14389
350966;14246
350974;14153
350982;14029
350990;13991
350998;13918
351010;13840
351018;13794
351026;13684
351034;13529
351042;13404
351050;13209
351059;12974
351067;12638
351075;12339
351083;11995
351091;11744
351100;11539
351108;11475
351116;11503
351124;11636
351132;11830
351141;12256
351149;12734
351157;13250
351165;13696
351173;14042
351182;14240
351190;14458
351198;14550
351206;14653
351214;14662
351223;14691
351231;14626
351239;14591
351247;14528
351255;14510
351263;14465
351272;14443
351280;14331
351288;14257
351296;14147
351304;14142
351316;14171
351324;14216
351332;14172
351340;14229
351348;14166
351357;14182
351365;14174
351373;14138
351381;14097
351389;14111
351398;14084
351406;14096
351414;14052
351422;14020
351430;13996
351439;13959
351447;13885
351455;13906
351463;13882
351471;13950
351480;13964
351488;14008
351496;14045
351504;14074
351512;13998
351521;13964
351529;13913
351537;13945
351545;13986
351553;14138
351561;14187
351570;14232
351578;14226
351586;14285
351594;14326
351602;14253
351614;14128
351622;14012
351630;13770
351638;13598
351646;13516
351655;13856
351663;12555
351671;9007
351679;5664
351687;6343
351696;13268
351704;15149
351712;14690
351720;14114
351728;13851
351737;13582
351745;13267
351753;13215
351761;13156
351769;13087
351778;13033
351786;13087
351794;13150
351802;13232
351810;13236
351818;13178
351827;13102
351835;13044
351843;12949
351851;12803
351859;12588
351869;12378
351877;12201
351885;12045
351893;11948
351901;11935
351910;12005
351920;12262
351928;12588
351936;12992
351944;13356
351953;13767
351961;14083
351969;14341
351977;14557
351985;14694
351994;14706
352003;14676
352011;14581
352019;14538
352027;14466
352036;14309
352044;14185
352052;14061
352060;13945
352068;13795
352077;13694
352085;13613
352093;13578
352101;13542
352109;13572
352118;13539
352126;13567
352134;13581
352142;13566
352150;13567
352158;13627
352167;13578
352175;13543
352183;13492
352191;13534
352199;13489
352208;13492
352216;13478
352227;13513
352235;13571
352243;13521
352252;13542
352260;13545
352268;13475
352276;13345
352284;13158
352293;13137
352301;13153
352309;13205
352317;13203
352325;13226
352334;13259
352342;13299
352350;13404
352358;13454
352366;13452
352375;13502
352383;13498
352391;13574
352399;13440
352407;13739
352415;13599
352424;11702
352432;7754
352440;5705
352448;9506
352456;15631
352465;16081
352473;15522
352481;15040
352489;14904
352497;14606
352506;14436
352514;14296
352522;14179
352533;14052
352541;13996
352550;13796
352558;13620
352566;13467
352574;13353
352582;13275
352591;13155
352599;13013
352607;12908
352615;12691
352623;12483
352632;12150
352640;11948
352648;11734
352656;11700
352664;11725
352673;11878
352681;12034
352689;12457
352697;12870
352705;13357
352713;13634
352722;14063
352730;14278
352738;14451
352746;14474
352754;14572
352763;14558
352771;14602
352779;14502
352787;14555
352795;14532
352804;14637
352812;14660
352820;14742
352831;14760
352839;14805
352848;14660
352856;14608
352864;14499
352872;14477
352880;14381
352889;14414
352897;14291
352905;14281
352913;14132
352921;14156
352930;14007
352938;13979
352946;13808
352954;13651
352962;13509
352970;13490
352979;13260
352987;13261
352995;13106
353003;12979
353011;12846
353020;12941
353028;12943
353036;13063
353044;13078
353052;13229
353061;13375
353069;13416
353077;13444
353085;13507
353093;13502
353102;13547
353110;13546
353118;13526
353126;13525
353137;13909
353146;12320
353154;8596
353162;6154
353170;8726
353178;15217
353187;15908
353195;15138
353203;14551
353211;14297
353219;14078
353228;13824
353236;13772
353244;13672
353252;13620
353260;13547
353268;13640
353277;13664
353285;13786
353293;13830
353301;13774
353309;13738
353318;13842
353326;13917
353334;13917
353342;13799
353350;13633
353359;13364
353367;13113
353375;13017
353383;12963
353391;12956
353400;12980
353408;13080
353416;13294
353424;13618
353435;14145
353444;14459
353452;14604
353460;14605
353468;14623
353476;14539
353485;14442
353493;14341
353501;14227
353509;14125
353517;14064
353526;14018
353534;13961
353542;13906
353550;13787
353558;13731
353566;13618
353575;13512
353583;13387
353591;13346
353599;13293
353607;13274
353616;13225
353624;13242
353632;13185
353640;13232
353648;13239
353657;13329
353665;13350
353673;13353
353681;13203
353689;13135
353698;12963
353706;13000
353714;12995
353722;13081
353730;13145
353742;13404
353750;13593
353758;13662
353766;13692
353774;13742
353783;13801
353791;13887
353799;13883
353807;13905
353815;13933
353823;14339
353832;12726
353840;8997
353848;6028
353856;8028
353864;15220
353873;16153
353881;15463
353889;14790
353897;14527
353905;14291
353914;13968
353922;13837
353930;13717
353938;13666
353946;13582
353955;13507
353963;13367
353971;13285
353979;13124
353987;13030
353996;12861
354004;12770
354012;12607
354020;12447
354028;12159
354036;12002
354048;11815
354056;11819
354064;11813
354072;11921
354081;12054
354089;12281
354097;12587
354105;13039
354113;13449
354121;13837
354130;14127
354138;14391
354146;14494
354154;14628
354162;14630
354171;14616
354179;14540
354187;14540
354195;14450
354203;14447
354213;14377
354221;14339
354229;14253
354237;14190
354245;14102
354254;14082
354262;14063
354270;14076
354278;14083
354286;14126
354295;14116
354303;14086
354311;14021
354319;13917
354327;13744
354335;13697
354346;13731
354355;13800
354363;13859
354371;13972
354380;14046
354388;14189
354396;14269
354404;14282
354412;14189
354420;14159
354429;14072
354437;14033
354445;13948
354453;13845
354461;14181
354470;13688
354478;10973
354486;7488
354494;6194
354502;12106
354511;16589
354519;16117
354527;15396
354535;14724
354543;14436
354552;14191
354560;13950
354568;13801
354576;13727
354584;13641
354593;13550
354601;13425
354609;13322
354617;13280
354625;13149
354633;13012
354642;12894
354653;12721
354661;12521
354669;12252
354678;11911
354686;11680
354694;11557
354702;11548
354710;11650
354718;11847
354727;12004
354735;12315
354743;12712
354751;13176
354759;13618
354768;13994
354776;14299
354784;14515
354792;14631
354800;14673
354809;14743
354817;14713
354825;14693
354833;14665
354841;14606
354850;14561
354858;14542
354866;14444
354874;14390
354882;14271
354890;14169
354899;14019
354907;13920
354915;13804
354923;13775
354931;13655
354940;13607
354948;13412
354959;13348
354967;13387
354975;13367
354984;13355
354992;13412
355000;13471
355008;13581
355016;13669
355025;13697
355033;13697
355041;13722
355049;13675
355057;13644
355066;13591
355074;13552
355082;13407
355090;13892
355098;13409
355107;10610
355115;6646
355123;5211
355131;11587
355139;15970
355148;15683
355156;14982
355164;14477
355172;14285
355180;13987
355188;13815
355197;13681
355205;13594
355213;13530
355221;13489
355229;13383
355238;13333
355246;13236
355257;13098
355265;13026
355273;12874
355282;12679
355290;12485
355298;12257
355306;12047
355314;11884
355323;11837
355331;11870
355339;11985
355347;12097
355355;12282
355364;12546
355372;12912
355380;13278
355388;13708
355396;14018
355405;14261
355413;14392
355421;14535
355429;14520
355437;14595
355446;14578
355454;14519
355462;14427
355470;14424
355478;14378
355486;14392
355495;14349
355503;14341
355511;14270
355519;14274
355527;14261
355536;14269
355544;14207
355552;14238
355563;14214
355571;14237
355580;14000
355588;13839
355596;13678
355604;13676
355612;13656
355621;13733
355629;13745
355637;13843
355645;13923
355653;13985
355662;13931
355670;13957
355678;13924
355686;14037
355694;14101
355703;14201
355711;14105
355719;14393
355727;14280
355735;11955
355743;7553
355752;4981
355760;9719
355768;15868
355776;16064
355784;15408
355793;14963
355801;14743
355809;14417
355817;14257
355825;14175
355834;14081
355842;13954
355850;13809
355858;13691
355869;13532
355878;13444
355886;13326
355894;13132
355902;13025
355910;12881
355919;12734
355927;12421
355935;12153
355943;11894
355951;11760
355960;11681
355968;11724
355976;11819
355984;12055
355992;12312
356001;12636
356009;13045
356017;13483
356025;13778
356033;14022
356041;14194
356050;14274
356058;14315
356066;14318
356074;14300
356082;14160
356091;14085
356099;14011
356107;13941
356115;13853
356123;13828
356132;13799
356140;13808
356148;13766
356156;13756
356167;13814
356176;13875
356184;13843
356192;13919
356200;13870
356208;13832
356217;13675
356225;13537
356233;13418
356241;13363
356249;13344
356258;13354
356266;13435
356274;13576
356282;13726
356290;13757
356298;13791
356307;13830
356315;13801
356323;13816
356331;13856
356339;13886
356348;13814
356356;13805
356364;14420
356372;13230
356380;9447
356389;5503
356397;6086
356405;13922
356413;15935
356421;15494
356430;14903
356438;14774
356446;14563
356454;14417
356462;14334
356474;14306
356482;14257
356490;14179
356498;14033
356506;13923
356515;13750
356523;13603
356531;13396
356539;13209
356547;12980
356556;12836
356564;12556
356572;12351
356580;12052
356588;11939
356596;11827
356605;11929
356613;11984
356621;12187
356629;12395
356637;12798
356646;13226
356654;13767
356662;14163
356670;14542
356678;14695
356687;14804
356695;14749
356703;14710
356711;14590
356719;14502
356728;14304
356736;14238
356744;14167
356752;14131
356760;14082
356769;14116
356780;14173
356788;14241
356796;14161
356804;14132
356813;14027
356821;14028
356829;13941
356837;13905
356845;13848
356854;13862
356862;13755
356870;13700
356878;13438
356886;13294
356894;13202
356903;13266
356911;13289
356919;13403
356927;13434
356935;13579
356944;13639
356952;13698
356960;13657
356968;13663
356977;13624
356986;13661
356994;13636
357002;13653
357010;13506
357018;13911
357027;13917
357035;11488
357043;7141
357051;4844
357059;9643
357068;15570
357078;15569
357086;14933
357094;14634
357102;14423
357111;14133
357119;14043
357128;13932
357136;13882
357144;13800
357153;13801
357161;13709
357169;13631
357177;13481
357185;13352
357193;13186
357202;13067
357210;12899
357218;12749
357226;12542
357234;12363
357243;12117
357251;11958
357259;11924
357267;12020
357275;12130
357284;12293
357292;12523
357300;12901
357308;13266
357316;13597
357325;13907
357333;14141
357341;14277
357349;14390
357357;14490
357366;14525
357374;14475
357385;14429
357393;14422
357401;14352
357410;14292
357418;14267
357426;14190
357434;14188
357442;14178
357450;14163
357459;14176
357467;14179
357475;14153
357483;14134
357491;14081
357500;14000
357508;13947
357516;13904
357524;13871
357532;13804
357541;13675
357549;13505
357557;13378
357565;13334
357573;13386
357582;13465
357590;13544
357598;13649
357606;13775
357614;13809
357623;13940
357631;14018
357639;14084
357647;14072
357655;14121
357663;14029
357672;13951
357680;14009
357691;14068
357699;11337
357708;7009
357716;5130
357724;10871
357732;15756
357740;15599
357748;14881
357757;14534
357765;14353
357773;14120
357781;13945
357789;13839
357798;13699
357806;13556
357814;13390
357822;13300
357830;13183
357839;13077
357847;12908
357855;12803
357863;12638
357871;12538
357880;12342
357888;12193
357896;12005
357904;11883
357912;11762
357921;11825
357929;11909
357937;12071
357945;12239
357953;12547
357961;12835
357970;13260
357978;13619
357989;14213
357997;14552
358006;14724
358014;14762
358022;14791
358030;14747
358038;14756
358046;14659
358055;14556
358063;14458
358071;14406
358079;14295
358087;14267
358096;14169
358104;14185
358112;14164
358120;14200
358128;14162
358137;14142
358145;14132
358153;14157
358161;14119
358169;14158
358178;14126
358186;14124
358194;13983
358202;13841
358210;13668
358218;13714
358227;13730
358235;13860
358243;13933
358251;14000
358259;14060
358268;14107
358276;14094
358284;14082
358295;14074
358303;14130
358312;14059
358320;14015
358328;13929
358336;14224
358344;14374
358353;12259
358361;7972
358369;5211
358377;9350
358385;15712
358394;15829
358402;15086
358410;14491
358418;14308
358426;13987
358435;13813
358443;13661
358451;13552
358459;13385
358467;13295
358476;13118
358484;13082
358492;12992
358500;12928
358508;12820
358516;12815
358525;12779
358533;12682
358541;12490
358549;12340
358557;12160
358566;12066
358574;12102
358582;12344
358590;12582
358610;13545
358618;13868
358626;14061
358634;14339
358642;14530
358651;14696
358659;14816
358667;14865
358675;14758
358683;14688
358692;14577
358700;14448
358708;14322
358716;14224
358724;14078
358733;13904
358741;13763
358749;13625
358757;13516
358765;13419
358774;13322
358782;13185
358790;13101
358798;13055
358806;13032
358814;13021
358823;13015
358831;12999
358839;13032
358847;13004
358855;12980
358864;12891
358872;12854
358880;12817
358888;12936
358896;13011
358908;13226
358916;13426
358924;13523
358932;13645
358940;13729
358949;13800
358957;13842
358965;13826
358973;13858
358981;13816
358990;13749
358998;13647
359006;14259
359014;13722
359022;10681
359031;6561
359039;5469
359047;12249
359055;16095
359063;15719
359071;15029
359080;14689
359088;14507
359096;14228
359104;14145
359112;14052
359121;14024
359129;13942
359137;13889
359145;13814
359153;13747
359162;13629
359171;13493
359179;13319
359187;13203
359195;13009
359204;12869
359214;12646
359222;12457
359230;12201
359238;12096
359247;12089
359255;12176
359263;12248
359271;12391
359279;12617
359289;12950
359297;13258
359305;13625
359313;13875
359321;14115
359330;14187
359338;14289
359346;14356
359354;14371
359362;14302
359370;14260
359379;14166
359387;14185
359395;14132
359403;14143
359411;14036
359420;13982
359428;13849
359436;13821
359444;13741
359452;13798
359461;13783
359469;13810
359477;13771
359485;13812
359493;13835
359502;13957
359510;13916
359521;13955
359529;13817
359537;13727
359546;13693
359554;13757
359562;13766
359570;13853
359578;13905
359587;14027
359595;14075
359603;14110
359611;14056
359619;14024
359628;13911
359636;13877
359644;13774
359652;13726
359660;13554
359668;14079
359677;13334
359685;10270
359693;6185
359701;5264
359709;12256
359718;15584
359726;15047
359734;14281
359742;13899
359750;13681
359759;13420
359767;13355
359775;13325
359783;13299
359791;13203
359800;13177
359808;13144
359819;13187
359827;13149
359835;13071
359844;12896
359852;12793
359860;12605
359868;12416
359876;12222
359885;12090
359893;11946
359901;11884
359909;11864
359917;11971
359926;12070
359934;12293
359942;12544
359950;12898
359958;13315
359966;13718
359975;13982
359983;14223
359991;14308
359999;14385
360007;14395
360016;14409
360024;14366
360032;14401
360040;14376
360048;14397
360057;14439
360065;14458
360073;14478
360081;14457
360089;14420
360098;14399
360106;14456
360114;14460
360125;14560
360133;14678
360142;14701
360150;14742
360158;14664
360166;14638
