Tempo (ms);Valor
360200;15028
360209;14937
360217;14874
360226;14792
360234;14816
360242;14784
360250;14750
360258;14599
360266;14509
360275;14417
360283;14371
360291;14268
360299;14200
360307;14032
360316;14405
360324;14169
360332;11406
360340;7200
360348;5227
360357;11402
360365;16303
360373;15903
360381;15081
360389;14544
360398;14282
360406;13910
360414;13575
360422;13350
360430;13144
360439;13039
360447;12918
360455;12925
360463;12998
360471;13127
360479;13129
360488;13167
360499;13207
360507;13241
360515;13189
360524;13035
360532;12920
360540;12784
360548;12707
360556;12713
360564;12800
360573;12899
360581;13001
360589;13190
360597;13448
360605;13765
360614;14000
360622;14243
360630;14358
360638;14499
360646;14516
360655;14523
360663;14418
360671;14348
360679;14182
360687;14076
360696;13919
360704;13819
360712;13679
360720;13619
360728;13537
360737;13556
360745;13507
360753;13567
360761;13553
360769;13593
360777;13563
360786;13556
360794;13397
360805;13354
360813;13362
360822;13402
360830;13527
360838;13666
360846;13769
360854;13889
360862;13876
360871;13927
360879;13895
360887;13906
360895;13866
360903;13875
360912;13758
360920;13696
360928;13547
360936;13721
360944;13887
360953;11701
360961;7666
360969;5435
360977;9276
360985;15980
360994;15996
361002;15339
361010;14684
361018;14412
361026;14176
361034;13932
361043;13769
361051;13740
361059;13623
361067;13579
361075;13496
361084;13471
361092;13412
361103;13425
361111;13372
361119;13255
361128;13048
361136;12878
361144;12652
361152;12415
361160;12171
361169;12057
361177;11992
361185;12129
361193;12238
361201;12397
361210;12606
361218;12983
361226;13314
361234;13656
361242;13902
361251;14139
361259;14240
361267;14381
361275;14371
361283;14380
361292;14269
361300;14208
361308;14112
361316;14125
361324;14061
361332;14037
361341;13928
361349;13882
361357;13819
361365;13836
361373;13820
361382;13868
361390;13846
361398;13871
361409;13905
361417;14012
361426;14009
361434;14108
361442;14064
361450;14237
361458;14391
361467;14619
361475;14773
361483;14931
361491;15009
361499;15012
361508;14907
361516;14907
361524;14824
361532;14713
361540;14497
361549;14315
361557;14732
361565;14166
361573;11095
361581;6898
361590;5229
361598;11711
361606;16004
361614;15691
361622;15023
361630;14562
361639;14289
361647;13938
361655;13701
361663;13468
361671;13338
361680;13203
361688;13133
361696;12989
361704;12802
361715;12644
361724;12522
361732;12346
361740;12215
361748;12081
361756;11940
361765;11777
361773;11626
361781;11554
361789;11585
361797;11663
361806;11783
361814;11937
361822;12189
361830;12521
361838;12923
361847;13322
361855;13676
361863;13963
361871;14207
361879;14363
361887;14435
361896;14433
361904;14428
361912;14341
361920;14261
361928;14193
361937;14183
361945;14144
361953;14102
361961;14089
361969;14114
361978;14094
361986;14159
361994;14193
362002;14271
362013;14314
362022;14386
362030;14195
362038;14042
362046;13945
362054;13926
362063;13909
362071;13989
362079;14017
362087;14105
362095;14201
362104;14259
362112;14258
362120;14255
362128;14223
362136;14163
362145;14101
362153;14085
362161;14043
362169;13945
362177;14347
362185;14199
362194;11527
362202;7108
362210;4572
362218;9806
362226;15475
362235;15583
362243;15002
362251;14579
362259;14375
362267;14076
362276;13871
362284;13788
362292;13638
362300;13472
362308;13246
362320;13081
362328;12913
362336;12730
362344;12559
362352;12445
362361;12343
362369;12295
362377;12213
362385;12118
362393;12001
362402;11977
362410;11991
362418;12121
362426;12379
362434;12790
362442;13080
362451;13388
362459;13771
362467;14250
362475;14670
362483;14966
362492;15143
362501;15237
362509;15199
362517;15195
362525;15136
362534;15126
362542;15002
362550;14917
362558;14756
362566;14658
362575;14512
362583;14425
362591;14337
362599;14302
362607;14295
362616;14347
362627;14431
362635;14634
362643;14555
362651;14541
362660;14353
362668;14301
362676;14234
362684;14328
362692;14253
362701;14441
362709;14434
362717;14553
362725;14496
362733;14604
362742;14403
362750;14364
362758;14174
362766;14151
362774;13873
362782;13825
362791;13613
362799;13542
362807;13920
362815;13112
362823;9903
362832;6262
362840;6231
362848;13263
362856;15693
362864;15206
362873;14424
362881;14166
362889;13817
362897;13554
362905;13385
362914;13255
362925;12941
362933;13008
362941;12923
362949;12956
362958;12798
362966;12848
362974;12679
362982;12723
362990;12527
362999;12478
363007;12209
363015;12051
363023;11810
363031;11789
363039;11705
363048;11781
363056;11857
363064;12083
363072;12342
363080;12767
363089;13257
363097;13754
363105;14263
363113;14595
363121;14840
363130;15080
363138;15183
363146;15232
363154;15199
363162;15098
363171;15039
363179;14965
363187;14936
363195;14681
363203;14461
363212;14150
363220;13912
363231;13780
363239;13657
363247;13640
363256;13626
363264;13678
363272;13401
363280;13336
363288;13215
363297;13176
363305;13062
363313;12978
363321;12943
363329;13034
363337;13110
363346;13195
363354;13446
363362;13715
363370;14160
363378;14390
363387;14686
363395;14732
363403;14834
363411;14707
363419;14688
363428;14659
363436;14725
363444;14642
363452;15183
363460;13891
363469;10439
363477;8060
363485;9273
363493;16085
363501;17489
363510;16558
363518;15655
363526;14773
363537;14569
363545;14416
363554;14372
363562;14284
363570;14241
363578;14160
363586;14223
363594;14233
363603;14229
363611;14150
363619;14117
363627;13799
363635;13656
363644;13387
363652;13219
363660;12813
363668;12716
363676;12417
363685;12492
363693;12324
363701;12580
363709;12687
363717;12966
363726;13175
363734;13671
363742;13921
363750;14346
363758;14444
363767;14780
363775;14811
363783;15107
363791;15051
363799;15236
363807;15137
363816;15201
363824;14997
363835;15110
363843;14974
363852;14993
363860;14833
363868;14872
363876;14749
363884;14906
363892;14755
363901;14806
363909;14676
363917;14678
363925;14454
363933;14293
363942;14092
363950;14104
363958;13827
363966;13910
363974;13879
363983;14020
363991;14043
363999;14268
364007;14131
364015;14034
364024;14069
364032;14207
364040;13993
364048;13936
364056;13778
364065;13828
364073;13652
364081;13740
364089;12135
364097;8998
364105;6777
364114;9609
364122;16107
364130;16622
364141;15645
364150;15291
364158;14825
364166;14616
364174;14206
364182;14270
364190;14039
364199;14002
364207;13809
364215;13865
364223;13687
364231;13787
364240;13630
364248;13617
364256;13440
364264;13491
364272;13086
364281;12875
364289;12579
364297;12517
364305;12420
364313;12500
364322;12613
364330;12717
364338;12830
364346;13053
364354;13302
364362;13584
364371;13661
364379;13775
364387;13837
364395;13843
364403;13773
364412;13664
364420;13640
364428;13685
364436;13904
364447;14313
364456;14300
364464;14264
364472;14174
364480;14266
364488;14191
364497;14321
364505;14349
364513;14411
364521;14408
364529;14480
364538;14484
364546;14408
364554;14458
364562;14385
364570;14217
364579;13929
364587;13721
364595;13693
364603;13788
364611;13803
364620;13777
364628;13842
364636;14057
364644;14092
364652;14150
364660;14099
364669;14095
364677;14129
364685;14104
364693;13963
364701;13918
364710;13729
364718;13609
364726;12435
364734;9422
364745;7586
364754;11928
364762;16666
364770;16532
364778;15439
364786;14801
364795;14564
364803;14298
364811;14071
364819;14020
364827;13954
364836;13848
364844;13857
364852;13854
364860;13898
364868;13829
364877;13759
364885;13596
364893;13538
364901;13449
364909;13325
364918;13062
364926;12802
364934;12458
364942;12261
364950;12127
364958;12213
364967;12263
364975;12534
364983;12742
364991;13161
364999;13541
365008;13965
365016;14251
365024;14568
365032;14736
365040;14867
365052;14916
365060;14889
365068;14801
365076;14780
365084;14653
365093;14595
365101;14489
365109;14510
365117;14420
365125;14419
365134;14270
365142;14256
365150;14176
365158;14206
365166;14166
365175;14230
365183;14180
365191;14143
365199;14013
365207;13975
365215;13789
365224;13666
365232;13496
365240;13614
365248;13590
365256;13655
365265;13652
365273;13680
365281;13728
365289;13787
365297;13755
365306;13770
365314;13731
365322;13772
365330;13761
365338;13762
365350;13679
365358;13809
365366;13292
365374;11700
365382;8488
365391;7525
365399;11514
365407;16342
365415;16058
365423;15015
365432;14308
365440;14056
365448;13710
365456;13572
365464;13443
365473;13355
365481;13251
365489;13225
365497;13116
365506;13095
365514;13040
365523;12995
365531;12852
365539;12758
365547;12603
365555;12411
365564;12262
365572;12108
365580;11969
365588;11907
365596;11887
365605;11902
365613;12005
365621;12175
365629;12389
365637;12687
365646;12998
365657;13475
365665;13712
365673;13943
365681;14053
365690;14187
365698;14223
365706;14269
365714;14225
365722;14144
365731;14103
365739;14064
365747;13952
365755;13945
365763;13882
365772;13900
365780;13836
365788;13814
365796;13748
365804;13721
365812;13714
365821;13702
365829;13664
365837;13645
365845;13678
365853;13645
365862;13578
365870;13516
365878;13411
365886;13297
365894;13165
365903;13105
365911;13035
365919;13071
365927;13161
365935;13196
365944;13288
365952;13336
365963;13486
365971;13577
365979;13563
365988;13545
365996;13507
366004;13507
366012;13464
366020;13446
366029;13395
366037;12064
366045;8974
366053;7138
366061;9601
366070;15874
366078;16299
366086;15176
366094;14214
366102;13847
366110;13498
366119;13253
366127;13143
366135;13009
366143;12970
366151;12960
366160;12947
366168;12874
366176;12859
366184;12777
366192;12740
366201;12624
366209;12558
366217;12392
366225;12233
366233;11995
366242;11887
366250;11685
366261;11717
366269;11868
366277;11931
366286;12078
366294;12330
366302;12616
366310;13009
366318;13374
366327;13783
366335;14029
366343;14270
366351;14419
366359;14488
366367;14481
366376;14489
366384;14464
366392;14436
366400;14315
366408;14285
366417;14201
366425;14204
366433;14113
366441;14139
366449;14096
366458;14111
366466;14035
366474;14029
366482;13960
366490;14018
366499;14019
366507;14069
366515;14001
366523;14012
366531;13952
366540;13854
366548;13735
366556;13679
366567;13670
366575;13767
366584;13763
366592;13882
366600;13965
366608;14068
366616;14058
366625;14140
366633;14065
366641;14133
366649;14088
366657;14050
366665;13897
366674;13838
366682;13992
366690;12986
366698;10289
366706;7487
366715;7973
366723;14688
366731;16849
366739;15997
366747;14769
366756;14252
366764;13904
366772;13623
366780;13499
366788;13415
366797;13314
366805;13288
366813;13192
366821;13171
366829;13052
366838;12936
366846;12855
366854;12710
366862;12577
366873;12460
366882;12283
366890;12062
366898;11783
366906;11652
366914;11547
366922;11683
366931;11786
366939;11934
366947;12101
366955;12388
366963;12704
366972;13120
366980;13451
366988;13793
366996;14056
367004;14242
367013;14351
367021;14415
367029;14367
367037;14362
367045;14325
367054;14280
367062;14183
367070;14164
367078;14149
367086;14110
367095;14040
367103;14021
367111;14020
367119;14021
367127;14038
367135;14006
367144;13993
367152;14009
367160;14046
367171;13937
367180;13772
367188;13600
367196;13428
367204;13337
367212;13321
367220;13315
367229;13325
367237;13362
367245;13441
367253;13577
367261;13640
367270;13635
367278;13629
367286;13647
367294;13633
367302;13637
367311;13597
367319;13597
367327;13546
367335;13663
367343;12375
367352;9340
367360;7022
367368;9119
367376;16007
367384;16744
367393;15633
367401;14570
367409;14248
367417;13854
367425;13654
367433;13473
367442;13384
367450;13295
367458;13307
367466;13254
367478;13316
367486;13364
367494;13293
367502;13256
367510;13151
367518;12988
367527;12846
367535;12658
367543;12455
367551;12300
367559;12172
367568;12100
367576;12167
367584;12261
367592;12428
367600;12601
367609;12859
367617;13138
367625;13446
367633;13733
367641;14013
367650;14088
367658;14210
367666;14283
367674;14322
367682;14260
367690;14265
367700;14251
367708;14236
367716;14234
367724;14207
367732;14111
367741;14067
367749;13984
367757;13996
367765;13972
367773;14054
367784;14121
367792;14245
367800;14209
367808;14169
367817;14128
367826;13983
367834;13775
367842;13698
367850;13623
367858;13659
367867;13674
367875;13826
367883;13889
367891;14109
367899;14146
367908;14165
367916;14172
367924;14179
367932;14096
367940;14013
367949;13891
367957;13820
367965;13622
367973;13831
367981;12627
367990;9828
367998;7241
368006;8435
368014;15545
368022;16966
368030;15876
368039;14823
368047;14388
368055;14097
368063;13809
368071;13629
368083;13539
368091;13525
368099;13339
368107;13308
368115;13192
368124;13152
368132;13022
368140;12922
368148;12755
368156;12654
368165;12467
368173;12341
368181;12093
368189;11900
368197;11753
368206;11734
368214;11762
368222;11889
368230;12009
368238;12249
368247;12489
368255;12797
368263;13117
368271;13477
368279;13764
368287;13982
368296;14100
368304;14212
368312;14215
368320;14245
368328;14178
368337;14064
368345;13972
368353;13903
368361;13801
368369;13753
368378;13679
368389;13709
368397;13721
368405;13750
368413;13731
368422;13770
368430;13708
368438;13715
368446;13683
368454;13672
368463;13524
368471;13378
368479;13259
368487;13264
368495;13283
368504;13402
368512;13464
368520;13568
368528;13655
368536;13750
368545;13795
368553;13805
368561;13820
368569;13797
368577;13789
368585;13790
368594;13761
368602;13654
368610;13949
368618;12788
368626;9916
368635;7265
368643;8437
368651;15719
368659;17257
368667;16150
368676;15033
368684;14525
368695;14185
368703;13988
368711;13820
368720;13716
368728;13683
368736;13659
368744;13607
368752;13537
368761;13471
368769;13379
368777;13263
368785;13142
368793;13015
368802;12832
368810;12628
368818;12379
368826;12167
368834;12040
368842;12022
368851;12048
368859;12109
368867;12240
368875;12469
368883;12648
368892;12939
368900;13219
368908;13562
368916;13793
368924;14008
368933;14082
368941;14185
368949;14203
368957;14255
368965;14193
368974;14158
368982;14053
368993;14081
369001;14081
369009;14045
369018;13977
369026;13966
369034;13981
369042;13995
369050;13985
369059;14032
369067;13957
369075;13951
369083;13768
369091;13676
369100;13553
369108;13565
369116;13562
369124;13643
369132;13702
369140;13843
369149;13922
369157;14039
369165;14077
369173;14108
369181;14032
369190;14075
369198;14031
369206;14026
369214;13926
369222;13823
369231;14016
369239;12931
369247;10012
369255;7306
369263;8093
369272;15471
369280;17266
369288;16353
369299;14948
369307;14690
369316;14307
369324;14003
369332;13813
369340;13777
369348;13672
369357;13635
369365;13552
369373;13497
369381;13346
369389;13252
369398;13132
369406;13012
369414;12850
369422;12710
369430;12500
369438;12306
369447;12077
369455;11956
369463;11884
369471;12063
369479;12223
369488;12447
369496;12584
369504;12856
369512;13183
369520;13512
369529;13754
369537;14051
369545;14260
369553;14420
369561;14494
369570;14595
369578;14579
369586;14532
369594;14437
369605;14452
369614;14436
369622;14384
369630;14287
369638;14250
369646;14231
369655;14228
369663;14124
369671;14096
369679;13976
369687;13883
369695;13701
369704;13755
369712;13658
369720;13740
369728;13821
369736;13891
369745;14010
369753;14183
369762;14185
369770;14206
369778;14166
369787;14150
369795;14083
369803;14019
369811;13900
369819;13808
369828;13740
369836;13758
369844;12126
369852;8819
369860;7087
369869;9783
369877;16685
369885;16931
369893;15936
369903;14707
369912;14436
369920;14116
369928;13825
369936;13726
369944;13592
369953;13500
369961;13387
369970;13300
369978;13235
369986;13149
369994;13032
370003;12918
370011;12730
370019;12608
370027;12420
370035;12263
370044;12077
370052;11931
370060;11836
370068;11827
370076;11966
370085;12095
370093;12263
370101;12482
370109;12824
370117;13149
370126;13447
370134;13729
370142;13987
370150;14093
370158;14186
370167;14240
370175;14281
370183;14265
370191;14269
370199;14168
370211;14154
370219;14119
370227;14000
370235;13910
370243;13830
370252;13770
370260;13755
370268;13667
370276;13634
370284;13489
370292;13417
370301;13324
370309;13365
370317;13405
370325;13503
370333;13594
370342;13680
370350;13831
370358;13959
370366;13925
370374;13947
370383;13900
370391;13839
370399;13785
370407;13769
370415;13685
370424;13626
370432;13602
370440;13319
370448;11440
370456;8069
370465;6515
370473;11054
370481;16660
370489;16399
370497;15261
370505;14588
370517;14253
370525;14012
370533;13777
370541;13690
370550;13593
370558;13541
370566;13452
370574;13392
370582;13278
370590;13210
370599;13071
370607;12969
370615;12777
370623;12705
370631;12441
370640;12228
370648;11934
370656;11796
370664;11682
370672;11740
370681;11754
370689;11957
370697;12135
370705;12396
370713;12684
370722;13053
370730;13332
370738;13615
370746;13822
370754;14043
370762;14106
370771;14195
370779;14147
370787;14156
370795;14146
370803;14225
370815;14243
370823;14309
370831;14243
370839;14244
370847;14206
370856;14247
370864;14248
370872;14225
370880;14126
370888;14052
370897;13917
370905;13856
370913;13842
370921;13895
370929;13880
370938;13947
370946;14001
370954;14119
370962;14227
370970;14283
370979;14293
370987;14300
370995;14260
371003;14258
371011;14250
371020;14192
371028;14086
371036;14005
371044;14124
371052;12901
371060;9783
371069;6822
371077;8203
371085;15439
371093;16708
371101;15844
371110;14858
371121;14476
371129;14197
371137;13996
371145;13820
371154;13759
371162;13622
371170;13540
371178;13407
371186;13325
371195;13206
371203;13089
371211;12891
371219;12775
371227;12669
371236;12533
371244;12278
371252;12098
371260;11888
371268;11777
371277;11750
371285;11858
371293;11997
371301;12204
371309;12420
371318;12695
371326;13080
371334;13382
371342;13677
371350;13951
371358;14089
371367;14135
371375;14178
371383;14189
371391;14167
371399;14113
371408;14053
371416;13930
371427;13915
371435;13963
371443;13899
371452;13831
371460;13833
371468;13825
371476;13838
371484;13872
371493;13928
371501;13932
371509;13881
371517;13821
371525;13739
371534;13580
371542;13601
371550;13668
371558;13749
371566;13824
371575;13876
371583;13943
371591;14013
371599;13992
371607;14002
371615;13996
371624;13965
371632;13890
371640;13897
371648;13790
371657;13703
371666;13644
371674;13587
371682;12009
371690;8690
371698;6609
371707;9997
371715;16449
371725;16393
371733;15359
371741;14797
371750;14488
371758;14177
371766;14003
371774;13905
371782;13813
371791;13757
371800;13635
371808;13571
371816;13448
371824;13383
371833;13290
371841;13162
371849;12996
371857;12891
371865;12718
371874;12532
371882;12259
371890;12086
371898;11988
371906;11995
371914;12036
371923;12172
371931;12291
371939;12570
371947;12809
371955;13187
371964;13496
371972;13846
371980;14007
371988;14222
371996;14326
372005;14403
372013;14371
372021;14358
372032;14309
372040;14344
372049;14232
372057;14174
372065;14115
372073;14103
372081;14021
372090;13993
372098;13916
372106;13921
372114;13898
372122;13938
372131;13955
372139;14021
372147;14047
372155;14061
372163;14015
372172;13931
372180;13700
372188;13677
372196;13735
372204;13865
372212;13866
372221;13947
372229;14020
372237;14189
372245;14239
372253;14256
372262;14177
372270;14155
372278;14132
372286;14167
372294;14110
372303;14072
372311;13943
372319;14198
372327;13243
372338;9437
372347;7056
372355;9395
372363;16199
372371;16839
372379;15751
372388;14783
372396;14368
372404;14079
372412;13791
372420;13668
372429;13535
372437;13475
372445;13376
372453;13290
372461;13199
372470;13181
372478;13110
372486;13064
372494;12932
372502;12858
372510;12678
372519;12511
372527;12280
372535;12096
372543;11929
372551;11879
372560;11849
372568;11972
372576;12129
372584;12300
372592;12550
372601;12828
372609;13125
372617;13423
372625;13689
372636;14019
372645;14163
372653;14234
372661;14251
372669;14257
372677;14178
372686;14128
372694;14072
372702;14063
372710;14000
372718;13917
372727;13833
372735;13783
372743;13776
372751;13806
372759;13835
372767;13856
372776;13896
372784;13932
372792;13942
372800;13844
372808;13716
372817;13543
372825;13409
372833;13351
372841;13371
372849;13397
372858;13442
372866;13493
372874;13628
372882;13707
372890;13783
372899;13746
372907;13739
372915;13676
372923;13689
372931;13678
372943;13655
372951;13649
372959;13596
372967;13488
372975;11865
372984;8441
372992;6663
373000;10354
373008;16497
373016;16454
373025;15322
373033;14519
373041;14286
373049;13960
373057;13755
373065;13632
373074;13568
373082;13503
373090;13448
373098;13447
373106;13428
373115;13294
373123;13284
373131;13191
373139;13146
373147;12980
373156;12841
373164;12616
373172;12423
373180;12209
373188;12105
373197;12025
373205;12070
373213;12118
373221;12310
373229;12436
373238;12699
373249;13159
373257;13550
373265;13838
373273;14077
373282;14187
373290;14281
373298;14304
373306;14378
373314;14335
373322;14270
373331;14169
373339;14127
373347;14036
373355;14056
373363;13960
373372;13935
373380;13874
373388;13874
373396;13800
373404;13851
373413;13842
373421;13914
373429;13941
373437;13959
373445;13853
373454;13843
373462;13708
373470;13597
373478;13535
373486;13575
373495;13639
373503;13771
373511;13828
373519;13955
373527;14045
373535;14092
373547;14107
373555;14158
373563;14065
373571;14064
373580;13985
373588;13968
373596;13785
373604;14010
373612;12949
373620;10349
373629;7290
373637;7684
373645;14590
373653;17019
373661;16076
373670;14965
373678;14468
373686;14129
373694;13714
373702;13679
373711;13540
373719;13508
373727;13380
373735;13225
373743;13114
373752;12995
373760;12867
373768;12800
373776;12695
373784;12643
373793;12447
373801;12241
373809;12031
373817;11844
373825;11683
373833;11614
373842;11776
373853;11973
373861;12267
373869;12325
373878;12815
373886;12938
373894;13396
373902;13677
373910;14014
373918;14126
373927;14424
373935;14424
373943;14540
373951;14470
373959;14567
373968;14539
373976;14564
373984;14555
373992;14576
374000;14591
374009;14646
374018;14637
374026;14642
374034;14651
374042;14619
374051;14665
374059;14612
374067;14666
374075;14533
374083;14536
374092;14409
374100;14371
374108;14117
374116;14162
374124;14080
374132;14193
374141;14178
374149;14336
374160;14469
374168;14508
374177;14528
374185;14432
374193;14318
374201;14287
374209;14205
374217;14117
374226;13952
374234;13798
374242;13943
374250;12935
374258;10195
374267;7512
374275;8074
374283;15000
374291;16741
374299;15731
374308;14494
374316;14053
374324;13667
374332;13501
374340;13215
374349;13247
374357;13081
374365;13140
374373;12877
374381;12963
374390;12771
374398;12834
374406;12565
374414;12601
374422;12320
374430;12365
374439;12028
374447;12026
374458;11694
374466;11634
374474;11516
374483;11599
374491;11647
374499;11901
374507;12051
374515;12384
374524;12513
374532;12954
374540;13139
374548;13461
374556;13558
374565;13872
374573;13829
374581;14022
374589;13927
374597;14048
374606;13887
374614;14022
374622;13808
374630;13946
374638;13731
374647;13895
374655;13707
374663;13899
374671;13753
374679;13905
374687;13766
374696;13948
374704;13824
374712;13930
374720;13751
374728;13823
374737;13511
374745;13522
374753;13415
374764;13652
374772;13593
374781;13844
374789;13776
374797;14037
374805;13925
374813;14064
374822;13869
374830;14025
374838;13911
374846;14000
374854;13739
374863;13855
374871;13640
374879;13891
374887;12316
374895;9320
374904;7098
374912;9548
374920;16358
374928;17007
374936;15773
374945;14875
374953;14348
374961;14191
374969;13784
374977;13819
374985;13637
374994;13639
375002;13528
375010;13544
375018;13376
375026;13391
375035;13222
375043;13166
375051;12962
375059;12874
375070;12564
375079;12645
375087;12229
375095;12156
375103;11868
375111;12026
375120;12006
375128;12272
375136;12313
375144;12600
375152;12735
375161;13113
375169;13296
375177;13733
375185;13925
375193;14241
375202;14314
375210;14548
375218;14491
375226;14559
375234;14437
375242;14436
375251;14336
375259;14325
375267;14208
375275;14241
375283;14174
375292;14179
375300;14224
375308;14146
375316;14216
375324;14205
375333;14178
375341;14104
375349;14109
375357;13881
375368;13824
375377;13970
375385;13783
375393;13913
375401;13923
375409;14109
375418;14162
375426;14245
375434;14190
375442;14151
375450;14094
375459;14067
375467;14029
375475;13969
375483;13890
375491;13777
375500;13980
375508;13012
375516;10485
375524;7583
375532;7827
375540;14447
375549;17471
375557;16499
375565;15527
375573;14658
375581;14470
375590;14066
375598;13896
375606;13619
375614;13698
375622;13485
375631;13590
375639;13401
375647;13418
375655;13111
375663;13154
375675;12934
375683;12791
375691;12562
375699;12394
375707;12159
375716;12016
375724;11806
375732;11818
375740;11806
375748;12052
375757;12122
375765;12407
375773;12560
375781;12996
375789;13254
375798;13689
375806;13805
375814;14142
375822;14112
375830;14292
375838;14202
375847;14323
375855;14182
375863;14307
375871;14119
375879;14193
375888;14023
375896;14130
375904;13940
375912;14005
375920;13845
375929;13997
375937;13839
375945;14038
375953;13859
375961;13982
375973;13830
375981;13897
375989;13648
375997;13664
376005;13503
376014;13586
376022;13486
376030;13665
376038;13579
376046;13791
376055;13720
376063;13889
376071;13718
376079;13824
376087;13658
376095;13802
376104;13616
376112;13683
376120;13435
376128;13724
376136;12867
376145;10773
376153;7294
376161;6894
376169;12803
376177;16703
376186;15908
376194;14926
376202;14240
376210;14080
376218;13654
376227;13644
376235;13395
376243;13436
376251;13237
376259;13304
376268;13175
376279;13314
376287;13156
376295;13230
376303;12934
376312;12954
376320;12642
376328;12605
376336;12191
376344;12091
376353;11771
376361;11853
376369;11723
376377;11999
376385;11967
376393;12287
376402;12429
376410;12844
376418;13048
376426;13529
376434;13706
376443;14014
376451;14070
376459;14265
376467;14240
376475;14301
376484;14242
376492;14248
376500;14143
376508;14124
376516;14040
376525;13992
376533;13967
376541;13971
376549;13987
376557;13992
376566;14039
376574;14059
376585;14103
376593;14270
376601;14105
376610;14143
376618;13870
376626;13769
376634;13663
376642;13845
376650;13735
376659;13911
376667;13880
376675;14024
376683;14107
376691;14199
376700;14114
376708;14181
376716;14121
376724;14120
376732;14038
376741;13939
376749;13955
376757;14002
376765;14006
376773;12413
376782;8962
376790;6841
376798;10128
376806;16301
376814;16504
376823;15301
376831;14808
376839;14535
376847;14341
376855;14095
376863;14205
376872;13986
376883;14048
376891;14123
376899;13963
376908;13861
376916;13751
376924;13681
376932;13577
376940;13421
376948;13247
376957;12995
376965;12791
376973;12475
376981;12248
376989;12119
376998;12172
377006;12125
377014;12223
377022;12258
377030;12531
377039;12701
377047;13138
377055;13331
377063;13644
377071;13724
377081;13970
377089;13969
377097;14160
377105;14042
377113;14153
377122;13971
377130;14113
377138;13927
377146;14094
377154;13938
377162;14068
377171;13854
377179;14085
377189;14070
377197;14177
377206;14074
377215;14174
377223;14049
377231;14039
377239;13913
377247;13804
377256;13708
377264;13695
377272;13756
377280;13833
377288;13860
377297;14017
377305;13978
377313;14100
377321;14051
377329;14038
377338;14023
377346;14017
377354;13934
377362;13848
377370;13846
377379;13730
377387;13730
377395;13646
377403;12122
377411;8656
377420;6709
377428;10127
377436;16402
377444;16288
377452;15212
377460;14325
377469;14052
377477;13702
377485;13495
377496;13350
377505;13370
377513;13269
377521;13199
377529;13039
377537;12926
377545;12806
377554;12724
377562;12581
377570;12466
377578;12329
377586;12282
377595;12105
377603;11954
377611;11770
377619;11742
377627;11716
377636;11792
377644;11854
377652;12002
377660;12220
377668;12590
377677;12908
377685;13222
377693;13487
377701;13790
377709;13911
377718;14003
377726;14040
377734;14080
377742;14064
377750;14076
377758;14023
377767;14029
377775;13985
377783;13987
377794;13967
377802;14020
377811;13966
377819;13911
377827;13843
377835;13890
377843;13877
377852;13918
377860;13835
377868;13809
377876;13646
377884;13529
377893;13426
377901;13470
377909;13501
377917;13660
377925;13775
377934;13865
377942;13962
377950;14080
377958;14156
377966;14137
377975;14117
377983;14145
377991;14115
377999;14111
378007;14042
378015;13964
378024;14154
378032;13319
378040;10887
378048;7722
378056;7687
378065;14347
378073;17309
378081;16591
378089;15430
378100;14768
378109;14495
378117;14185
378125;13996
378133;13882
378141;13759
378150;13639
378158;13563
378166;13493
378174;13359
378182;13294
378191;13178
378199;13089
378207;12917
378215;12754
378223;12522
378232;12331
378240;12141
378248;11980
378256;11907
378264;12002
378273;12079
378281;12228
378289;12368
378297;12653
378305;12970
378313;13272
378322;13550
378330;13829
378338;14055
378346;14197
378354;14298
378363;14393
378371;14437
378379;14403
378387;14422
378395;14339
378407;14406
378415;14436
378423;14358
378431;14295
378439;14273
378448;14269
378456;14218
378464;14200
378472;14125
378480;14105
378489;14061
378497;13874
378505;13696
378513;13666
378521;13699
378530;13722
378538;13773
378546;13816
378554;13935
378562;13989
378570;14080
378579;14008
378587;14002
378595;13913
378603;13905
378611;13856
378620;13830
378628;13787
378636;13703
378644;13851
378652;12647
378661;9654
378669;7207
378677;8080
378685;15445
378693;17355
378705;16255
378713;15251
378721;14653
378729;14406
378737;14125
378746;13882
378754;13818
378762;13710
378770;13657
378778;13596
378787;13481
378795;13367
378803;13306
378811;13179
378819;13055
378828;12851
378836;12714
378844;12466
378852;12256
378860;11971
378868;11877
378877;11783
378885;11892
378893;12003
378901;12243
378909;12384
378918;12759
378926;13110
378934;13496
378942;13763
378950;14031
378959;14218
378967;14398
378975;14469
378983;14581
378991;14562
379000;14596
379011;14542
379019;14512
379027;14415
379035;14346
379044;14211
379052;14102
379060;13994
379068;13991
379076;14131
379085;14099
379093;13920
379101;13696
379109;13438
379117;13190
379126;13183
379134;13172
379142;13354
379150;13526
379158;13788
379166;13867
379175;14117
379183;14132
379191;14301
379199;14202
379207;14246
379216;14119
379224;14114
379232;14081
379240;14094
379248;14021
379257;14295
379265;13612
379273;11502
379281;8442
379289;8018
379298;13994
379306;17417
379317;16212
379325;15137
379333;14377
379342;13997
379350;13458
379358;13378
379366;13223
379374;13285
379383;13160
379391;13239
379399;13188
379407;13292
379415;13274
379423;13296
379432;13120
379440;12982
379448;12755
379456;12552
379464;12300
379473;12038
379481;11927
379489;11831
379497;11913
379505;11963
379514;12113
379522;12244
379530;12642
379538;12916
379546;13355
379555;13623
379563;13996
379571;14129
379579;14408
379587;14427
379596;14586
379604;14515
379623;14916
379631;14811
379640;14666
379648;14555
379656;14472
379664;14337
379672;14310
379681;14256
379689;14237
379697;14255
379705;14236
379713;14233
379721;14172
379730;14108
379738;13945
379746;13860
379754;13671
379762;13774
379771;13706
379779;13787
379787;13682
379796;13824
379804;13717
379813;13906
379821;13809
379829;13916
379837;13782
379845;13896
379854;13621
379862;13712
379870;13518
379878;13993
379886;13219
379895;10993
379903;7310
379911;6465
379919;12403
379929;16677
379939;15889
379947;14954
379955;14536
379963;14284
379971;14087
379980;14063
379988;14065
379996;14027
380004;14185
380012;14790
380020;14647
380029;14629
380037;14536
380045;15149
380053;15590
380061;16001
380070;15393
380078;14696
380086;13896
380094;13441
380102;12526
380111;11875
380119;10797
380127;10260
380135;10261
380143;12839
380152;13446
380160;13450
380168;13352
380176;13928
380184;14354
380193;14943
380201;14991
380209;15192
380217;14976
380225;15066
380237;14743
380245;14707
380253;14208
380261;13569
380269;13100
380278;13453
380286;13680
380294;14197
380302;14378
380310;14910
380318;15614
380327;16597
380335;17086
380343;17561
380351;17248
380359;16973
380368;16602
380376;16533
380384;16351
380392;17131
380400;17378
380409;17519
380417;17230
380425;17631
380433;17884
380441;18800
380450;19504
380458;19597
380466;19136
380474;19102
380482;19120
380490;19336
380499;19433
380507;20301
380515;20705
380523;19314
380535;14443
380543;13475
380551;19333
380559;20489
380567;18916
380575;17256
380584;15443
380592;14217
380600;12882
380608;12168
380616;11535
380625;11402
380633;10838
380641;10442
380649;10164
380657;10012
380666;9693
380674;9500
380682;9069
380690;8628
380698;8176
380707;7907
380715;7635
380723;7536
380731;7492
380739;7507
380748;7477
380756;7503
380764;7771
380772;8526
380780;9005
380788;9044
380797;9197
380805;9228
380813;9124
380821;9054
380829;9173
380838;9099
380849;9310
380857;9787
380865;10451
380873;10924
380882;10739
380890;10586
380898;10375
380906;10241
380914;9857
380923;9932
380931;9942
380939;10047
380947;10243
380955;10555
380964;10688
380972;10826
380980;10929
380988;10937
380996;10936
381005;10976
381013;11050
381021;11202
381029;11524
381037;11583
381046;11782
381054;11835
381062;11953
381070;11905
381078;11905
381086;11929
381095;12015
381103;11981
381111;12083
381119;12003
381127;12076
381136;12553
381144;11189
381155;6104
381163;4162
381171;8309
381180;14879
381188;15051
381196;14610
381204;13979
381212;13663
381221;13406
381229;13235
381237;13134
381245;13149
381253;13081
381262;13154
381270;13131
381278;13209
381286;13132
381294;13141
381303;13039
381311;13065
381319;12908
381327;12870
381335;12606
381343;12554
381352;12285
381360;12347
381368;12224
381376;12471
381384;12493
381393;12853
381401;13036
381409;13579
381417;13836
381425;14306
381434;14450
381442;14829
381450;14870
381461;15233
381469;15287
381478;15405
381486;15269
381494;15342
381502;15167
381510;15254
381519;15104
381527;15136
381535;14973
381543;15021
381551;14778
381560;14817
381568;14640
381576;14845
381584;14774
381592;15002
381601;14935
381609;15125
381617;15030
381625;15183
381633;15051
381641;15133
381650;14889
381658;14929
381666;14727
381674;14831
381682;14717
381691;14912
381699;14792
381707;14910
381715;14842
381723;14906
381732;14799
381740;14796
381748;14652
381756;14693
381767;14508
381776;14572
381784;14282
381792;14862
381800;14299
381808;11649
381817;7649
381825;6294
381833;11598
381841;16919
381849;16651
381858;16047
381866;15208
381874;14981
381882;14501
381890;14318
381898;14054
381907;14035
381915;13834
381923;13850
381931;13758
381939;13816
381948;13680
381956;13651
381964;13434
381972;13386
381980;13112
381989;12973
381997;12626
382005;12436
382013;12153
382021;12032
382030;11913
382038;11943
382046;12067
382054;12257
382065;12593
382074;13136
382082;13411
382090;13869
382098;14062
382106;14308
382115;14239
382123;14237
382131;14051
382139;14006
382147;13832
382156;13802
382164;13583
382172;13410
382180;13250
382188;13295
382196;13218
382205;13042
382213;12763
382221;12526
382229;12323
382237;12206
382246;12136
382254;12214
382262;12340
382270;12497
382278;12698
382287;12779
382295;12942
382303;12975
382311;13129
382319;13307
382328;13287
382336;13123
382344;13002
382352;12953
382360;12917
382372;13019
382380;13156
382388;13297
382396;13509
382404;14607
382413;15074
382421;15175
382429;15098
382437;14876
382445;14792
382454;14386
382462;13840
382470;13468
382478;13762
382486;13587
382494;11215
382503;7150
382511;5603
382519;10549
382527;16227
382535;16312
382545;15509
382553;15020
382561;14934
382569;14749
382577;14816
382586;14804
382594;14934
382602;14824
382610;14874
382618;14789
382627;14912
382635;14807
382643;14963
382651;15285
382659;15916
382668;16094
382679;16256
382687;16246
382695;16013
382703;16041
382712;16318
382720;16120
382728;15588
382736;15096
382744;14885
382753;14511
382761;14252
382769;13831
382777;14131
382785;15075
382793;15769
382802;15659
382810;15339
382818;14588
382826;13913
382834;12959
382843;12837
382851;12785
382859;12775
382867;12608
382875;12593
382884;12365
382892;12347
382900;12353
382908;12471
382916;12175
382925;12602
382933;12515
382941;12633
382949;12628
382957;12907
382966;12956
382977;13217
382985;13245
382993;13305
383001;13231
383010;13347
383018;13228
383026;13164
383034;13023
383042;13125
383050;12994
383059;13192
383067;13138
383075;13346
383083;13309
383091;13547
383100;13591
383108;13678
383116;13447
383124;13461
383132;13327
383141;13410
383149;13234
383157;13215
383165;13302
383173;13035
383182;10775
383190;6732
383198;4716
383206;9030
383214;14801
383223;15137
383231;14267
383239;13969
383247;13640
383255;13423
383263;13301
383272;13343
383283;13312
383291;13370
383299;12992
383308;12900
383316;12625
383324;12611
383332;12374
383340;12392
383348;12267
383357;12306
383365;12190
383373;12191
383381;12026
383389;11873
383398;11686
383406;11775
383414;11652
383422;11752
383430;11799
383439;12042
383447;12306
383455;12812
383463;13242
383471;13764
383480;14209
383488;15130
383496;16131
383504;16670
383512;17156
383521;17658
383529;17856
383537;17767
383545;17824
383553;16676
383561;15206
383570;15078
383581;14944
383589;14814
383597;14457
383606;14325
383614;14096
383622;14010
383630;13852
383638;13928
383646;13794
383655;13814
383663;13811
383671;13882
383679;13814
383687;13788
383696;13769
383704;13660
383712;13515
383720;13342
383728;13215
383737;13118
383745;13113
383753;13075
383761;13214
383769;13274
383778;13435
383786;13460
383794;13505
383802;13382
383810;13482
383818;13372
383827;13400
383835;13302
383843;13397
383851;13265
383859;13811
383868;12669
383876;9644
383887;6456
383895;9310
383903;16108
383912;16489
383920;15652
383928;14693
383936;14308
383944;14058
383953;13715
383961;13539
383969;13272
383977;13167
383985;13050
383994;13013
384002;12920
384010;12982
384018;12814
384026;12769
384035;12570
384043;12482
384051;12289
384059;12098
384067;11600
384076;11419
384084;11160
384092;11216
384100;11277
384108;11590
384116;11701
384125;12126
384133;12403
384141;13011
384149;13433
384157;13961
384166;14166
384174;14518
384182;14650
384193;14950
384201;14797
384210;14837
384218;14688
384226;14701
384234;14548
384242;14604
384251;14460
384259;14399
384267;14255
384275;14363
384283;14219
384292;14274
384300;14066
384308;14110
384316;13984
384324;14152
384333;13697
384341;11330
384349;10344
384357;11127
384365;11610
384374;12056
384382;12152
384390;12484
384398;12552
384406;12831
384414;12963
384423;13437
384431;13626
384439;13798
384447;13666
384455;13905
384464;13931
384472;14096
384480;14191
384491;14544
384499;14607
384508;15048
384516;14767
384524;12901
384532;9279
384540;8462
384549;13059
384557;18779
384565;18199
384573;17281
384581;16327
384590;16067
384598;15730
384606;15570
384614;15281
384622;15391
384631;15402
384639;15438
384647;15387
384655;15463
384663;15419
384671;15286
384680;14969
384688;14776
384696;14342
384704;14003
384712;13777
384721;13491
384729;13165
384737;13091
384745;13058
384753;13046
384762;13268
384770;13237
384778;13438
384786;13771
384797;14225
384806;14637
384814;14726
384822;15085
384830;15096
384838;15347
384847;15330
384855;15452
384863;15340
384871;15232
384879;14973
384888;14846
384896;14648
384904;14732
384912;14605
384920;14472
384929;14324
384937;14211
384945;14231
384953;14272
384961;14108
384969;13905
384978;13850
384986;13933
384994;13921
385002;13767
385010;13871
385019;13820
385027;13751
385035;13647
385043;13547
385051;13417
385060;13343
385068;13357
385076;13473
385084;13373
385092;13541
385104;13706
385112;13664
385120;13569
385128;13379
385136;13391
385145;13349
385153;13187
385161;13211
385169;13315
385177;12527
385186;10417
385194;7339
385202;7322
385210;12830
385218;16442
385226;15776
385235;14490
385243;13774
385251;13495
385259;13165
385267;12990
385276;12894
385284;12913
385292;12723
385300;12725
385308;12665
385317;12642
385325;12565
385333;12545
385341;12311
385349;12233
385358;12070
385366;12081
385374;11804
385382;11549
385390;11265
385402;11160
385410;11073
385418;11262
385426;11272
385434;11528
385443;11766
385451;12168
385459;12464
385467;12809
385475;13081
385484;13357
385492;13517
385500;13695
385508;13694
385516;13776
385524;13732
385533;13732
385541;13658
385549;13640
385557;13557
385565;13553
385574;13529
385582;13504
385590;13432
385598;13442
385606;13464
385615;13525
385623;13513
385631;13575
385639;13570
385647;13591
385656;13542
385664;13528
385672;13401
385680;13375
385688;13366
385697;13471
385708;13616
385716;13801
385724;13884
385732;14068
385741;14087
385749;14087
385757;14046
385765;14017
385773;13925
385782;13897
385790;13770
385798;13676
385806;13541
385814;13481
385822;12006
385831;8800
385839;6936
385847;9784
385855;16254
385863;16494
385872;15400
385880;14358
385888;13958
385896;13660
385905;13398
385914;13356
385922;13302
385930;13295
385938;13227
385946;13165
385955;13153
385963;13144
385971;13071
385979;13002
385987;12951
385996;12813
386004;12624
386014;12384
386022;12142
386031;11898
386040;11674
386048;11638
386056;11644
386064;11753
386072;11852
386081;12147
386089;12510
386097;12888
386105;13234
386113;13566
386121;13823
386130;14052
386138;14142
386146;14233
386154;14277
386162;14303
386171;14358
386179;14324
386187;14309
386195;14323
386203;14259
386212;14192
386220;14136
386228;14129
386236;14176
386244;14216
386253;14230
386261;14146
386269;14141
386277;14050
386285;13875
386294;13762
386302;13801
386313;13849
386321;14006
386329;14009
386338;14153
386346;14280
386354;14342
386362;14379
386370;14393
386378;14353
386387;14351
386395;14314
386403;14301
386411;14243
386419;14115
386428;14163
386436;13594
386444;11457
386452;8252
386460;7766
386469;12856
386477;17587
386485;16988
386493;15877
386501;14886
386510;14431
386518;14136
386526;13827
386534;13675
386542;13526
386551;13470
386559;13348
386567;13351
386575;13273
386583;13204
386591;13123
386600;13027
386608;12823
386619;12704
386627;12533
386636;12267
386644;11993
386652;11836
386660;11689
386668;11740
386676;11845
386685;12030
386693;12194
386701;12586
386709;12947
386717;13334
386726;13631
386734;13971
386742;14166
386750;14320
386758;14384
386767;14501
386775;14507
386783;14516
386791;14500
386799;14514
386808;14472
386816;14481
386824;14410
386832;14357
386840;14232
386849;14210
386857;14178
386865;14116
386873;13980
386881;13895
386889;13764
386898;13692
386906;13682
386914;13703
386925;13810
386934;13929
386942;13966
386950;14106
386958;14153
386966;14205
386974;14191
386983;14199
386991;14179
386999;14156
387007;14082
387015;14069
387024;13941
387032;13962
387040;13809
387048;12265
387056;8997
387065;7560
387073;10548
387081;17033
387089;17047
387097;16060
387106;15013
387114;14632
387122;14348
387130;14081
387138;13913
387146;13838
387155;13764
387163;13751
387171;13679
387179;13594
387187;13496
387196;13386
387204;13268
387212;13186
387223;13017
387231;12877
387240;12620
387248;12372
387256;12087
387264;11923
387272;11856
387281;11953
387289;12067
387297;12232
387305;12488
387313;12879
387322;13270
387330;13617
387338;13920
387346;14174
387354;14309
387363;14409
387371;14410
387379;14455
387387;14407
387395;14373
387404;14333
387412;14316
387420;14233
387428;14204
387436;14130
387444;14069
387453;14005
387461;13973
387469;13926
387477;13849
387485;13793
387494;13619
387502;13525
387510;13474
387518;13511
387529;13604
387538;13721
387546;13774
387554;13805
387562;13900
387570;13920
387579;13888
387587;13898
387595;13859
387603;13794
387611;13834
387620;13853
387628;13821
387636;13694
387644;13816
387652;12960
387661;10442
387669;7387
387677;7686
387685;14266
387693;16777
387702;15964
387711;14844
387719;14396
387727;14111
387735;13832
387743;13687
387752;13636
387760;13562
387768;13541
387776;13463
387784;13461
387793;13355
387801;13300
387809;13132
387817;13024
387825;12887
387837;12687
387845;12541
387853;12272
387861;11973
387869;11747
387878;11647
387886;11695
387894;11746
387902;11849
387910;12047
387919;12397
387927;12745
387935;13168
387943;13490
387951;13812
387960;13962
387968;14139
387976;14151
387984;14183
387992;14165
388001;14195
388009;14116
388017;14099
388025;14035
388033;14015
388041;13873
388050;13840
388058;13768
388066;13779
388074;13719
388082;13660
388091;13607
388099;13578
388107;13453
388115;13430
388123;13434
388135;13584
388143;13726
388151;13803
388159;13821
388167;13898
388176;13969
388184;14043
388192;13967
388200;13979
388208;13927
388217;13915
388225;13799
388233;13761
388241;13647
388249;13630
388258;13349
388266;11964
388274;8637
388282;6871
388290;9960
388298;16160
388307;16339
388315;15292
388323;14416
388331;14180
388339;13859
388348;13718
388356;13637
388364;13607
388372;13541
388380;13499
388389;13390
388397;13308
388405;13222
388413;13178
388421;13044
388430;12944
388441;12802
388449;12729
388457;12451
388465;12256
388474;12034
388482;11883
388490;11836
388498;11937
388506;12027
388515;12198
388523;12513
388531;12967
388539;13354
388547;13780
388556;14070
388564;14296
388572;14411
388580;14528
388588;14511
388596;14508
388605;14473
388613;14413
388621;14359
388629;14334
388637;14252
388646;14206
388654;14140
388662;14154
388670;14109
388678;14088
388687;14075
388695;14097
388703;14052
388711;14018
388719;13986
388728;13854
388736;13727
388747;13715
388755;13804
388763;13867
388772;13908
388780;13949
388788;14020
388796;14143
388804;14202
388813;14208
388821;14152
388829;14127
388837;14093
388845;13985
388854;13888
388862;13818
388870;13727
388878;13801
388886;13182
388894;11159
388903;7799
388911;7204
388919;12410
388927;16610
388935;16103
388944;14924
388952;14394
388960;14154
388968;13884
388976;13677
388985;13631
388993;13531
389001;13515
389009;13449
389017;13397
389026;13279
389034;13252
389045;13183
389053;13136
389061;12989
389070;12808
389078;12621
389086;12380
389094;12147
389102;11955
389111;11858
389119;11873
389127;11934
389135;12093
389143;12266
389151;12581
389160;12916
389168;13298
389176;13558
389184;13854
389192;14064
389201;14212
389209;14239
389217;14330
389225;14271
389233;14289
389242;14178
389250;14196
389258;14120
389266;14094
389274;14032
389283;14020
389291;13973
389299;13971
389307;13895
389315;13972
389324;13975
389332;14022
389340;13981
389351;14077
389359;14117
389368;14088
389376;13948
389384;13827
389392;13633
389400;13648
389409;13666
389417;13732
389425;13704
389433;13764
389441;13805
389449;13957
389458;14021
389466;14049
389474;14003
389482;14047
389490;13991
389499;14012
389507;13952
389515;13939
389523;13801
389531;13943
389540;12845
389548;10088
389556;7438
389564;8698
389572;15142
389581;16843
389589;15848
389597;14783
389605;14378
389613;14119
389622;13818
389630;13711
389638;13582
389646;13499
389657;13451
389666;13477
389674;13329
389682;13307
389690;13182
389698;13113
389706;12967
389715;12868
389723;12683
389731;12462
389739;12202
389747;12015
389756;11855
389764;11859
389772;11906
389780;12028
389788;12138
389797;12372
389805;12669
389813;13057
389821;13419
389829;13748
389838;13960
389846;14135
389854;14197
389862;14247
389870;14249
389879;14208
389887;14145
389895;14109
389903;14069
389911;14001
389919;13924
389928;13873
389936;13914
389944;13905
389955;13964
389964;14047
389972;14003
389980;13985
389988;13947
389996;13980
390004;13936
390013;13918
390021;13905
390029;13828
390037;13681
390045;13528
390054;13482
390062;13589
390070;13645
390078;13620
390086;13668
390095;13786
390103;13969
390111;14078
390119;14116
390127;14138
390136;14139
390144;14172
390152;14163
390160;14061
390168;13967
390177;13763
390186;13855
390194;12747
390202;10044
390210;7445
390218;8646
390227;15185
390235;16740
390243;15688
390251;14684
390262;14296
390270;14037
390278;13897
390286;13809
390294;13742
390302;13659
390312;13602
390320;13597
390328;13537
390336;13481
390344;13356
390353;13222
390361;13075
390369;12960
390377;12774
390385;12594
390394;12340
390402;12129
390410;11962
390418;11918
390426;11861
390435;11916
390443;11985
390451;12224
390459;12472
390467;12836
390476;13177
390484;13543
390492;13787
390500;14060
390508;14110
390516;14229
390525;14209
390533;14199
390541;14141
390549;14143
390561;14130
390569;14132
390577;14023
390585;13979
390593;13947
390601;13963
390610;13917
390618;13957
390626;13929
390634;13923
390642;13871
390651;13944
390659;13913
390667;14010
390675;13941
390683;13926
390692;13704
390700;13633
390708;13606
390716;13679
390724;13618
390733;13662
390741;13680
390749;13827
390757;13954
390765;13987
390774;13943
390782;13967
390790;13898
390798;13890
390806;13802
390814;13764
390823;13665
390831;13694
390839;13430
390847;11871
390855;8621
390867;7872
390875;14108
390883;17112
390891;16197
390899;14981
390908;14391
390916;14092
390924;13729
390932;13647
390940;13528
390949;13502
390957;13377
390965;13311
390973;13192
390981;13093
390990;13027
390998;12968
391006;12865
391014;12780
391022;12614
391031;12444
391039;12210
391047;12053
391055;11860
391063;11815
391071;11798
391080;11910
391088;12060
391096;12238
391104;12490
391112;12812
391121;13150
391129;13514
391137;13834
391145;14071
391153;14238
391162;14316
391173;14457
391181;14554
391189;14451
391197;14413
391206;14282
391214;14250
391222;14172
391230;14070
391238;13969
391247;13945
391255;13906
391263;13913
391271;13923
391279;13903
391288;13862
391296;13850
391304;13843
391312;13866
391320;13812
391329;13719
391337;13623
391345;13455
391353;13365
391361;13368
391369;13419
391378;13511
391386;13625
391394;13698
391402;13842
391410;13976
391419;13972
391427;13935
391435;13888
391443;13817
391451;13807
391460;13765
391471;13725
391479;13650
391487;13791
391495;12502
391504;9476
391512;7330
391520;9015
391528;16195
391536;17166
391545;16112
391553;14884
391561;14275
391569;14022
391577;13737
391586;13626
391594;13565
391602;13513
391610;13479
391618;13418
391626;13301
391635;13262
391643;13187
391651;13140
391659;12982
391667;12876
391676;12701
391684;12528
391692;12297
391700;12142
391708;11951
391717;11927
391725;11909
391733;12030
391741;12188
391749;12415
391758;12646
391766;12996
391777;13537
391785;13939
391793;14127
391802;14276
391810;14369
391818;14416
391826;14444
391834;14493
391843;14435
391851;14388
391859;14293
391867;14249
391875;14154
391884;14158
391892;14123
391900;14207
391908;14181
391916;14220
391924;14184
391933;14224
391941;14126
391949;14140
391957;13874
391965;13843
391974;13763
391982;13779
391990;13792
391998;13892
392006;13918
392015;14108
392023;14178
392031;14291
392039;14233
392047;14228
392056;14179
392064;14317
392072;14255
392083;14219
392091;14097
392100;14048
392108;14081
392116;13101
392124;10579
392132;8048
392141;8408
392149;14758
392157;17625
392165;16666
392173;15457
392182;14540
392190;14394
392198;13959
392206;13952
392214;13669
392222;13662
392231;13444
392239;13488
392247;13262
392255;13295
392263;13086
392272;13129
392280;12879
392288;12843
392296;12624
392304;12521
392313;12215
392321;12154
392329;11898
392337;11826
392345;11789
392354;11937
392362;12035
392370;12198
392381;12575
392389;13111
392398;13294
392406;13780
392414;13992
392422;14310
392430;14283
392439;14477
392447;14390
392455;14543
392463;14425
392471;14529
392479;14369
392488;14357
392496;14206
392504;14154
392512;14037
392520;14049
392529;13943
392537;13952
392545;13845
392554;13884
392562;13795
392571;13783
392579;13754
392587;13677
392595;13525
392603;13429
392612;13434
392620;13416
392628;13443
392636;13487
392644;13593
392653;13666
392661;13864
392669;13842
392677;13967
392688;14003
392697;14007
392705;13949
392713;13698
392721;13669
392729;13451
392738;13737
392746;12448
392754;9278
392762;6251
392770;7718
392778;15105
392787;16350
392795;15415
392803;14487
392811;14198
392819;13862
392828;13607
392836;13495
392844;13430
392852;13299
392860;13234
392869;13145
392877;13117
392885;12960
392893;12965
392901;12829
392910;12742
392918;12531
392926;12390
392934;12128
392942;12094
392951;11782
392959;11750
392967;11609
392975;11737
392983;11790
392995;12044
393003;12310
393011;12620
393019;12937
393027;13358
393036;13583
393044;13806
393052;13888
393060;13990
393068;13945
393076;13911
393085;13022
393093;12936
393101;13156
393109;13506
393117;13705
393126;13917
393134;13845
393142;13821
393150;13612
393158;13670
393167;13604
393175;13768
393183;13718
393191;13849
393199;13804
393208;13895
393216;13868
393224;13919
393232;13503
393240;13369
393249;13365
393257;13731
393265;13705
393273;14005
393281;14052
393293;14419
393301;14445
393309;14451
393317;14416
393325;14511
393334;14373
393342;14502
393350;14664
393358;15052
393366;15033
393374;15422
393383;14423
393391;11515
393399;7987
393407;8311
393415;15283
393424;17454
393432;16050
393440;14900
393448;14563
393456;14666
393465;14335
393473;14363
393481;14228
393489;14298
393497;14088
393506;14111
393514;13963
393522;13997
393530;13779
393538;13715
393546;13478
393555;13393
393563;13189
393571;13030
393579;12718
393587;12562
393599;12264
393607;12248
393615;12144
393623;12262
393631;12268
393640;12526
393648;12653
393656;13023
393664;13153
393672;13484
393681;13557
393689;13798
393697;13857
393705;14055
393713;14007
393722;14155
393730;14025
393738;14186
393746;14018
393754;13998
393763;13895
393771;14032
393779;13972
393787;14006
393795;13938
393804;13913
393812;13815
393820;13786
393828;13744
393836;13744
393844;13584
393853;13395
393861;13159
393869;12879
393877;12699
393885;12607
393894;12664
393905;12889
393913;12897
393921;12912
393929;12956
393938;13049
393946;13036
393954;13022
393962;13098
393970;13687
393979;13898
393987;13212
393995;12954
394003;13014
394011;13805
394020;12924
394028;9573
394036;6697
394044;7605
394052;15252
394061;17221
394069;16665
394077;15654
394085;14836
394093;14250
394102;13713
394110;13345
394118;13105
394126;13042
394134;12985
394142;12971
394151;13177
394159;14070
394167;15168
394175;16338
394183;16789
394192;16483
394203;15309
394211;14647
394219;14109
394227;13529
394236;12938
394244;12582
394252;12708
394260;12703
394268;12605
394277;12593
394285;12818
394293;13300
394301;13641
394309;14094
394318;14383
394326;14710
394334;14734
394342;14773
394350;14691
394359;14650
394367;14567
394375;14544
394383;14470
394391;14417
394399;14223
394408;14146
394416;14147
394424;14224
394432;14116
394440;14155
394449;13927
394457;13901
394465;13631
394473;13570
394481;13336
394490;13400
394498;13252
394509;13481
394517;13562
394525;13698
394534;13802
394542;13982
394550;13920
394558;13998
394566;13939
394575;13987
394583;13895
394591;13951
394599;13857
394607;13777
394616;14085
394624;13605
394632;10778
394640;7552
394648;6980
394657;12787
394665;16863
394673;16238
394681;15362
394689;14561
394697;14144
394706;13839
394714;13452
394722;13314
394730;13219
394738;13196
394747;13060
394755;13043
394763;12970
394771;12955
394779;12884
394788;12806
394796;12668
394804;12544
394815;12294
394823;12116
394832;11825
394840;11620
394848;11494
394856;11482
394864;11557
394873;11749
394881;12000
394889;12411
394897;12836
394905;13225
394914;13536
394922;13814
394930;14007
394938;14197
394946;14340
394954;14412
394963;14403
394971;14428
394979;14425
394987;14410
394995;14360
395004;14323
395012;14289
395020;14222
395028;14164
395036;14121
395045;14082
395053;14048
395061;14004
395069;13882
395077;13747
395086;13617
395094;13546
395102;13501
395113;13478
395121;13590
395130;13577
395138;13625
395146;13651
395154;13625
395162;13557
395171;13528
395179;13530
395187;13571
395195;13501
395203;13459
395212;13399
395220;13542
395228;13618
395236;11812
395244;7942
395252;5361
395261;8998
395269;15341
395277;15690
395285;14951
395293;14382
395302;14176
395310;13931
395318;13751
395326;13700
395334;13654
395343;13661
395351;13577
395359;13544
395367;13491
395375;13491
395384;13434
395392;13368
395400;13194
395408;13041
395419;12882
395428;12734
395436;12503
395444;12326
395452;12228
395460;12244
395469;12310
395477;12407
395485;12565
395493;12874
395501;13214
395510;13563
395518;13870
395526;14130
395534;14293
395542;14434
395550;14519
395559;14565
395567;14528
395575;14495
395583;14389
395592;14339
395601;14275
395609;14174
395617;14110
395625;14064
395633;13988
395642;13956
395650;13937
395658;13920
395666;13858
395674;13769
395683;13644
395691;13581
395699;13549
395707;13527
395715;13543
395726;13723
395734;13800
395742;13911
395751;13910
395759;13896
395768;13842
395776;13815
395784;13786
395792;13861
395800;13837
395809;13810
395817;13689
395825;13846
395833;14110
395841;12388
395849;8352
395858;5144
395866;7760
395874;15131
395882;16130
395890;15658
395899;15166
395907;15037
395915;14745
395923;14538
395931;14347
395940;14285
395948;14180
395956;14069
395964;13993
395972;13936
395981;13836
395989;13777
395997;13663
396005;13507
396013;13314
396025;13124
396033;12924
396041;12692
396049;12475
396057;12400
396066;12351
396074;12387
396082;12446
396090;12603
396098;12849
396106;13221
396115;13537
396123;13861
396131;14095
396139;14311
396147;14383
396156;14444
396164;14457
396172;14425
396180;14312
396188;14238
396197;14154
396205;14106
396213;14007
396221;13952
396229;13960
396238;13949
396246;13938
396254;13928
396262;13981
396270;14007
396279;13973
396287;13908
396295;13733
396303;13590
396311;13484
396319;13482
396331;13503
396339;13563
396347;13553
396355;13604
396364;13646
396372;13706
396380;13678
396388;13666
396396;13662
396404;13671
396413;13639
396421;13655
396429;13630
396437;13615
396445;14173
396454;13079
396462;9479
396470;5434
396478;5710
396486;13317
396495;15686
396503;15253
396511;14596
396519;14299
396527;14019
396536;13815
396544;13743
396552;13648
396560;13581
396568;13545
396577;13474
396585;13409
396593;13392
396601;13257
396609;13159
396617;13038
396626;12909
396637;12717
396645;12592
396653;12376
396662;12173
396670;12052
396678;12066
396686;12110
396694;12207
396702;12357
396711;12586
396719;12922
396727;13316
396735;13705
396743;14077
396752;14260
396760;14411
396768;14503
396776;14575
396784;14519
396793;14475
396801;14373
396809;14318
396817;14254
396825;14249
396834;14190
396842;14132
396850;14011
396858;14010
396866;13995
396874;14026
396883;14023
396891;14023
396899;13939
396907;13888
396915;13776
396924;13648
396935;13556
396943;13622
396951;13601
396959;13593
396968;13593
396976;13676
396984;13743
396992;13829
397000;13843
397009;13860
397017;13818
397025;13787
397033;13779
397041;13778
397050;13724
397058;13680
397066;13944
397074;13873
397082;11617
397091;7552
397099;5203
397107;10033
397115;15825
397123;15917
397132;15172
397140;14744
397148;14514
397156;14271
397164;14126
397172;14029
397181;13940
397189;13856
397197;13754
397205;13685
397213;13595
397222;13444
397230;13326
397241;13218
397249;13008
397257;12747
397266;12523
397274;12330
397282;12081
397290;11917
397298;11895
397307;11982
397315;12098
397323;12275
397331;12422
397339;12686
397348;13019
397356;13370
397364;13645
397372;13877
397380;14021
397389;14112
397397;14172
397405;14158
397413;14120
397421;14058
397430;13971
397438;13906
397446;13859
397454;13834
397462;13797
397470;13756
397479;13733
397487;13725
397495;13755
397503;13748
397511;13768
397520;13787
397528;13806
397536;13844
397547;13907
397555;13899
397564;13712
397572;13649
397580;13692
397588;13723
397596;13736
397605;13767
397613;13810
397621;13876
397629;13929
397637;13904
397646;13908
397654;13861
397662;13880
397670;13895
397678;13890
397687;13829
397695;13713
397703;14095
397711;13732
397719;10994
397727;6823
397736;5159
397744;11454
397752;16048
397760;15832
397768;15058
397777;14656
397785;14295
397793;14002
397801;13909
397809;13866
397818;13788
397826;13731
397834;13655
397845;13610
397853;13562
397862;13433
397870;13301
397878;13134
397886;12967
397894;12795
397903;12591
397911;12420
397919;12289
397927;12196
397935;12171
397944;12247
397952;12377
397960;12564
397968;12779
397976;13060
397985;13379
397993;13718
398001;14057
398009;14290
398017;14411
398025;14485
398034;14500
398042;14486
398050;14433
398058;14389
398066;14323
398075;14253
398083;14201
398091;14169
398099;14135
398107;14121
398116;14117
398124;14090
398132;14100
398140;14163
398151;14326
398160;14424
398168;14409
398176;14425
398184;14345
398192;14216
398201;13952
398209;13783
398217;13668
398225;13691
398233;13683
398242;13653
398250;13663
398258;13749
398266;13815
398274;13813
398282;13777
398291;13773
398299;13715
398307;13702
398315;13681
398323;13627
398332;13517
398340;13622
398348;13873
398356;12084
398364;8107
398373;5167
398381;8580
398389;15508
398397;15932
398405;15138
398414;14603
398422;14432
398430;14179
398438;14049
398447;13940
398458;13971
398466;13969
398474;13881
398482;13751
398490;13558
398499;13369
398507;13253
398515;13089
398523;12917
398531;12715
398540;12524
398548;12323
398556;12159
398564;12078
398572;12083
398582;12137
398590;12252
398598;12396
398606;12541
398614;12726
398622;13013
398631;13364
398639;13643
398647;13873
398655;14133
398663;14257
398672;14319
398680;14313
398688;14349
398696;14320
398704;14247
398713;14177
398721;14139
398729;14065
398737;14019
398745;13951
398757;13889
398765;13915
398773;13873
398781;13760
398789;13721
398798;13740
398806;13742
398814;13661
398822;13565
398830;13398
398839;13277
398847;13296
398855;13314
398863;13347
398871;13473
398879;13605
398888;13754
398896;13832
398904;13880
398912;13915
398920;13949
398929;13948
398937;13932
398945;13913
398953;13898
398961;13824
398970;14112
398978;13449
398986;10768
398994;7790
399002;7444
399011;14134
399019;17523
399027;16678
399035;15784
399043;15037
399052;14694
399071;14518
399079;14482
399087;14330
399096;14156
399104;14016
399112;13895
399120;13861
399128;13720
399137;13591
399145;13456
399153;13293
399161;13086
399169;12909
399177;12662
399186;12454
399194;12317
399202;12257
399210;12276
399218;12330
399227;12462
399235;12657
399243;12907
399251;13213
399259;13551
399268;13808
399276;14076
399284;14232
399292;14351
399300;14388
399309;14385
399317;14335
399325;14328
399333;14311
399341;14264
399350;14193
399358;14132
399369;14191
399377;14223
399385;14181
399394;14149
399402;14135
399410;14145
399418;14079
399426;14015
399434;13877
399443;13796
399451;13719
399459;13684
399467;13592
399475;13619
399484;13650
399492;13726
399500;13772
399508;13798
399516;13835
399525;13821
399533;13779
399541;13782
399549;13795
399557;13766
399566;13678
399574;13585
399582;13920
399590;13487
399598;10928
399607;7241
399615;5823
399623;12129
399631;16282
399639;15822
399647;14942
399656;14456
399664;14183
399675;13892
399683;13798
399692;13644
399700;13491
399708;13430
399716;13357
399724;13332
399732;13292
399741;13248
399749;13156
399757;13035
399765;12873
399773;12727
399782;12550
399790;12358
399798;12162
399806;12022
399814;11985
399823;12069
399831;12217
399839;12382
399847;12618
399855;12915
399864;13266
399872;13599
399880;13841
399888;14058
399896;14204
399905;14296
399913;14305
399921;14302
399929;14215
399937;14139
399945;14047
399954;13984
399962;13955
399970;13879
399981;13862
399990;13885
399998;13853
400006;13801
400014;13769
400022;13829
400030;13908
400039;13906
400047;13900
400055;13798
400063;13714
400071;13647
400080;13654
400088;13652
400096;13675
400104;13734
400112;13850
400121;13951
400129;14005
400137;14001
400145;13975
400153;13943
400162;13912
400170;13885
400178;13837
400186;13792
400194;13724
400202;14233
400211;13477
400219;10407
400227;6581
400235;5971
400243;13175
400252;16062
400260;15608
400268;14824
400279;14442
400287;14212
400296;13984
400304;13880
400312;13744
400320;13683
400328;13624
400337;13578
400345;13482
400353;13379
400361;13286
400369;13157
400378;12975
400386;12832
400394;12650
400402;12431
400410;12175
400419;11964
400427;11862
400435;11893
400443;11970
400451;12094
400460;12282
400468;12532
400476;12876
400484;13264
400492;13621
400500;13936
400509;14180
400517;14280
400525;14401
400533;14434
400541;14443
400550;14421
400558;14376
400566;14315
400574;14325
400585;14376
400594;14438
400602;14442
400610;14436
400618;14450
400626;14457
400635;14428
400643;14426
400651;14428
400659;14389
400667;14311
400676;14147
400684;13984
400692;13870
400700;13793
400708;13741
400717;13775
400725;13835
400733;13860
400741;13872
400749;13803
400758;13774
400766;13696
400774;13684
400782;13643
400790;13604
400798;13454
400807;13372
400816;13165
400824;13674
400832;12754
400840;9553
400849;5492
400857;5303
400865;13006
400873;15800
400881;15311
400892;14650
400900;14510
400908;14242
400916;13993
400924;13843
400933;13662
400941;13570
400949;13433
400957;13343
400965;13184
400974;13074
400983;12975
400991;12954
400999;12977
401007;12982
401016;12874
401024;12778
401032;12624
401040;12521
401048;12440
401057;12467
401065;12508
401073;12663
401081;12767
401089;12921
401097;13084
401106;13352
401114;13601
401122;13857
401130;14012
401138;14137
401147;14173
401155;14222
401163;14221
401171;14180
401179;14104
401191;14071
401199;14046
401207;13973
401215;13890
401223;13895
401232;13879
401240;13861
401248;13881
401256;13947
401264;14041
401273;14147
401281;14271
401289;14323
401297;14257
401305;14198
401314;14069
401322;13964
401330;13893
401338;13854
401346;13826
401354;13851
401363;13860
401371;13864
401379;13822
401387;13741
401395;13663
401404;13614
401412;13501
401420;13429
401428;13324
401436;13263
401445;13108
401453;13520
401461;13220
401469;10473
401477;5986
401486;3883
401497;12931
401505;15526
401513;15073
401521;14464
401530;14182
401538;13885
401546;13664
401554;13580
401562;13496
401571;13443
401579;13393
401587;13398
401595;13422
401603;13408
401612;13331
401620;13242
401628;13137
401636;12997
401644;12834
401652;12644
401661;12440
401669;12291
401677;12235
401685;12226
401693;12261
401702;12394
401710;12591
401718;12798
401726;13106
401734;13444
401743;13809
401751;14158
401759;14492
401767;14663
401775;14756
401784;14816
401792;14803
401803;14826
401811;14799
401819;14720
401828;14633
401836;14571
401844;14509
401852;14439
401860;14353
401869;14274
401877;14213
401885;14156
401893;14109
401901;14051
401910;14052
401918;14032
401926;14030
401934;14008
401942;13991
401950;13973
401959;13939
401967;13784
401975;13649
401983;13608
401991;13622
402000;13625
402008;13638
402016;13678
402024;13767
402032;13907
402041;14004
402049;14012
402057;14022
402065;14023
402073;13973
402082;13954
402090;13933
402101;13842
402109;14457
402117;13645
402126;10343
402134;6088
402142;5479
402150;12999
402158;15999
402167;15445
402175;14731
402183;14482
402191;14247
402199;13994
402207;13856
402216;13718
402224;13641
402232;13589
402240;13534
402248;13511
402257;13462
402265;13397
402273;13320
402281;13238
402289;13086
402298;12919
402306;12723
402314;12514
402322;12316
402330;12177
402339;12150
402347;12177
402355;12254
402363;12380
402371;12534
402380;12758
402388;13046
402396;13365
402407;13836
402415;14123
402424;14230
402432;14310
402440;14351
402448;14383
402456;14354
402465;14290
402473;14207
402481;14120
402489;14040
402497;13958
402505;13913
402514;13890
402522;13926
402530;13929
402538;13837
402546;13789
402555;13761
402563;13745
402571;13744
402579;13737
402587;13746
402596;13765
402604;13789
402612;13716
402620;13577
402628;13395
402637;13332
402645;13355
402653;13419
402661;13412
402669;13435
402678;13460
402686;13594
402694;13667
402702;13659
402713;13746
402722;13813
402730;13816
402738;13774
402746;13739
402754;13677
402762;14064
402771;13924
402779;11325
402787;6917
402795;4728
402803;10754
402812;15847
402820;15631
402828;14803
402836;14499
402844;14294
402853;14038
402861;13912
402869;13834
402877;13765
402885;13737
402894;13657
402903;13569
402911;13469
402919;13360
402927;13306
402936;13191
402944;13088
402952;12998
402960;12873
402968;12708
402977;12541
402985;12369
402993;12258
403001;12267
403011;12426
403020;12568
403028;12668
403037;12839
403045;13054
403053;13261
403062;13554
403070;13761
403078;13907
403086;14040
403094;14130
403102;14178
403111;14169
403119;14154
403127;14112
403135;14088
403143;14069
403152;14051
403160;13989
403168;13928
403176;13919
403184;13920
403193;13965
403201;13960
403209;14057
403217;14112
403225;14103
403234;14088
403242;14024
403250;13845
403258;13714
403266;13664
403274;13659
403283;13682
403291;13791
403299;13902
403307;14026
403319;14209
403327;14318
403335;14292
403343;14274
403351;14234
403359;14207
403368;14125
403376;14060
403384;13928
403392;14224
403400;13887
403409;11208
403417;7296
403425;5725
403433;11907
403441;16837
403450;16285
403458;15492
403466;14769
403474;14485
403482;14290
403491;14021
403499;13877
403507;13783
403515;13718
403523;13629
403532;13515
403540;13441
403548;13349
403556;13253
403564;13107
403572;12960
403581;12776
403589;12620
403597;12390
403605;12161
403613;11987
403625;12010
403633;12118
403641;12217
403649;12340
403657;12497
403666;12716
403674;13033
403682;13313
403690;13604
403698;13835
403707;13997
403715;14090
403723;14184
403731;14226
403739;14218
403748;14124
403756;14030
403764;13931
403772;13888
403780;13897
403789;13911
403797;13927
403805;13939
403813;13923
403821;13983
403830;14014
403838;14041
403846;14001
403854;13929
403862;13850
403870;13857
403879;13804
403887;13809
403895;13822
403903;13890
403911;14002
403923;14187
403931;14266
403939;14187
403947;14130
403955;14084
403964;14060
403972;14030
403980;13988
403988;13920
403996;14204
404005;13961
404013;11540
404021;7822
404029;5986
404037;11358
404046;16492
404054;16266
404062;15467
404070;14895
404078;14688
404087;14424
404095;14257
404103;14164
404111;14082
404119;14012
404127;13914
404136;13843
404144;13800
404152;13680
404160;13509
404168;13347
404177;13166
404185;12973
404193;12774
404201;12556
404209;12345
404218;12199
404229;12254
404237;12357
404245;12409
404253;12531
404262;12672
404270;12910
404278;13245
404286;13595
404294;13831
404303;14002
404311;14134
404319;14192
404327;14238
404335;14241
404344;14205
404352;14142
404360;14065
404368;14002
404376;13937
404385;13900
404393;13875
404401;13807
404409;13799
404417;13772
404425;13787
404434;13766
404442;13796
404450;13749
404458;13742
404466;13684
404475;13589
404483;13515
404491;13500
404499;13481
404507;13565
404516;13618
404527;13756
404535;13862
404543;13911
404551;13956
404560;13976
404568;13943
404576;13876
404584;13827
404592;13807
404601;13678
404609;13697
404617;13985
404625;12298
404633;8429
404642;5317
404650;7819
404658;15125
404666;15774
404674;15064
404682;14455
404691;14258
404699;13962
404707;13734
404715;13598
404723;13528
404732;13440
404740;13378
404748;13296
404756;13237
404764;13139
404773;13043
404781;12952
404789;12868
404797;12703
404805;12591
404814;12404
404822;12187
404833;12038
404841;12065
404849;12060
404858;12165
404866;12299
404874;12488
404882;12706
404890;13050
404899;13431
404907;13725
404915;13965
404923;14118
404931;14177
404940;14244
404948;14290
404956;14320
404964;14292
404972;14244
404980;14173
404989;14122
404997;14098
405005;14102
405013;14043
405021;14003
405030;13968
405038;13989
405046;14012
405054;14046
405062;14034
405071;13999
405079;13964
405087;13868
405095;13754
405103;13685
405112;13678
405120;13658
405128;13662
405139;13821
405147;13939
405156;14032
405164;14023
405172;14010
405180;14043
405188;14034
405197;14006
405205;13958
405213;13867
405221;13767
405229;13872
405238;14134
405246;12263
405254;8114
405262;4888
405270;8123
405278;15183
405287;15709
405295;14949
405303;14433
405311;14246
405319;13974
405328;13800
405336;13732
405344;13687
405352;13633
405360;13577
405369;13555
405377;13494
405385;13408
405393;13367
405401;13271
405410;13124
405418;12957
405426;12783
405434;12622
405445;12476
405454;12396
405462;12323
405470;12381
405478;12491
405486;12648
405495;12850
405503;13103
405511;13398
405519;13731
405527;14029
405535;14266
405544;14367
405552;14432
405560;14442
405568;14405
405576;14321
405585;14264
405594;14161
405602;14049
405610;13985
405618;13946
405627;13928
405635;13929
405643;13920
405651;13901
405659;13946
405668;13968
405676;13965
405684;13941
405692;13997
405700;13912
405709;13849
405717;13717
405725;13615
405733;13546
405744;13640
405753;13717
405761;13831
405769;13922
405777;14056
405785;14167
405794;14190
405802;14269
405810;14289
405818;14281
405826;14256
405834;14210
405843;14131
405851;13970
405859;14336
405867;13980
405875;11326
405884;7038
405892;5115
405900;11157
405908;15911
405916;15665
405925;14945
405933;14641
405941;14426
405949;14163
405957;14038
405966;13959
405974;13879
405982;13788
405990;13689
405998;13569
406007;13458
406015;13326
406023;13182
406031;13069
406039;12933
406051;12789
406059;12644
406067;12398
406075;12177
406083;12020
406092;12006
406100;12066
406108;12194
406116;12353
406124;12563
406132;12774
406141;13096
406149;13371
406157;13629
406165;13795
406173;13885
406182;13911
406190;13950
406198;13982
406206;13963
406214;13907
406223;13887
406231;13880
406239;13861
406247;13877
406255;13920
406264;13942
406272;13962
406280;13972
406288;13990
406296;13983
406305;14000
406313;14044
406321;14099
406329;14166
406337;14253
406349;14332
406357;14297
406365;14054
406373;13865
406381;13838
406390;13875
406398;13882
406406;13850
406414;13885
406422;13942
406430;14009
406439;13975
406447;13885
406455;13833
406463;13832
406471;13833
406480;13798
406488;13761
406496;13665
406504;14184
406512;13620
406521;10695
406529;6642
406537;5512
406545;12482
406553;16058
406562;15587
406570;14830
406578;14507
406586;14254
406594;14012
406602;13883
406611;13769
406619;13683
406627;13614
406635;13584
406643;13529
406655;13453
406663;13385
406671;13246
406679;13146
406687;13017
406696;12816
406704;12613
406712;12378
406720;12204
406728;12102
406737;12094
406745;12144
406753;12229
406761;12328
406769;12527
406778;12827
406786;13173
406794;13503
406802;13812
406810;14083
406819;14253
406827;14373
406835;14430
406843;14464
406851;14407
406860;14328
406868;14239
406876;14184
406884;14113
406892;14083
406900;14024
406909;13985
406917;13944
406925;13905
406933;13884
406941;13905
406950;13949
406961;14085
406969;14124
406977;14050
406985;13920
406994;13770
407002;13633
407010;13587
407018;13521
407026;13561
407035;13605
407043;13654
407051;13768
407059;13879
407067;13904
407076;13883
407084;13799
407092;13761
407100;13756
407108;13784
407117;13748
407125;13664
407133;14140
407141;13511
407149;10418
407158;6298
407166;5373
407174;12666
407182;15847
407190;15295
407198;14534
407207;14301
407215;14105
407223;13920
407231;13849
407239;13791
407248;13740
407259;13718
407267;13758
407275;13676
407283;13555
407292;13444
407300;13314
407308;13176
407316;12987
407324;12789
407333;12569
407341;12351
407349;12187
407357;12089
407365;12060
407374;12136
407382;12236
407390;12431
407398;12662
407406;12955
407415;13260
407423;13602
407431;13875
407439;14108
407447;14234
407455;14363
407464;14417
407472;14449
407480;14380
407488;14308
407496;14235
407505;14215
407514;14153
407522;14103
407530;14032
407538;14014
407547;13968
407555;13952
407565;14002
407573;14088
407581;14042
407590;14064
407598;14045
407606;13993
407614;13935
407622;13814
407631;13658
407640;13613
407648;13553
407656;13600
407664;13701
407673;13832
407681;13984
407689;14103
407697;14082
407705;14036
407714;14006
407722;13947
407730;13894
407738;13833
407746;13713
407754;13566
407763;13866
407771;13726
407779;11192
407787;6902
407795;4608
407804;10376
407812;15620
407820;15416
407828;14658
407836;14300
407845;14037
407853;13774
407861;13607
407872;13558
407880;13522
407889;13446
407897;13406
407905;13380
407913;13323
407921;13243
407930;13132
407938;13039
407946;12956
407954;12762
407962;12610
407971;12405
407979;12160
407987;12043
407995;12003
408003;12058
408012;12158
408020;12318
408028;12512
408036;12771
408044;13084
408052;13421
408061;13683
408069;13903
408077;14110
408085;14227
408093;14361
408102;14418
408110;14426
408118;14431
408126;14419
408134;14386
408143;14337
408151;14232
408159;14173
408170;14179
408178;14228
408187;14207
408195;14180
408203;14189
408211;14192
408219;14255
408228;14315
408236;14328
408244;14293
408252;14158
408260;13980
408269;13856
408277;13859
408285;13816
408293;13862
408301;13891
408310;13941
408318;14057
408326;14084
408334;14074
408342;14092
408350;14046
408359;14044
408367;14002
408375;13943
408383;13884
408391;13836
408400;14474
408408;13187
408416;9308
408424;5323
408432;6548
408441;14602
408449;15959
408457;15249
408465;14676
408476;14515
408485;14299
408493;14134
408501;14051
408509;13973
408517;13889
408526;13845
408534;13767
408542;13673
408550;13533
408558;13404
408567;13285
408575;13153
408583;12987
408591;12789
408599;12525
408607;12260
408616;12113
408624;12045
408632;12089
408640;12212
408648;12373
408657;12561
408665;12757
408673;13055
408681;13363
408689;13677
408698;13939
408706;14142
408714;14251
408722;14248
408730;14237
408739;14328
408747;14148
408755;14023
408763;13972
408771;13978
408783;13947
408791;13948
408799;13884
408807;13864
408815;13846
408824;13842
408832;13811
408840;13829
408848;13878
408856;13910
408865;13883
408873;13829
408881;13654
408889;13537
408897;13475
408905;13448
408914;13474
408922;13545
408930;13613
408938;13725
408946;13807
408955;13853
408963;13860
408971;13915
408979;13951
408987;13979
408996;13978
409004;13920
409012;13875
409020;14092
409028;14347
409037;12144
409045;7839
409053;4870
409061;9505
409069;15929
409081;15697
409089;15040
409097;14656
409105;14384
409113;14049
409122;13849
409130;13677
409138;13568
409146;13454
409154;13373
409162;13270
409171;13150
409179;13073
409187;12974
409195;12871
409203;12781
409212;12683
409220;12524
409228;12336
409236;12179
409244;12112
409253;12094
409261;12191
409269;12333
409277;12500
409285;12671
409294;12925
409302;13239
409310;13567
409318;13819
409326;14060
409335;14205
409343;14304
409351;14336
409359;14364
409367;14335
409375;14237
409387;14218
409395;14233
409403;14178
409411;14150
409420;14158
409428;14145
409436;14116
409444;14090
409452;14120
409460;14136
409469;14199
409477;14274
409485;14298
409493;14304
409501;14194
409510;14017
409518;13851
409526;13828
409534;13837
409542;13917
409551;13987
409559;14057
409567;14124
409575;14180
409583;14160
409592;14116
409600;14079
409608;14039
409616;13968
409624;13874
409633;13770
409641;13633
409649;14119
409657;13648
409665;10482
409673;6050
409682;4652
409693;14500
409701;15716
409709;14866
409718;14168
409726;13999
409734;13731
409742;13575
409750;13502
409758;13454
409767;13363
409775;13342
409783;13289
409791;13176
409799;13063
409808;12936
409816;12826
409824;12727
409832;12599
409840;12437
409850;12223
409858;12085
409866;11937
409874;11900
409882;11880
409891;11984
409899;12158
409907;12393
409915;12617
409923;12889
409932;13198
409940;13533
409948;13817
409956;14040
409964;14208
409972;14331
409981;14414
409992;14490
410000;14498
410008;14428
410017;14381
410025;14349
410033;14245
410041;14187
410049;14123
410057;14080
410066;14032
410074;14002
410082;14003
410090;14041
410098;14075
410107;14102
410115;14069
410123;14042
410131;13872
410139;13726
410148;13638
410156;13607
410164;13585
410172;13636
410180;13643
410189;13717
410197;13840
410205;13878
410213;13831
410221;13812
410230;13815
410238;13818
410246;13821
410254;13790
410262;13752
410270;13907
410279;14253
410287;12155
410298;6386
410306;4944
410314;12205
410323;16149
410331;15601
410339;14895
410347;14683
410355;14469
410364;14224
410372;14126
410380;14089
410388;14003
410396;13918
410405;13844
410413;13768
410421;13703
410429;13581
410437;13500
410446;13371
410454;13210
410462;12986
410470;12730
410478;12468
410487;12276
410495;12115
410503;12074
410511;12159
410519;12310
410527;12425
410536;12627
410544;12864
410552;13168
410560;13511
410568;13806
410577;14075
410585;14246
410593;14298
410604;14337
410612;14383
410621;14359
410629;14333
410637;14277
410645;14258
410653;14243
410662;14180
410670;14118
410678;14103
410686;14120
410694;14114
410703;14104
410711;14083
410719;14074
410727;14080
410735;14105
410744;14003
410752;13874
410760;13774
410768;13761
410776;13774
410785;13818
410793;13849
410801;13942
410809;14097
410817;14168
410825;14179
410834;14140
410842;14122
410850;14083
410858;14029
410866;13890
410875;13770
410883;13696
410891;14406
410902;12295
410910;8149
410919;5217
410927;9197
410935;16141
410943;16073
410951;15245
410960;14631
410968;14490
410976;14251
410984;14048
410992;13957
411001;13900
411009;13841
411017;13753
411025;13680
411033;13630
411042;13581
411050;13504
411058;13382
411066;13228
411074;13066
411082;12861
411091;12678
411099;12466
411107;12271
411115;12176
411123;12213
411132;12287
411140;12468
411148;12641
411156;12854
411164;13084
411173;13373
411181;13690
411189;13968
411197;14156
411208;14481
411217;14627
411225;14672
411233;14609
411241;14518
411249;14475
411258;14463
411266;14376
411274;14340
411282;14294
411290;14319
411299;14283
411307;14274
411315;14225
411323;14170
411331;14019
411340;13888
411348;13801
411356;13791
411364;13781
411372;13803
411380;13868
411389;13987
411397;14122
411405;14164
411413;14176
411421;14185
411430;14148
411438;14126
411446;14131
411454;14116
411462;14064
411471;13962
411479;14229
411487;14005
411495;11383
411506;7155
411515;7576
411523;14877
411531;17102
411539;16249
411547;15422
411556;14837
411564;14614
411572;14289
411580;14045
411588;13921
411597;13835
411605;13722
411613;13631
411621;13566
411629;13508
411638;13451
411646;13285
411654;13137
411662;12987
411670;12734
411678;12456
411687;12216
411695;12057
411703;11927
411711;11935
411719;11992
411728;12133
411736;12326
411744;12553
411752;12835
411760;13175
411769;13513
411777;13822
411785;14042
411793;14192
411801;14293
411813;14430
411821;14516
411829;14485
411837;14430
411845;14352
411854;14269
411862;14227
411870;14148
411878;14086
411886;13992
411895;13874
411903;13813
411911;13694
411919;13609
411927;13528
411935;13523
411944;13608
411952;13647
411960;13756
411968;13784
411976;13837
411985;13912
411993;13955
412001;13935
412009;13914
412017;13861
412027;13806
412035;13743
412043;13662
412051;13570
412059;13975
412068;13416
412076;10647
412084;7304
412092;6480
412100;12482
412109;16689
412119;15936
412127;15240
412135;14636
412143;14407
412152;14092
412161;13862
412169;13772
412177;13722
412185;13626
412194;13540
412202;13432
412210;13324
412218;13197
412226;13069
412234;12969
412243;12800
412251;12577
412259;12358
412267;12046
412275;11832
412284;11703
412292;11717
412300;11803
412308;11957
412316;12077
412325;12324
412333;12757
412341;13183
412349;13609
412357;13980
412366;14230
412374;14388
412382;14488
412390;14536
412398;14506
412407;14511
412418;14505
412426;14513
412434;14459
412442;14391
412451;14307
412459;14254
412467;14196
412475;14098
412483;14025
412492;13846
412500;13695
412508;13599
412516;13514
412524;13471
412532;13522
412541;13582
412549;13687
412557;13849
412565;13972
412573;14022
412582;14062
412590;14084
412598;14082
412606;14088
412614;14114
412623;14108
412631;14045
412639;14551
412647;13984
412655;11044
412664;6990
412672;5553
412680;11964
412688;16129
412696;15792
412705;15082
412713;14698
412724;14384
412732;14174
412740;14021
412749;13910
412757;13819
412765;13728
412773;13639
412781;13558
412790;13465
412798;13374
412806;13255
412814;13084
412822;12813
412830;12568
412839;12304
412847;12035
412855;11757
412863;11616
412871;11598
412880;11674
412888;11807
412896;11993
412904;12272
412912;12690
412921;13121
412929;13489
412937;13768
412945;13973
412953;14068
412962;14129
412970;14139
412978;14155
412986;14125
412994;14051
413002;13987
413011;13936
413019;13883
413030;13874
413038;13896
413047;13887
413055;13897
413063;13899
413071;13904
413079;13774
413087;13715
413096;13659
413104;13641
413112;13622
413120;13654
413128;13698
413137;13746
413145;13810
413153;13849
413161;13850
413169;13862
413178;13828
413186;13781
413194;13775
413202;13751
413210;13716
413219;13586
413227;14102
413235;13520
413243;10469
413251;5912
413260;4272
413268;10576
413276;15264
413284;15222
413292;14663
413300;14477
413309;14274
413317;14044
413328;14014
413336;14003
413345;13936
413353;13840
413361;13750
413369;13644
413377;13527
413385;13429
413394;13290
413402;13164
413410;13036
413418;12825
413426;12589
413435;12350
413443;12105
413451;11922
413459;11892
413467;11954
413476;12093
413484;12255
413492;12531
413500;12873
413508;13233
413517;13529
413525;13796
413533;13990
413541;14148
413549;14224
413558;14284
413566;14257
413574;14226
413582;14164
413590;14102
413598;14031
413607;14001
413615;13935
413623;13909
413634;13923
413642;13967
413651;13948
413659;13935
413667;13932
413675;13910
413683;13947
413692;13938
413700;13848
413708;13640
413716;13474
413724;13430
413733;13448
413741;13468
413749;13428
413757;13449
413765;13535
413774;13686
413782;13768
413790;13798
413798;13800
413806;13832
413815;13836
413823;13833
413831;13804
413839;13754
413847;13722
413855;14388
413864;13175
413872;9303
413880;5072
413888;5418
413896;13517
413905;15887
413913;15410
413921;14879
413929;14735
413940;14425
413949;14285
413957;14169
413965;14052
413973;13976
413981;13877
413990;13828
413998;13746
414006;13670
414014;13563
414022;13417
414031;13249
414039;13095
414047;12914
414055;12706
414063;12488
414072;12301
414080;12212
414088;12216
414096;12309
414104;12401
414113;12537
414121;12770
414129;13097
414137;13447
414145;13830
414153;14077
414162;14242
414170;14369
414178;14426
414186;14411
414194;14363
414203;14346
414211;14296
414219;14240
414227;14213
414238;14217
414247;14231
414255;14139
414263;14077
414271;14049
414279;14032
414288;13971
414296;13921
414304;13920
414312;13917
414320;13946
414329;13996
414337;13971
414345;13966
414353;13985
414361;14009
414370;13966
414378;13896
414386;13695
414394;13627
414402;13600
414410;13614
414419;13577
414427;13577
414435;13595
414443;13669
414451;13777
414460;13735
414468;13689
414476;13666
414484;13604
414492;13603
414501;13586
414509;13566
414517;13437
414525;14068
414533;13646
414545;9134
414553;5215
414561;5920
414569;13937
414577;15860
414586;15272
414594;14619
414602;14447
414610;14226
414618;14036
414627;13983
414635;13962
414643;13911
414651;13857
414659;13756
414668;13675
414676;13607
414684;13509
414692;13403
414700;13238
414708;13100
414717;12931
414725;12735
414733;12505
414741;12271
414750;12136
414759;12092
414767;12146
414775;12280
414783;12412
414791;12629
414800;12908
414808;13253
414816;13603
414824;13931
414832;14196
414841;14369
414851;14497
414859;14567
414867;14526
414875;14475
414885;14422
414893;14344
414901;14264
414909;14215
414917;14135
414926;14069
414934;14003
414942;13947
414950;13881
414958;13850
414967;13863
414975;13855
414983;13873
414991;13860
414999;13801
415007;13780
415016;13784
415024;13785
415032;13753
415040;13762
415048;13746
415057;13786
415065;13764
415073;13708
415081;13497
415089;13382
415098;13355
415106;13387
415114;13415
415122;13449
415130;13523
415139;13614
415150;13808
415158;13836
415166;13783
415174;13815
415183;13797
415191;13787
415199;13772
415207;13814
415215;13960
415224;14427
415232;12687
415240;8718
415248;5765
415256;8055
415265;15643
415273;16320
415281;15609
415289;14907
415297;14640
415305;14431
415314;14165
415322;14028
415330;13913
415338;13853
415346;13780
415355;13735
415363;13692
415371;13611
415379;13518
415387;13464
415396;13316
415404;13154
415412;13016
415420;12796
415428;12501
415437;12266
415445;12135
415456;12134
415464;12255
415472;12370
415481;12550
415489;12838
415497;13246
415505;13639
415513;14005
415522;14379
415530;14645
415538;14773
415546;14852
415554;14892
415562;14923
415571;14912
415579;14873
415587;14840
415595;14774
415603;14666
415612;14548
415620;14483
415628;14436
415636;14382
415644;14313
415653;14283
415661;14309
415669;14294
415677;14272
415685;14181
415694;14097
415702;13904
415710;13792
415718;13780
415726;13747
415735;13734
415743;13805
415751;13902
415762;14144
415770;14237
415779;14271
415787;14200
415795;14107
415803;14042
415811;14015
415820;13951
415828;13909
415836;13811
415844;14062
415852;13693
415860;10905
415869;7392
415877;6504
415885;12146
415893;17033
415901;16460
415910;15674
415918;14892
415926;14446
415934;14157
415942;13892
415951;13747
415959;13671
415967;13588
415975;13514
415983;13412
415992;13315
416000;13206
416008;13103
416016;12947
416024;12787
416033;12609
416041;12431
416049;12182
416060;11865
416068;11747
416077;11683
416085;11683
416093;11802
416101;11997
416109;12282
416118;12645
416126;13059
416134;13462
416142;13833
416150;14114
416158;14272
416167;14351
416175;14405
416183;14425
416191;14413
416199;14390
416208;14378
416216;14301
416224;14202
416232;14092
416240;13985
416249;13907
416257;13832
416265;13784
416273;13768
416281;13734
416290;13747
416298;13755
416306;13780
416314;13775
416322;13751
416330;13636
416339;13596
416347;13568
416355;13593
416366;13693
416375;13834
416383;13881
416391;13970
416399;14058
416407;14106
416415;14082
416424;14077
416432;14070
416440;14022
416448;13969
416456;13949
416465;13809
416473;14400
416481;13453
416489;9831
416497;5584
416506;5199
416514;12571
416522;15812
416530;15570
416538;14939
416547;14584
416555;14381
416563;14118
416571;14007
416579;13990
416588;13919
416596;13852
416604;13770
416612;13746
416620;13675
416628;13602
416637;13523
416645;13442
416653;13292
416661;13138
416673;12902
416681;12720
416689;12432
416697;12222
416705;12151
416713;12134
416722;12233
416730;12356
416738;12540
416746;12929
416754;13311
416763;13675
416771;13925
416779;14118
416787;14229
416795;14284
416804;14272
416812;14281
416820;14232
416828;14187
416836;14169
416845;14186
416853;14222
416861;14223
416869;14265
416877;14272
416886;14250
416894;14269
416902;14274
416910;14248
416918;14220
416926;14247
416935;14292
416943;14274
416951;14227
416959;14151
416970;14001
416979;13883
416987;13707
416995;13664
417003;13596
417011;13568
417020;13580
417028;13620
417036;13711
417044;13749
417052;13677
417061;13615
417069;13592
417077;13578
417085;13528
417093;13484
417102;13460
417110;13533
417118;13893
417126;12103
417134;7868
417143;4586
417151;6818
417159;14192
417167;15624
417175;15121
417183;14668
417192;14449
417200;14148
417208;13966
417216;13846
417224;13775
417233;13738
417241;13696
417249;13631
417257;13599
417265;13517
417277;13465
417285;13427
417293;13265
417301;13060
417309;12887
417318;12691
417326;12439
417334;12258
417342;12158
417350;12136
417359;12214
417367;12284
417375;12411
417383;12732
417391;13104
417400;13471
417408;13802
417416;13995
417424;14194
417432;14268
417441;14307
417449;14269
417457;14245
417465;14219
417473;14153
417481;14108
417490;14048
417498;13967
417506;13961
417514;13935
417522;13926
417531;13922
417539;13928
417547;13930
417555;13879
417563;13889
417572;13883
417583;13961
417591;13982
417599;13921
417607;13899
417616;13885
417624;13877
417632;13844
417640;13757
417648;13553
417657;13476
417665;13484
417673;13521
417681;13569
417689;13631
417698;13686
417706;13773
417714;13869
417722;13911
417730;13905
417738;13880
417747;13889
417756;13849
417764;13779
417772;13727
417780;13643
417789;14120
417797;12878
417805;9226
417813;5522
417821;6069
417830;13274
417838;15683
417846;15230
417854;14637
417862;14419
417871;14152
417881;14032
417889;14005
417897;13923
417905;13837
417914;13754
417923;13675
417931;13590
417939;13489
417947;13409
417956;13285
417964;13157
417972;12969
417980;12756
417988;12535
417997;12331
418005;12101
418013;11995
418021;12021
418029;12099
418038;12191
418046;12379
418054;12639
418062;13023
418070;13419
418078;13771
418087;13992
418095;14162
418103;14228
418111;14253
418119;14255
418128;14221
418136;14170
418144;14132
418152;14054
418160;14032
418169;13995
418177;13957
418188;13978
418196;14063
418204;14055
418213;14047
418221;14021
418229;14065
418237;14072
418245;14060
418254;14054
418262;14053
418270;14084
418278;14098
418286;14101
418295;14141
418303;14118
418311;14118
418319;14161
418327;14110
418335;14002
418344;13812
418352;13756
418360;13752
418368;13796
418376;13781
418385;13790
418393;13885
418401;13999
418409;14087
418417;14085
418426;13986
418434;13968
418442;13963
418450;13931
418458;13855
418467;13791
418475;13835
418483;14329
418502;7979
418511;6015
418519;10415
418527;15915
418535;16136
418543;15436
418552;15028
418560;14760
418568;14439
418576;14176
418584;14023
418593;13842
418601;13658
418609;13524
418617;13416
418625;13353
418633;13255
418642;13137
418650;12992
418658;12847
418666;12698
418674;12557
418683;12392
418691;12222
418699;12036
418707;11947
418715;11955
418724;12049
418732;12187
418740;12387
418748;12593
418756;12947
418765;13318
418773;13668
418781;13910
418789;14066
418800;14302
418809;14398
418817;14389
418825;14348
418833;14270
418841;14182
418850;14080
418858;14018
418866;13906
418874;13852
418882;13821
418890;13792
418899;13738
418907;13735
418915;13745
418923;13737
418931;13764
418940;13769
418948;13754
418956;13733
418964;13722
418972;13735
418981;13782
418989;13803
418997;13804
419005;13732
419013;13679
419022;13565
419030;13492
419038;13411
419046;13374
419054;13331
419063;13384
419071;13464
419079;13559
419087;13610
419095;13629
419107;13694
419115;13748
419123;13725
419131;13715
419139;13645
419148;13584
419156;13722
419164;13959
419172;11851
419180;7929
419188;5951
419197;9701
419205;16312
419213;16220
419221;15355
419229;14601
419238;14217
419246;13957
419254;13635
419262;13472
419270;13323
419279;13209
419287;13088
419295;13007
419303;12911
419311;12834
419320;12700
419328;12525
419336;12363
419344;12211
419352;12044
419361;11867
419369;11665
419377;11465
419385;11378
419393;11367
419401;11477
419413;11751
419421;11982
419429;12288
419437;12665
419446;13039
419454;13391
419462;13721
419470;13938
419478;14039
419486;14127
419495;14169
419503;14168
419511;14152
419519;14128
419527;14084
419536;14064
419544;14017
419552;13987
419560;13939
419568;13887
419577;13832
419585;13798
419593;13755
419601;13731
419609;13753
419618;13719
419626;13677
419634;13665
419642;13683
419650;13668
419658;13668
419667;13657
419675;13660
419683;13635
419691;13668
419699;13572
419711;13431
419719;13328
419727;13298
419735;13291
419743;13329
419752;13338
419760;13367
419768;13470
419776;13599
419784;13695
419793;13751
419801;13739
419809;13732
419817;13776
419825;13781
419834;13753
419842;13755
419850;14434
419858;13126
419866;9260
419875;5634
419883;6654
419891;14506
419899;16062
419907;15458
419916;14722
419924;14458
419932;14162
419940;13927
419948;13788
419956;13708
419965;13650
419973;13643
419981;13654
419989;13601
419997;13532
420006;13471
420017;13419
420025;13331
420033;13139
420041;12939
420050;12763
420058;12509
420066;12326
420074;12220
420082;12221
420091;12258
420099;12316
420107;12447
420115;12639
420123;12958
420132;13328
420140;13680
420148;14011
420156;14257
420164;14366
420173;14475
420181;14532
420189;14569
420197;14550
