Tempo (ms);Valor
420232;15274
420240;15200
420248;15055
420257;14931
420265;14852
420273;14784
420281;14733
420289;14708
420297;14681
420306;14597
420314;14476
420322;14199
420330;14106
420338;14063
420347;14034
420355;14017
420363;14024
420371;14070
420379;14147
420388;14259
420396;14308
420404;14269
420412;14237
420420;14259
420429;14225
420437;14204
420445;14221
420453;14181
420461;14084
420470;14324
420478;13764
420486;10741
420494;7683
420502;7497
420510;13294
420519;17285
420530;16341
420538;15633
420546;14888
420554;14580
420563;14324
420571;14088
420579;13949
420587;13855
420595;13736
420604;13678
420612;13606
420620;13506
420628;13397
420636;13312
420645;13199
420653;13022
420661;12843
420670;12607
420678;12311
420687;12048
420695;11843
420703;11764
420711;11823
420719;11922
420728;12119
420736;12316
420744;12671
420752;13100
420760;13497
420769;13856
420777;14107
420785;14269
420793;14395
420801;14478
420809;14533
420818;14533
420826;14505
420837;14489
420845;14480
420854;14372
420862;14320
420870;14251
420878;14201
420886;14190
420894;14149
420903;14083
420911;14052
420919;14044
420927;14074
420935;14084
420944;14034
420952;13922
420960;13809
420968;13721
420976;13643
420985;13586
420993;13593
421001;13621
421009;13703
421017;13777
421026;13837
421034;13853
421042;13816
421050;13778
421058;13771
421066;13760
421075;13742
421083;13677
421091;13633
421099;14224
421107;13134
421116;9528
421124;5654
421135;8153
421143;14944
421151;15687
421160;15150
421168;14744
421176;14558
421184;14309
421192;14224
421201;14178
421209;14165
421217;14122
421225;14095
421233;14036
421242;13981
421250;13885
421258;13793
421266;13617
421274;13419
421283;13200
421291;12951
421299;12669
421307;12399
421315;12184
421324;12037
421332;12006
421340;12052
421348;12133
421356;12264
421364;12502
421373;12829
421381;13201
421389;13539
421397;13791
421405;14010
421414;14131
421422;14172
421430;14182
421441;14229
421449;14230
421458;14165
421466;14123
421474;14108
421482;14085
421490;14051
421499;13963
421507;13950
421515;13981
421523;13976
421531;13964
421540;13992
421548;13996
421556;14018
421564;14002
421572;13843
421581;13670
421589;13528
421597;13514
421605;13490
421613;13509
421622;13546
421630;13582
421638;13696
421646;13780
421654;13786
421662;13750
421671;13769
421679;13771
421687;13706
421695;13660
421703;13593
421712;13478
421720;14032
421728;13241
421739;8433
421747;4812
421756;6437
421764;13892
421772;15341
421780;14817
421788;14354
421797;14182
421805;13912
421813;13758
421821;13682
421829;13638
421838;13584
421846;13505
421854;13450
421862;13397
421870;13321
421879;13243
421887;13139
421895;13015
421903;12858
421911;12678
421919;12452
421928;12233
421936;12013
421944;11935
421952;11954
421960;12025
421969;12132
421977;12319
421985;12561
421993;12929
422001;13294
422010;13650
422018;13940
422026;14149
422034;14267
422045;14380
422054;14430
422062;14372
422070;14315
422078;14279
422086;14278
422095;14240
422103;14178
422111;14125
422119;14113
422127;14073
422136;14044
422144;14066
422152;14150
422160;14188
422168;14232
422177;14207
422185;14112
422193;14002
422201;13777
422209;13551
422217;13390
422226;13329
422234;13311
422242;13381
422250;13501
422258;13651
422267;13813
422275;13902
422283;13935
422291;13927
422299;13930
422308;13939
422316;13915
422324;13878
422332;13831
422340;13760
422352;14052
422360;11906
422368;7585
422376;4917
422384;8985
422393;15219
422401;15539
422409;14805
422417;14363
422425;14102
422434;13784
422442;13616
422450;13500
422458;13375
422466;13338
422474;13270
422483;13233
422491;13229
422499;13183
422507;13127
422515;13028
422524;12931
422532;12771
422540;12640
422548;12440
422556;12246
422565;12081
422573;11983
422581;11981
422589;12012
422597;12109
422606;12319
422614;12571
422622;12918
422630;13338
422638;13698
422647;13967
422658;14271
422666;14428
422674;14465
422682;14448
422691;14448
422699;14413
422707;14347
422715;14282
422723;14257
422732;14250
422740;14243
422748;14170
422756;14163
422764;14147
422772;14142
422781;14107
422789;14105
422797;14113
422805;14109
422813;14093
422822;14127
422830;14139
422838;14154
422846;14155
422854;14049
422863;13895
422871;13743
422879;13758
422888;13763
422896;13788
422905;13786
422913;13847
422921;13926
422929;14041
422937;14070
422946;14041
422956;14013
422964;14016
422972;13958
422980;13892
422989;13850
422997;13711
423005;14217
423014;13363
423022;10189
423031;6303
423039;5838
423047;13044
423055;15926
423063;15390
423071;14594
423080;14320
423088;14072
423096;13835
423104;13759
423112;13693
423121;13650
423129;13619
423137;13576
423145;13530
423153;13438
423162;13351
423170;13265
423178;13141
423186;13007
423194;12867
423203;12671
423211;12481
423219;12293
423227;12147
423235;12082
423244;12118
423252;12200
423263;12500
423271;12819
423279;13169
423288;13506
423296;13850
423304;14143
423312;14394
423320;14532
423329;14565
423337;14558
423345;14548
423353;14488
423361;14403
423369;14341
423378;14294
423386;14202
423394;14154
423402;14071
423410;14055
423419;13973
423427;13865
423435;13767
423443;13731
423451;13643
423460;13607
423468;13655
423476;13755
423484;13805
423492;13891
423501;13973
423509;13981
423517;13945
423525;13780
423533;13637
423542;13647
423550;13659
423561;13748
423569;13804
423577;13803
423586;13901
423594;14001
423602;14017
423610;13994
423618;13920
423626;13860
423635;13770
423643;13731
423651;13627
423659;13488
423667;14092
423676;13407
423684;10100
423692;6050
423700;5480
423708;12895
423717;15893
423725;15304
423733;14462
423741;14100
423749;13764
423758;13455
423766;13309
423774;13179
423782;13057
423790;13029
423799;12998
423807;12966
423815;12894
423823;12838
423831;12752
423839;12650
423848;12524
423856;12397
423867;12200
423875;12098
423884;11902
423892;11773
423900;11746
423908;11847
423916;11982
423924;12171
423933;12348
423941;12670
423949;13053
423957;13433
423965;13755
423974;14017
423982;14203
423990;14344
423998;14422
424006;14424
424015;14388
424023;14363
424031;14296
424039;14233
424047;14160
424056;14158
424064;14067
424072;14027
424080;13983
424088;13954
424097;13930
424105;13855
424113;13800
424121;13817
424129;13783
424137;13698
424146;13672
424154;13686
424162;13720
424173;13790
424182;13829
424190;13731
424198;13551
424206;13440
424214;13413
424222;13451
424231;13552
424239;13611
424247;13681
424255;13797
424263;13984
424272;14077
424280;14101
424288;14114
424296;14102
424304;14105
424313;14137
424321;14108
424329;14097
424337;14615
424345;14157
424354;11287
424362;7294
424370;6019
424378;12664
424386;16664
424394;16210
424403;15320
424411;14923
424419;14685
424427;14410
424435;14246
424444;14181
424452;14122
424460;14033
424471;14000
424479;13994
424488;13887
424496;13788
424504;13641
424512;13471
424520;13297
424529;13114
424537;12874
424545;12664
424553;12453
424561;12305
424570;12227
424578;12257
424586;12335
424594;12470
424602;12670
424611;12967
424619;13298
424627;13594
424635;13874
424643;14120
424652;14266
424660;14347
424668;14383
424676;14393
424684;14297
424692;14219
424701;14129
424709;14049
424717;13954
424725;13909
424733;13797
424742;13691
424750;13617
424758;13635
424766;13657
424777;13763
424786;13875
424794;13875
424802;13872
424810;13861
424818;13892
424827;13845
424835;13893
424843;13946
424851;13998
424859;13966
424868;13878
424876;13699
424884;13572
424892;13540
424900;13547
424909;13560
424917;13620
424925;13670
424933;13757
424941;13900
424950;13961
424958;13936
424966;13906
424974;13940
424982;13929
424990;13962
424999;13911
425007;13872
425015;14378
425023;13459
425031;10206
425040;7139
425048;7247
425056;14663
425064;17327
425072;16584
425084;15427
425092;14843
425100;14594
425108;14291
425116;14101
425125;14010
425133;13954
425141;13891
425149;13799
425157;13670
425166;13595
425174;13483
425182;13355
425190;13171
425198;12964
425207;12814
425215;12609
425223;12389
425231;12236
425239;12098
425247;12029
425256;12119
425264;12273
425272;12449
425280;12661
425288;12894
425297;13217
425305;13591
425313;13903
425321;14153
425329;14308
425338;14420
425346;14536
425354;14637
425362;14648
425370;14615
425382;14632
425390;14626
425398;14515
425406;14380
425414;14270
425423;14217
425431;14168
425439;14151
425447;14137
425455;14121
425464;14076
425472;13958
425480;13806
425488;13731
425496;13698
425505;13691
425513;13733
425521;13830
425529;13942
425537;14060
425545;14077
425554;14084
425562;14104
425570;14093
425578;14078
425586;14062
425595;14082
425603;14034
425611;13963
425619;13866
425627;14215
425636;13664
425644;10702
425652;7215
425660;6576
425668;12819
425677;16874
425688;15957
425696;15204
425704;14516
425712;14213
425721;13882
425729;13621
425737;13530
425745;13452
425753;13339
425762;13264
425770;13195
425778;13144
425786;13006
425794;12857
425802;12712
425811;12580
425819;12357
425827;12081
425835;11799
425843;11549
425852;11309
425860;11238
425868;11279
425876;11395
425884;11547
425893;11836
425901;12206
425909;12620
425917;13003
425925;13359
425934;13622
425942;13768
425950;13878
425958;13956
425966;14004
425975;14031
425983;14054
425994;14066
426002;14127
426010;14080
426019;14032
426027;14000
426035;13949
426043;13900
426051;13844
426060;13820
426068;13830
426076;13828
426084;13861
426092;13903
426100;13909
426109;13908
426117;13873
426125;13814
426133;13703
426141;13630
426150;13607
426158;13640
426166;13723
426174;13824
426182;13961
426191;14080
426199;14096
426207;14085
426215;14108
426223;14123
426232;14123
426240;14080
426248;13987
426256;13875
426264;14449
426273;13252
426281;9508
426292;4971
426300;8526
426308;15391
426317;15927
426325;15228
426333;14675
426341;14409
426349;14085
426358;13920
426366;13829
426374;13733
426382;13659
426390;13611
426398;13542
426407;13489
426415;13390
426423;13282
426431;13095
426439;12914
426448;12704
426456;12484
426464;12178
426472;11896
426480;11613
426489;11450
426497;11417
426505;11514
426513;11684
426521;11865
426530;12120
426538;12491
426546;12890
426554;13291
426562;13604
426570;13855
426579;14013
426587;14120
426598;14266
426606;14382
426615;14380
426623;14335
426631;14275
426639;14185
426647;14162
426655;14168
426664;14113
426672;14114
426680;14093
426688;14092
426696;14083
426705;14141
426713;14192
426721;14235
426729;14243
426737;14165
426746;14084
426754;14064
426762;14080
426770;14075
426778;14113
426787;14181
426795;14343
426803;14438
426812;14499
426820;14506
426829;14474
426837;14453
426845;14412
426853;14366
426861;14320
426870;14253
426878;14178
426886;14225
426894;14471
426904;11339
426913;7734
426921;6449
426929;12126
426937;16872
426945;16499
426953;15783
426963;15107
426971;14795
426979;14480
426987;14191
426995;14062
427004;13978
427012;13875
427020;13797
427028;13708
427036;13591
427045;13468
427053;13369
427061;13235
427069;13047
427077;12823
427086;12567
427094;12344
427102;12059
427110;11861
427118;11701
427127;11645
427135;11647
427143;11783
427151;12036
427159;12406
427167;12844
427176;13310
427184;13715
427192;14020
427203;14324
427212;14475
427220;14493
427228;14492
427236;14473
427244;14449
427252;14372
427261;14312
427269;14244
427277;14206
427285;14141
427293;14095
427302;14006
427310;13963
427318;13899
427326;13824
427334;13773
427343;13736
427351;13656
427359;13666
427367;13659
427375;13694
427384;13715
427392;13790
427400;13837
427408;13830
427416;13764
427425;13642
427433;13476
427441;13441
427449;13424
427457;13522
427465;13542
427474;13505
427482;13554
427490;13721
427498;13863
427510;13972
427518;14013
427526;13977
427534;13936
427542;13861
427550;13798
427559;13701
427567;14073
427575;13511
427583;10871
427591;6646
427600;5135
427608;10378
427616;15496
427624;15584
427632;14901
427641;14598
427649;14354
427657;14132
427665;14014
427673;13909
427682;13829
427690;13788
427698;13732
427706;13700
427714;13602
427722;13553
427731;13449
427739;13386
427747;13235
427755;13083
427763;12860
427772;12649
427780;12406
427788;12214
427796;12053
427804;12005
427816;12089
427824;12251
427832;12408
427840;12686
427848;13088
427857;13483
427865;13820
427873;14037
427881;14234
427889;14373
427898;14410
427906;14438
427914;14459
427922;14445
427930;14402
427939;14317
427947;14246
427955;14182
427963;14132
427971;14103
427980;14059
427988;14042
427996;14028
428004;13982
428012;13935
428020;13903
428029;13869
428037;13857
428045;13862
428053;13868
428061;13805
428070;13742
428078;13623
428086;13535
428094;13466
428102;13425
428114;13480
428122;13590
428130;13623
428138;13681
428146;13756
428155;13816
428163;13842
428171;13862
428179;13869
428187;13895
428196;13925
428204;13899
428212;13874
428220;13874
428228;14578
428237;13409
428245;9674
428253;6202
428261;6704
428269;14025
428278;16149
428286;15718
428294;14993
428302;14676
428310;14481
428318;14182
428327;14026
428335;13934
428343;13879
428351;13821
428359;13786
428368;13701
428376;13632
428384;13522
428392;13433
428400;13321
428409;13163
428420;12966
428428;12736
428436;12395
428444;12094
428453;11958
428461;11915
428469;11937
428477;11999
428485;12172
428494;12424
428502;12775
428510;13181
428518;13524
428526;13795
428535;13935
428543;14036
428551;14055
428559;14043
428567;14045
428575;13975
428584;13889
428592;13814
428600;13674
428608;13581
428616;13483
428625;13408
428633;13386
428641;13388
428649;13398
428657;13399
428666;13419
428674;13442
428682;13441
428690;13460
428698;13480
428707;13529
428718;13606
428726;13723
428734;13797
428742;13785
428751;13791
428759;13712
428767;13574
428775;13564
428783;13576
428792;13564
428800;13588
428808;13774
428816;13936
428824;14083
428833;14160
428841;14206
428849;14226
428857;14224
428865;14191
428873;14113
428882;13944
428890;13791
428898;13937
428906;13870
428914;11665
428923;7929
428931;5963
428939;9771
428947;15994
428955;16077
428964;15415
428972;14740
428980;14409
428988;14202
428996;13982
429005;13935
429013;13890
429024;13870
429032;13861
429040;13804
429049;13752
429057;13665
429065;13536
429073;13417
429081;13277
429090;13107
429098;12894
429106;12611
429114;12325
429122;12127
429130;11987
429139;12000
429147;12064
429155;12205
429163;12422
429171;12859
429180;13373
429188;13843
429196;14215
429204;14506
429212;14692
429221;14825
429229;14852
429237;14861
429245;14803
429253;14780
429262;14730
429270;14692
429278;14626
429286;14532
429294;14406
429304;14328
429312;14207
429320;14054
429330;13986
429338;13964
429347;13884
429355;13832
429363;13823
429371;13813
429379;13781
429388;13770
429396;13716
429404;13684
429412;13614
429420;13563
429428;13516
429438;13505
429446;13472
429454;13392
429462;13274
429470;13223
429479;13214
429487;13242
429495;13272
429503;13228
429511;13233
429520;13286
429528;13371
429536;13415
429544;13454
429552;13453
429561;13443
429569;13440
429577;13413
429585;13388
429593;13324
429602;13839
429610;12790
429618;9299
429629;4803
429637;7366
429646;14277
429654;15362
429662;14735
429670;14287
429678;14037
429687;13758
429695;13596
429703;13467
429711;13363
429719;13278
429727;13259
429736;13177
429744;13154
429752;13096
429760;13031
429768;12951
429777;12865
429785;12752
429793;12561
429801;12346
429809;12139
429818;11967
429826;11847
429834;11830
429842;11885
429850;11977
429859;12161
429867;12430
429875;12832
429883;13256
429891;13663
429900;13958
429908;14188
429916;14327
429924;14392
429935;14508
429944;14593
429952;14559
429960;14469
429968;14383
429976;14282
429985;14228
429993;14165
430001;14081
430009;13998
430017;13991
430025;13992
430034;13967
430042;13969
430050;13972
430058;13986
430066;13977
430075;14039
430083;14082
430091;14122
430099;14125
430107;14079
430116;14040
430124;14072
430132;14097
430140;14118
430148;14119
430157;14058
430165;13906
430173;13762
430181;13670
430189;13601
430198;13532
430206;13489
430214;13508
430222;13541
430230;13617
430242;13783
430250;13886
430258;13937
430266;13896
430274;13898
430282;13799
430291;13708
430299;13654
430307;13825
430315;14089
430323;12458
430332;8499
430340;5806
430348;8398
430356;15259
430364;16136
430373;15407
430381;14919
430389;14693
430397;14407
430405;14224
430414;14094
430422;13951
430430;13884
430438;13811
430446;13736
430455;13680
430463;13573
430471;13497
430479;13337
430487;13158
430495;12926
430504;12680
430512;12446
430520;12204
430528;11948
430536;11760
430548;11750
430556;11879
430564;11969
430572;12139
430580;12418
430589;12794
430597;13175
430605;13575
430613;13912
430621;14164
430630;14313
430638;14399
430646;14408
430654;14384
430662;14371
430671;14300
430679;14179
430687;14131
430695;14118
430703;14102
430712;14073
430720;14065
430728;14015
430736;13974
430744;13924
430753;13901
430761;13907
430769;13909
430777;13893
430785;13868
430793;13821
430802;13784
430810;13764
430818;13697
430826;13692
430834;13685
430846;13773
430854;13830
430862;13794
430870;13769
430878;13763
430887;13654
430895;13506
430903;13368
430911;13282
430919;13257
430928;13257
430936;13299
430944;13361
430952;13433
430960;13547
430969;13678
430977;13710
430985;13772
430993;13799
431001;13830
431010;13853
431018;13829
431026;13780
431034;13720
431042;14225
431050;12978
431059;9412
431067;6043
431075;7047
431083;14358
431091;16148
431100;15483
431108;14825
431116;14629
431124;14353
431132;14178
431141;14024
431152;13976
431160;13953
431168;13846
431176;13793
431185;13708
431193;13610
431201;13530
431209;13423
431217;13236
431226;13071
431234;12900
431242;12684
431250;12451
431258;12233
431267;12107
431275;12055
431283;12067
431291;12133
431299;12298
431308;12525
431316;12863
431324;13290
431332;13692
431340;14017
431348;14254
431357;14417
431365;14421
431373;14400
431381;14343
431389;14266
431398;14235
431406;14105
431414;14068
431422;13953
431430;13710
431439;13641
431450;13694
431458;13759
431466;13775
431474;13860
431483;13888
431491;13911
431499;13904
431507;13927
431515;13931
431524;13923
431532;13902
431540;13907
431548;13841
431556;13792
431565;13738
431573;13678
431581;13620
431589;13574
431597;13540
431606;13518
431614;13462
431622;13480
431630;13440
431638;13291
431646;13147
431655;13102
431663;13101
431671;13128
431679;13124
431687;13212
431696;13273
431704;13379
431712;13475
431720;13518
431728;13493
431737;13440
431745;13393
431756;13435
431764;13407
431772;13328
431781;13623
431789;13594
431797;11361
431805;7429
431813;5538
431822;10203
431830;15764
431838;15736
431846;14922
431854;14452
431863;14250
431871;13967
431879;13802
431887;13740
431895;13672
431903;13619
431912;13592
431920;13601
431928;13614
431936;13597
431944;13542
431953;13424
431961;13298
431969;13133
431977;12916
431985;12710
431994;12460
432002;12238
432010;12068
432018;12010
432026;12045
432035;12115
432043;12277
432051;12542
432062;13046
432070;13479
432079;13793
432087;14050
432095;14231
432103;14330
432111;14384
432120;14459
432128;14454
432136;14470
432144;14483
432152;14512
432161;14531
432169;14516
432177;14487
432185;14435
432193;14378
432201;14349
432210;14280
432218;14270
432227;14272
432235;14212
432243;14177
432252;14138
432260;14103
432268;14082
432276;14063
432284;14040
432293;13988
432301;13918
432309;13893
432317;13847
432325;13812
432334;13777
432342;13791
432350;13802
432361;13778
432369;13636
432378;13445
432386;13373
432394;13383
432402;13384
432410;13355
432419;13408
432427;13504
432435;13596
432443;13660
432451;13671
432460;13642
432468;13620
432476;13633
432484;13594
432492;13516
432500;13426
432509;13652
432517;13877
432525;11801
432533;7712
432541;5287
432550;9156
432558;15552
432566;15709
432574;14948
432582;14419
432591;14249
432599;14005
432607;13843
432615;13755
432623;13719
432632;13610
432640;13548
432648;13508
432656;13407
432667;13420
432676;13358
432684;13170
432692;13006
432700;12842
432708;12615
432717;12299
432725;12039
432733;11848
432741;11711
432749;11640
432758;11753
432766;11890
432774;12013
432782;12180
432790;12540
432798;12949
432807;13335
432815;13660
432823;13915
432831;14141
432839;14276
432848;14285
432856;14300
432864;14240
432872;14170
432880;14149
432889;14137
432897;14126
432905;14153
432913;14137
432921;14128
432930;14122
432938;14087
432946;14065
432954;14090
432962;14067
432974;14049
432982;14107
432990;14118
432998;14167
433006;14207
433015;14179
433023;14173
433031;14044
433039;13932
433047;13883
433055;13943
433064;13960
433072;14039
433080;14163
433088;14238
433096;14378
433105;14423
433113;14435
433121;14475
433129;14461
433137;14443
433146;14412
433154;14417
433162;14403
433170;14331
433178;14609
433187;13506
433195;10224
433203;8000
433211;8924
433219;15771
433228;17784
433236;16795
433244;15962
433252;15228
433260;14870
433272;14601
433280;14432
433288;14326
433296;14196
433304;14051
433313;13912
433321;13780
433329;13661
433337;13591
433345;13395
433353;13198
433362;13018
433370;12786
433378;12561
433386;12295
433394;12039
433403;11872
433411;11835
433419;11909
433427;12053
433435;12246
433444;12434
433452;12792
433460;13199
433468;13585
433476;13967
433485;14208
433493;14362
433501;14479
433509;14535
433517;14578
433526;14554
433534;14495
433542;14404
433550;14319
433558;14185
433566;14068
433578;14013
433586;13995
433594;13930
433602;13889
433610;13883
433619;13890
433627;13926
433635;13931
433643;13934
433651;13933
433660;13934
433668;13911
433676;13839
433684;13738
433692;13622
433701;13488
433709;13413
433717;13353
433725;13378
433733;13438
433742;13473
433750;13554
433758;13623
433766;13640
433774;13648
433783;13611
433791;13557
433799;13507
433807;13467
433815;13395
433823;13586
433832;13901
433840;12041
433848;7968
433856;5091
433864;8422
433873;15262
433884;15663
433892;15042
433900;14676
433908;14432
433917;14126
433925;13991
433933;13907
433941;13824
433949;13754
433958;13721
433966;13650
433974;13570
433982;13449
433990;13322
433999;13160
434007;13011
434015;12818
434023;12560
434031;12297
434040;12026
434048;11799
434056;11705
434064;11707
434072;11797
434081;11961
434089;12162
434097;12438
434105;12800
434113;13180
434121;13548
434130;13845
434138;14058
434146;14173
434154;14230
434162;14286
434171;14287
434182;14259
434190;14249
434198;14186
434206;14115
434215;14078
434223;14048
434231;13997
434239;13965
434247;13940
434256;13896
434264;13884
434272;13870
434280;13867
434288;13888
434297;13892
434305;13864
434313;13819
434321;13701
434329;13577
434339;13470
434347;13481
434355;13504
434363;13569
434371;13629
434380;13683
434388;13754
434396;13778
434404;13783
434412;13750
434420;13738
434429;13725
434437;13727
434445;13698
434453;13641
434461;13515
434470;14096
434478;13537
434489;9085
434497;5342
434505;6594
434514;14358
434522;15909
434530;15360
434538;14779
434546;14537
434555;14263
434563;14062
434571;13962
434579;13853
434587;13723
434596;13628
434604;13510
434612;13395
434620;13283
434628;13228
434637;13146
434645;13047
434653;12934
434661;12797
434669;12609
434678;12409
434686;12297
434694;12188
434702;12205
434710;12271
434718;12391
434727;12555
434735;12863
434743;13244
434751;13695
434759;14115
434768;14488
434776;14722
434784;14833
434795;14914
434803;14981
434812;14949
434820;14868
434828;14800
434836;14740
434844;14695
434853;14677
434861;14609
434869;14559
434877;14484
434885;14380
434894;14322
434902;14296
434910;14240
434918;14194
434926;14146
434935;14131
434943;14124
434951;14131
434959;14108
434967;13983
434975;13825
434984;13673
434992;13614
435000;13551
435008;13537
435016;13579
435025;13607
435033;13657
435041;13661
435049;13640
435057;13651
435066;13633
435074;13641
435082;13583
435093;13554
435101;13536
435110;13496
435118;14072
435126;12586
435134;8581
435142;4687
435151;6053
435159;13862
435167;15199
435175;14524
435183;13954
435192;13824
435200;13592
435208;13412
435216;13302
435224;13222
435233;13170
435241;13137
435249;13123
435257;13143
435265;13109
435273;13090
435282;13054
435290;13018
435298;12884
435306;12790
435314;12591
435323;12398
435331;12159
435339;12069
435347;12030
435355;12104
435364;12178
435372;12326
435380;12492
435388;12827
435399;13410
435408;13857
435416;14138
435424;14333
435432;14501
435440;14589
435449;14542
435457;14522
435465;14461
435473;14381
435481;14331
435490;14262
435498;14195
435506;14158
435514;14083
435522;14012
435530;13948
435539;13904
435547;13871
435555;13907
435563;13885
435571;13903
435580;13920
435588;13965
435596;13904
435604;13779
435612;13603
435621;13461
435629;13459
435637;13489
435645;13583
435653;13717
435662;13825
435670;13953
435678;14020
435686;13990
435694;13906
435706;13852
435714;13789
435722;13641
435730;13534
435738;13451
435747;13351
435755;14052
435763;13269
435771;9907
435779;5818
435788;5395
435796;13310
435804;16072
435812;15518
435820;14760
435828;14408
435837;14162
435845;13846
435853;13764
435861;13705
435869;13634
435878;13481
435886;13365
435894;13236
435902;13202
435910;13140
435919;13106
435927;12927
435935;12750
435943;12597
435951;12464
435960;12287
435968;12135
435976;12014
435984;11969
435992;11990
436004;12224
436012;12450
436020;12688
436028;13007
436036;13344
436045;13632
436053;13923
436061;14210
436069;14392
436077;14506
436086;14583
436094;14636
436102;14694
436110;14637
436118;14568
436126;14498
436135;14493
436143;14445
436151;14470
436159;14450
436167;14474
436176;14509
436184;14516
436192;14455
436200;14432
436208;14303
436217;14189
436225;14114
436233;14126
436241;14110
436249;14159
436258;14322
436266;14427
436274;14541
436282;14548
436290;14535
436298;14512
436310;14559
436318;14612
436326;14593
436334;14612
436343;14592
436351;14530
436359;14518
436367;14971
436375;13228
436383;9338
436392;7429
436400;9002
436408;16163
436416;17042
436424;16224
436433;15405
436441;14778
436449;14512
436457;14206
436466;14004
436475;13871
436483;13712
436491;13601
436499;13517
436507;13446
436516;13367
436524;13237
436532;13078
436540;12884
436548;12660
436557;12407
436565;12113
436573;11845
436581;11640
436589;11538
436598;11523
436606;11615
436617;11869
436625;12119
436633;12452
436642;12853
436650;13277
436658;13642
436666;13919
436674;14108
436682;14226
436691;14314
436699;14347
436707;14374
436715;14322
436723;14270
436732;14191
436740;14100
436748;14014
436756;13960
436764;13862
436773;13769
436781;13707
436789;13689
436797;13643
436805;13703
436814;13811
436822;13886
436830;13850
436838;13832
436846;13745
436855;13707
436863;13680
436871;13677
436879;13651
436887;13702
436895;13712
436904;13807
436915;13987
436923;14096
436931;14081
436940;14025
436948;13974
436956;13958
436964;13885
436972;13821
436980;13733
436989;13921
436997;13970
437005;11908
437013;7839
437021;5212
437030;9041
437038;15549
437046;15879
437054;15231
437062;14669
437071;14476
437079;14165
437087;13896
437095;13723
437103;13555
437112;13451
437120;13388
437128;13335
437136;13265
437144;13165
437153;13079
437161;13013
437169;12874
437177;12701
437185;12547
437193;12297
437202;12107
437210;11913
437221;11898
437229;12005
437238;12146
437246;12284
437254;12546
437262;12851
437270;13245
437278;13629
437287;13968
437295;14216
437303;14459
437311;14570
437319;14619
437328;14576
437336;14512
437344;14416
437352;14373
437360;14304
437369;14208
437377;14092
437385;14016
437393;13912
437401;13836
437410;13822
437418;13781
437426;13720
437434;13728
437442;13709
437450;13728
437459;13685
437467;13671
437475;13529
437483;13431
437491;13379
437500;13367
437508;13370
437516;13406
437527;13578
437535;13712
437544;13762
437552;13729
437560;13761
437568;13803
437576;13775
437585;13757
437593;13734
437601;13718
437609;13668
437617;13686
437626;14253
437634;13109
437642;9367
437650;5369
437658;5746
437667;13511
437675;15756
437683;15326
437691;14697
437699;14456
437708;14143
437716;13908
437724;13825
437732;13709
437740;13621
437748;13503
437757;13452
437765;13425
437773;13385
437781;13285
437789;13182
437798;13040
437806;12906
437814;12723
437825;12532
437833;12360
437842;12112
437850;11946
437858;11897
437866;11947
437874;12055
437883;12239
437891;12520
437899;12910
437907;13342
437915;13731
437924;14035
437932;14243
437940;14374
437948;14450
437956;14465
437965;14419
437973;14405
437981;14339
437989;14269
437997;14159
438006;14100
438014;14069
438022;14019
438030;13991
438038;13976
438046;13951
438055;13894
438063;13843
438071;13838
438079;13809
438087;13851
438096;13845
438104;13876
438112;13858
438120;13862
438131;13879
438140;13825
438148;13628
438156;13525
438164;13523
438172;13590
438181;13597
438189;13637
438197;13674
438205;13822
438213;13888
438222;13895
438230;13885
438238;13884
438246;13848
438254;13859
438263;13784
438271;13743
438279;13628
438287;14007
438295;13989
438303;11571
438312;7378
438320;5130
438328;9785
438336;15801
438344;15955
438353;15276
438361;14786
438369;14622
438377;14331
438385;14180
438394;14068
438402;13972
438410;13877
438418;13804
438426;13686
438438;13636
438446;13573
438454;13459
438462;13290
438470;13182
438479;12943
438487;12712
438495;12439
438503;12135
438511;11912
438520;11784
438528;11855
438536;12039
438544;12191
438552;12495
438561;12819
438569;13116
438577;13425
438585;13660
438593;13779
438601;13867
438610;13889
438618;13926
438626;13881
438634;13816
438642;13774
438651;13726
438659;13641
438667;13604
438675;13606
438683;13581
438692;13623
438700;13640
438708;13633
438716;13664
438724;13589
438736;13687
438744;13752
438752;13722
438760;13783
438768;13798
438777;13846
438785;13966
438793;13999
438801;14058
438809;14156
438818;14128
438826;14109
438834;14142
438842;14093
438850;13980
438858;13782
438867;13688
438875;13632
438883;13677
438891;13798
438899;13821
438908;13894
438916;14052
438925;14049
438933;14138
438941;14071
438950;14000
438958;13923
438966;13860
438974;13789
438982;13690
438991;13498
438999;13805
439007;13813
439015;11280
439023;6826
439032;3911
439042;11821
439050;15027
439059;14693
439067;14159
439076;13765
439084;13595
439092;13376
439100;13258
439108;13164
439117;12949
439125;12816
439133;12633
439141;12435
439149;12270
439158;12104
439166;11934
439174;11689
439182;11485
439190;11366
439198;11262
439207;11044
439215;10849
439223;10760
439231;10761
439239;10873
439248;11084
439256;11343
439264;11668
439272;12078
439280;12610
439289;13173
439297;13735
439305;14223
439313;14584
439321;14915
439330;15106
439338;15328
439349;15661
439357;15889
439365;16021
439374;16023
439382;15999
439390;16005
439398;15929
439406;15866
439415;15825
439423;15735
439431;15645
439439;15555
439447;15468
439455;15370
439464;15294
439472;15238
439480;15024
439488;14840
439496;14697
439505;14669
439513;14638
439521;14648
439529;14704
439537;14737
439546;14625
439554;14598
439562;14501
439570;14372
439578;14273
439587;14233
439595;14130
439603;14100
439611;14089
439619;13998
439628;13908
439636;14559
439655;8435
439663;5588
439672;8336
439680;15856
439688;16099
439696;15425
439704;14824
439713;14489
439721;14247
439729;13949
439737;13687
439745;13418
439753;13240
439762;13075
439770;13027
439778;12902
439786;12811
439794;12659
439803;12517
439811;12339
439819;12201
439827;11976
439835;11830
439844;11649
439852;11513
439860;11411
439868;11481
439876;11564
439885;11782
439893;11992
439901;12280
439909;12649
439917;13090
439926;13426
439934;13722
439942;13946
439950;14058
439961;14164
439970;14251
439978;14221
439986;14161
439994;14118
440002;14098
440010;14089
440019;14045
440027;13997
440035;13938
440043;13919
440051;13897
440060;13876
440068;13896
440076;13929
440084;13949
440092;13969
440101;13999
440109;14017
440117;13997
440125;13955
440133;13842
440142;13758
440150;13801
440158;13811
440166;13820
440174;13858
440183;13921
440191;14111
440199;14362
440207;14485
440215;14490
440223;14471
440232;14511
440240;14474
440248;14434
440256;14341
440268;14342
440276;14624
440284;12657
440292;8720
440300;6855
440308;9632
440317;16604
440325;16951
440333;16189
440341;15266
440349;14552
440358;14269
440366;13945
440374;13710
440382;13528
440390;13414
440399;13388
440407;13397
440415;13394
440423;13299
440431;13218
440440;13125
440448;13032
440456;12907
440464;12736
440472;12532
440481;12338
440489;12181
440497;12024
440505;12029
440513;12067
440521;12233
440530;12476
440538;12824
440546;13216
440554;13674
440566;14340
440574;14744
440582;14997
440590;15108
440598;15197
440606;15222
440615;15180
440623;15095
440631;15042
440639;14987
440647;14893
440656;14805
440664;14730
440672;14671
440680;14579
440688;14504
440697;14415
440705;14351
440713;14327
440721;14267
440729;14152
440738;13906
440746;13724
440754;13590
440762;13506
440770;13450
440778;13505
440787;13581
440795;13645
440803;13737
440811;13772
440819;13738
440828;13664
440836;13629
440844;13559
440852;13515
440860;13440
440872;13415
440880;13586
440888;13965
440896;12159
440904;7985
440913;4840
440921;7302
440929;14819
440937;15785
440945;15230
440954;14574
440962;14341
440970;14037
440978;13812
440986;13736
440995;13648
441003;13592
441011;13479
441019;13401
441027;13341
441036;13273
441044;13160
441052;13076
441060;12883
441069;12707
441078;12495
441086;12273
441094;12020
441102;11811
441110;11666
441118;11666
441127;11721
441135;11852
441143;12044
441151;12345
441159;12757
441168;13235
441179;13800
441187;14157
441195;14350
441203;14479
441212;14533
441220;14583
441228;14556
441236;14504
441244;14444
441253;14348
441261;14300
441269;14226
441277;14170
441285;14147
441294;14029
441302;13956
441310;13928
441318;13868
441326;13830
441335;13813
441343;13723
441351;13594
441359;13395
441367;13199
441375;13105
441384;12959
441392;12854
441400;12917
441408;12984
441416;13146
441425;13015
441433;13295
441441;13336
441449;13327
441457;13352
441466;13336
441477;13445
441485;13549
441493;13414
441501;13790
441510;14140
441518;11889
441526;7203
441534;3360
441542;6098
441551;13925
441559;15124
441567;14970
441575;14747
441583;14665
441592;14514
441600;14380
441608;14357
441616;14315
441624;14227
441633;14201
441641;14228
441649;14756
441657;14080
441665;13853
441673;13404
441682;13134
441690;13024
441698;12842
441706;12875
441714;12575
441723;12134
441731;12100
441739;11881
441747;11988
441755;12072
441764;12133
441772;12420
441783;12934
441791;13467
441799;13806
441808;14141
441816;14354
441824;14624
441832;14654
441840;14623
441849;14284
441857;14206
441865;14279
441873;14234
441881;14360
441890;14176
441898;14142
441906;14234
441914;14371
441922;14495
441930;14671
441939;14770
441947;14821
441955;14850
441963;14946
441971;14906
441980;14776
441988;14572
441996;14378
442004;14251
442012;14212
442021;14231
442029;14001
442037;13928
442045;14529
442053;14743
442062;14720
442070;14582
442078;14481
442089;14356
442097;14387
442106;14373
442114;14437
442122;14506
442130;14777
442138;15416
442147;13497
442155;9213
442163;5166
442171;7366
442179;14900
442188;15421
442196;14905
442204;14430
442212;14226
442220;14123
442228;14043
442237;13859
442245;13732
442253;13634
442261;13529
442269;13471
442278;13346
442286;13194
442294;13048
442302;12867
442310;12747
442319;12592
442327;12468
442335;12286
442343;12088
442351;11854
442360;11728
442368;11692
442376;11699
442387;11974
442395;12224
442404;12440
442412;12839
442420;13114
442428;13406
442436;13657
442445;13878
442453;13887
442461;13859
442469;13895
442477;13807
442486;13835
442494;13823
442502;13791
442510;13732
442518;13664
442526;13618
442535;13610
442543;13595
442551;13616
442559;13658
442567;13643
442576;13635
442584;13643
442592;13644
442600;13699
442608;13682
442617;13659
442625;13542
442633;13415
442641;13215
442649;13208
442658;13234
442666;13252
442674;13264
442682;13316
442693;13527
442702;13726
442710;13740
442718;13698
442726;13768
442734;13776
442743;13727
442751;13678
442759;13636
442767;13544
442775;14041
442783;14049
442792;11164
442800;6721
442808;3962
442816;9513
442824;15248
442833;15153
442841;14647
442849;14364
442857;14292
442865;14150
442874;14070
442882;13972
442890;13903
442898;13891
442906;13839
442915;13775
442923;13680
442931;13569
442939;13456
442947;13313
442956;13100
442964;12873
442972;12628
442980;12359
442988;11997
443000;11781
443008;11736
443016;11771
443024;11885
443032;12027
443041;12245
443049;12555
443057;12905
443065;13322
443073;13665
443081;13953
443090;14202
443098;14369
443106;14454
443114;14496
443122;14494
443131;14465
443139;14479
443147;14498
443155;14484
443163;14476
443172;14413
443180;14355
443188;14326
443196;14310
443204;14267
443213;14295
443221;14309
443229;14303
443237;14286
443245;14281
443254;14050
443262;13914
443270;13903
443278;13916
443286;13888
443298;13998
443306;14123
443314;14179
443322;14242
443330;14250
443338;14255
443347;14259
443355;14179
443363;14175
443371;14113
443379;14084
443388;14058
443396;14626
443404;14269
443412;11426
443420;7217
443429;5536
443437;11918
443445;16619
443453;16157
443461;15411
443470;14882
443478;14718
443487;14474
443495;14197
443503;13978
443512;13843
443520;13731
443528;13635
443536;13552
443544;13409
443553;13258
443561;13149
443569;13035
443577;12844
443585;12636
443593;12448
443604;12145
443613;11986
443621;11795
443629;11743
443638;11801
443646;11885
443654;12014
443662;12286
443670;12685
443678;13120
443687;13540
443695;13938
443703;14226
443711;14445
443719;14610
443728;14684
443736;14658
443744;14668
443752;14671
443760;14643
443769;14619
443777;14591
443785;14582
443793;14567
443801;14544
443810;14483
443818;14429
443826;14384
443834;14260
443842;14051
443850;13921
443859;13852
443867;13782
443875;13758
443883;13755
443891;13749
443900;13761
443911;13851
443919;13913
443927;13914
443935;13868
443944;13826
443952;13824
443960;13834
443968;13849
443976;13826
443985;13991
443993;14325
444001;12574
444009;8648
444017;5966
444026;8062
444034;15484
444042;16284
444050;15651
444058;14963
444067;14671
444075;14441
444083;14139
444091;14022
444099;13956
444108;13868
444116;13788
444124;13745
444132;13700
444140;13583
444148;13524
444157;13434
444165;13345
444173;13176
444181;12981
444189;12715
444198;12438
444209;12151
444217;12045
444225;12006
444233;12046
444242;12130
444250;12358
444258;12694
444266;13142
444274;13536
444283;13909
444291;14182
444299;14403
444307;14515
444315;14551
444324;14525
444332;14503
444340;14443
444348;14394
444356;14359
444365;14325
444373;14234
444381;14122
444389;14046
444397;13977
444406;13926
444414;13887
444422;13861
444430;13839
444438;13793
444446;13726
444455;13621
444463;13553
444471;13497
444479;13505
444487;13521
444496;13603
444504;13657
444515;13862
444523;13959
444531;13960
444540;13958
444548;13931
444556;13875
444564;13892
444572;13845
444581;13796
444589;13754
444597;13689
444605;14306
444613;13164
444622;9449
444630;5180
444638;5502
444646;13193
444654;15775
444663;15400
444671;14832
444679;14630
444687;14374
444695;14130
444703;13981
444712;13882
444720;13749
444728;13714
444736;13637
444744;13573
444753;13522
444761;13469
444769;13371
444777;13306
444785;13145
444794;12945
444802;12724
444810;12459
444821;12176
444829;12112
444838;12017
444846;12086
444854;12175
444862;12410
444870;12729
444879;13119
444887;13504
444895;13870
444903;14204
444911;14429
444920;14552
444928;14633
444936;14654
444944;14655
444952;14606
444961;14562
444969;14500
444977;14473
444985;14427
444993;14394
445001;14361
445010;14315
445018;14272
445026;14230
445034;14197
445042;14200
445051;14174
445059;14151
445067;14124
445075;14076
445083;14072
445092;13981
445100;13838
445108;13597
445119;13614
445127;13745
445136;13722
445144;13681
445152;13669
445160;13731
445168;13843
445177;13917
445185;13938
445193;13938
445201;13931
445209;13917
445218;13900
445226;13856
445234;13749
445242;13959
445250;14098
445258;11858
445267;7461
445275;4691
445283;8076
445291;14926
445299;15616
445308;14967
445316;14521
445324;14303
445332;14007
445340;13875
445349;13797
445357;13755
445365;13671
445373;13585
445381;13499
445390;13391
445398;13346
445406;13295
445414;13198
445425;13077
445434;12929
445442;12727
445450;12531
445458;12395
445466;12263
445475;12212
445483;12229
445491;12305
445499;12415
445507;12586
445516;12883
445524;13264
445532;13663
445540;13978
445548;14248
445556;14459
445565;14547
445573;14485
445581;14490
445589;14405
445597;14290
445606;14198
445614;14108
445622;14029
445630;13934
445638;13832
445647;13788
445655;13737
445663;13748
445671;13754
445679;13743
445688;13744
445696;13760
445704;13796
445712;13822
445720;13805
445732;13894
445740;13995
445748;13966
445756;13881
445764;13716
445773;13692
445781;13748
445789;13769
445797;13780
445805;13799
445814;13858
445822;13835
445830;13892
445838;13856
445846;13846
445854;13828
445863;13839
445871;13871
445879;13884
445887;13832
445895;13687
445904;14170
445912;13612
445920;10470
445928;6089
445936;4593
445945;10768
445953;15326
445961;15224
445969;14557
445977;14229
445986;14024
445994;13777
446002;13684
446010;13649
446018;13581
446030;13582
446038;13590
446046;13521
446054;13395
446062;13335
446071;13214
446079;13052
446087;12916
446095;12724
446103;12493
446111;12259
446120;12043
446128;11871
446136;11802
446144;11858
446152;11939
446161;12091
446169;12300
446177;12650
446185;13017
446193;13430
446202;13736
446210;13956
446218;14068
446226;14304
446234;14520
446243;14676
446251;14675
446259;14595
446267;14396
446275;14289
446284;14248
446292;14154
446300;14035
446308;13832
446316;13632
446324;13488
446336;13615
446344;13679
446352;13557
446360;13441
446369;13375
446377;13375
446385;13430
446393;13461
446401;13514
446409;13569
446418;13610
446426;13608
446434;13500
446442;13289
446450;13051
446459;13014
446467;13044
446475;13070
446484;13112
446492;13175
446501;13278
446509;13439
446517;13576
446525;13665
446533;13755
446542;13812
446550;13914
446558;13897
446566;13883
446574;13785
446583;13835
446591;14190
446599;12460
446607;8504
446615;5559
446623;8002
446632;15251
446643;15858
446651;15105
446659;14721
446668;14555
446676;14372
446684;14297
446692;14269
446700;14225
446708;14149
446717;14068
446725;13918
446733;13847
446741;13745
446749;13635
446758;13479
446766;13285
446774;13063
446782;12820
446790;12499
446799;12190
446807;11912
446815;11749
446823;11676
446831;11769
446840;11941
446848;12183
446856;12476
446864;12892
446872;13292
446881;13708
446889;14030
446897;14251
446905;14390
446913;14490
446921;14510
446930;14509
446941;14486
446949;14520
446957;14420
446966;14360
446974;14298
446982;14273
446990;14231
446998;14249
447006;14268
447015;14278
447023;14246
447031;14230
447039;14225
447047;14233
447056;14190
447064;14200
447072;14149
447080;14154
447088;14103
447097;14105
447105;14042
447113;14006
447121;13949
447129;13992
447138;13942
447146;13799
447154;13595
447162;13418
447170;13380
447178;13423
447187;13461
447195;13470
447203;13509
447211;13599
447219;13678
447228;13749
447236;13769
447247;13853
447255;13902
447263;13898
447272;13824
447280;13768
447288;13675
447296;14265
447304;12974
447313;9373
447321;5917
447329;6798
447337;14365
447345;15825
447354;15152
447362;14536
447370;14361
447378;14150
447386;13939
447395;13818
447403;13738
447411;13699
447419;13638
447427;13619
447436;13519
447444;13409
447452;13313
447460;13246
447468;13114
447476;12962
447485;12782
447493;12563
447501;12340
447509;12145
447517;11961
447526;11843
447534;11842
447542;11891
447553;12040
447561;12297
447570;12536
447578;12870
447586;13206
447594;13558
447602;13780
447611;13933
447619;14086
447627;14188
447635;14213
447643;14216
447652;14205
447660;14180
447668;14126
447676;14044
447684;13917
447693;13842
447701;13814
447709;13839
447717;13876
447725;13892
447734;13874
447742;13885
447750;13892
447758;13910
447766;13952
447774;14081
447783;14177
447791;14207
447799;14192
447807;14122
447815;13977
447824;13828
447832;13759
447840;13747
447851;13807
447859;13969
447868;14063
447876;14175
447884;14255
447892;14264
447900;14252
447909;14209
447917;14118
447925;14014
447933;13979
447941;13915
447950;13879
447958;13861
447966;14320
447974;12796
447982;9100
447991;7048
447999;8853
448007;16137
448015;16941
448023;16098
448031;15316
448040;14734
448048;14592
448056;14339
448064;14178
448072;14057
448081;13994
448089;13915
448097;13886
448105;13838
448113;13818
448122;13724
448130;13659
448138;13542
448146;13376
448157;13091
448166;12854
448174;12544
448182;12254
448190;12097
448198;12074
448207;12129
448215;12230
448223;12341
448231;12537
448239;12816
448248;13164
448256;13466
448264;13719
448272;13860
448280;14072
448289;14151
448297;14187
448305;14151
448313;14150
448321;14113
448329;14123
448338;14131
448346;14192
448354;14178
448362;14131
448370;14082
448379;14032
448387;13926
448395;13897
448403;13879
448411;13904
448420;13890
448428;13891
448436;13878
448444;13881
448452;13896
448464;13960
448472;14030
448480;14011
448488;13996
448496;13980
448505;13868
448513;13701
448521;13607
448529;13531
448537;13505
448546;13504
448554;13456
448562;13415
448570;13421
448578;13531
448586;13522
448595;13553
448603;13565
448611;13541
448619;13483
448627;13435
448636;13363
448644;13533
448652;13866
448660;11993
448668;7890
448677;5042
448685;7997
448693;14991
448701;15656
448709;15023
448718;14565
448726;14453
448734;14189
448742;14095
448750;14018
448762;14064
448770;14042
448778;13944
448786;13816
448794;13728
448803;13613
448811;13533
448819;13387
448827;13254
448835;13062
448844;12916
448852;12691
448860;12460
448868;12202
448876;12091
448884;12036
448893;12048
448901;12124
448909;12260
448917;12579
448925;12976
448934;13402
448942;13792
448950;14009
448958;14081
448966;14114
448975;14104
448983;14004
448991;13910
448999;13829
449007;13699
449016;13651
449024;13595
449032;13591
449040;13569
449048;13497
449057;13388
449068;13281
449076;13181
449084;12933
449092;12692
449101;12598
449109;12545
449117;12579
449125;12683
449133;12800
449142;12969
449150;13121
449158;13254
449166;13254
449174;13185
449182;13086
449191;13180
449199;13211
449207;13288
449215;13530
449223;13689
449232;13837
449240;13977
449248;14068
449256;14076
449264;14116
449273;14127
449282;14155
449290;14140
449298;14124
449306;14107
449315;14729
449323;13338
449331;9302
449339;5397
449347;6481
449356;14400
449364;16013
449374;15340
449382;14994
449390;14937
449399;14734
449407;14627
449415;14527
449423;14424
449432;14282
449441;14103
449449;13915
449457;13715
449465;13570
449473;13339
449481;13190
449490;13046
449498;12874
449506;12650
449514;12408
449522;12161
449531;11971
449539;11828
449547;11830
449555;11909
449563;12060
449572;12231
449580;12471
449588;12756
449596;13147
449604;13551
449613;13848
449621;14034
449629;14167
449637;14200
449645;14189
449654;14129
449662;14060
449673;13968
449681;13912
449689;13876
449698;13863
449706;13828
449714;13796
449722;13806
449730;13853
449738;13889
449747;13909
449755;13945
449763;13986
449771;14032
449779;14094
449788;14103
449796;14120
449804;14214
449812;14333
449820;14421
449829;14563
449837;14647
449845;14670
449853;14589
449861;14582
449870;14496
449878;14428
449886;14322
449894;14264
449902;14203
449911;14262
449919;14237
449927;14217
449935;14178
449943;14142
449951;14104
449960;14084
449968;14058
449979;14117
449987;14899
449996;13784
450004;10085
450012;6429
450020;6950
450028;14679
450036;16435
450045;15768
450053;15024
450061;14714
450069;14458
450077;14197
450086;14075
450094;13937
450102;13789
450110;13709
450118;13594
450127;13482
450135;13374
450143;13289
450151;13149
450159;12980
450168;12809
450176;12649
450184;12393
450192;12149
450200;11943
450209;11732
450217;11656
450225;11728
450233;11879
450241;12030
450249;12182
450258;12491
450266;12901
450274;13347
450285;13866
450294;14207
450302;14354
450310;14440
450318;14443
450326;14447
450334;14426
450343;14385
450351;14361
450359;14329
450367;14251
450375;14224
450384;14188
450392;14163
450400;14090
450408;14075
450416;14057
450425;14025
450433;14017
450441;14018
450449;13961
450457;13967
450466;14014
450474;14035
450482;14047
450490;13983
450498;13820
450506;13641
450515;13602
450523;13612
450531;13661
450539;13733
450547;13857
450556;13961
450564;14048
450572;14074
450583;14120
450591;14194
450600;14150
450608;14048
450616;13934
450624;13873
450632;13847
450641;14360
450649;12834
450657;9062
450665;6623
450673;7992
450682;15598
450690;16721
450698;15897
450706;15033
450714;14382
450723;14171
450731;13918
450739;13655
450747;13553
450755;13522
450764;13476
450772;13409
450780;13386
450788;13370
450796;13352
450804;13291
450813;13251
450821;13186
450829;13096
450837;12886
450845;12709
450854;12497
450862;12309
450870;12216
450878;12226
450889;12359
450898;12556
450906;12728
450914;12975
450922;13314
450930;13669
450939;13959
450947;14200
450955;14268
450963;14288
450971;14270
450980;14223
450988;14150
450996;14036
451004;13974
451012;13928
451021;13805
451029;13735
451037;13658
451045;13633
451053;13579
451062;13592
451070;13579
451078;13597
451086;13598
451094;13621
451102;13611
451111;13621
451119;13699
451127;13799
451135;13781
451143;13759
451152;13683
451160;13613
451168;13556
451176;13534
451184;13553
451196;13710
451204;13851
451212;13939
451220;13924
451228;13915
451237;13851
451245;13844
451253;13791
451261;13727
451269;13634
451278;13573
451286;13687
451294;14202
451302;12412
451310;8274
451319;4865
451327;7225
451335;14778
451343;15807
451351;15221
451359;14670
451368;14489
451376;14234
451384;14024
451392;13900
451400;13781
451409;13713
451417;13618
451425;13550
451433;13471
451441;13392
451450;13308
451458;13220
451466;13074
451474;12877
451482;12689
451494;12416
451502;12232
451510;12020
451518;11833
451526;11799
451535;11812
451543;11915
451551;12090
451559;12384
451567;12751
451576;13189
451584;13593
451592;13938
451600;14204
451608;14389
451617;14473
451625;14509
451633;14510
451641;14482
451649;14417
451657;14326
451666;14251
451674;14198
451682;14179
451690;14162
451698;14126
451707;14070
451715;13961
451723;13998
451731;14040
451739;14022
451748;13998
451756;13994
451764;14000
451772;14023
451780;14003
451789;13945
451800;13926
451808;13873
451816;13600
451824;13498
451833;13453
451841;13481
451849;13444
451857;13429
451865;13454
451874;13520
451882;13656
451890;13683
451898;13685
451906;13702
451914;13706
451923;13694
451931;13671
451939;13589
451947;13555
451955;14303
451964;13248
451972;9415
451980;5290
451988;5442
451996;13200
452005;15603
452013;15125
452021;14481
452029;14276
452037;14044
452046;13796
452054;13656
452062;13541
452070;13444
452078;13367
452087;13253
452095;13193
452106;13160
452114;13171
452122;13055
452131;12861
452139;12661
452147;12487
452155;12278
452163;12081
452172;11817
452180;11718
452188;11696
452196;11780
452204;11883
452212;12096
452221;12378
452229;12739
452237;13099
452245;13448
452253;13734
452262;13997
452270;14147
452278;14278
452287;14362
452295;14437
452304;14434
452312;14364
452320;14284
452328;14227
452336;14164
452345;14075
452353;13959
452361;13873
452369;13770
452377;13733
452386;13554
452394;13276
452404;14003
452412;14261
452421;14327
452430;14220
452438;14164
452446;14211
452454;14202
452462;14206
452471;14160
452479;14145
452487;13981
452495;13890
452503;13850
452511;13860
452520;13836
452528;13793
452536;13809
452544;13906
452552;14014
452561;14054
452569;14013
452577;13994
452585;13960
452593;13935
452602;13890
452610;13841
452618;13754
452626;14236
452634;14090
452643;11338
452651;6859
452659;4677
452667;10296
452675;15668
452684;15536
452692;14858
452700;14523
452711;14288
452719;14071
452728;13919
452736;13804
452744;13724
452752;13631
452760;13600
452769;13462
452777;13364
452785;13244
452793;13133
452801;13035
452809;12922
452818;12778
452826;12629
452834;12408
452842;12165
452850;12018
452859;11957
452867;11985
452875;12073
452883;12211
452891;12455
452900;12783
452908;13157
452916;13543
452924;13878
452932;14115
452941;14344
452949;14485
452957;14520
452965;14586
452973;14566
452982;14519
452990;14503
452998;14470
453006;14452
453017;14493
453026;14483
453034;14390
453042;14346
453050;14317
453058;14304
453066;14295
453075;14305
453083;14318
453091;14339
453099;14298
453107;14308
453116;14266
453124;14288
453132;14245
453140;14226
453148;14144
453157;13979
453165;13789
453173;13744
453181;13761
453189;13776
453198;13730
453206;13786
453214;13861
453222;13942
453230;14000
453239;13962
453247;13919
453255;13905
453263;13924
453271;13864
453279;13799
453288;13669
453296;14155
453304;14037
453315;9878
453324;5854
453332;5787
453340;13594
453348;15998
453356;15393
453364;14753
453373;14537
453381;14327
453389;14054
453397;13956
453405;13824
453414;13713
453422;13616
453430;13549
453438;13433
453446;13348
453455;13243
453463;13154
453471;13050
453479;12936
453487;12777
453496;12637
453504;12419
453512;12253
453520;12125
453528;12050
453537;12037
453545;12171
453553;12341
453561;12523
453569;12765
453577;13150
453586;13561
453594;13932
453602;14175
453610;14392
453622;14570
453630;14640
453638;14581
453646;14526
453654;14417
453662;14336
453671;14235
453679;14170
453687;14070
453695;13993
453703;13944
453712;14002
453720;13999
453728;13991
453736;13944
453744;13909
453753;13848
453761;13833
453769;13822
453777;13815
453785;13751
453794;13710
453802;13714
453810;13706
453818;13595
453826;13407
453834;13219
453843;13172
453851;13206
453859;13238
453867;13269
453875;13331
453884;13402
453892;13556
453900;13613
453908;13617
453916;13558
453928;13648
453936;13714
453944;13716
453952;13660
453960;13744
453969;14309
453977;12677
453985;8632
453993;5516
454001;7744
454010;15452
454018;16059
454026;15278
454034;14588
454042;14315
454051;14078
454059;13822
454067;13648
454075;13569
454083;13499
454092;13459
454100;13402
454108;13345
454116;13259
454124;13191
454132;13102
454141;12992
454149;12826
454157;12640
454165;12402
454173;12187
454182;12027
454190;11909
454198;11802
454206;11871
454214;11974
454226;12192
454234;12437
454242;12703
454250;12978
454258;13309
454267;13588
454275;13832
454283;14064
454291;14218
454299;14265
454308;14278
454316;14228
454324;14187
454332;14154
454340;14141
454349;14176
454357;14239
454365;14297
454373;14308
454381;14313
454390;14344
454398;14375
454406;14419
454414;14472
454422;14508
454430;14451
454439;14385
454447;14176
454455;14003
454463;13900
454471;13812
454480;13803
454488;13809
454496;13847
454504;13919
454512;13973
454521;13982
454532;14104
454540;14109
454548;14066
454556;14033
454565;13973
454573;13951
454581;13934
454589;13903
454597;14570
454606;13249
454614;9265
454622;5608
454630;6668
454638;14905
454647;16450
454655;15759
454663;15105
454671;14774
454679;14555
454687;14265
454696;14081
454704;13953
454712;13884
454720;13771
454728;13668
454737;13560
454745;13478
454753;13398
454761;13305
454769;13147
454778;13026
454786;12828
454794;12647
454802;12432
454810;12237
454819;12104
454827;12068
454838;12254
454846;12447
454854;12580
454863;12839
454871;13139
454879;13467
454887;13783
454895;14075
454904;14252
454912;14410
454920;14482
454928;14526
454936;14491
454945;14456
454953;14381
454961;14305
454969;14188
454977;14125
454985;14009
454994;13941
455002;13877
455010;13860
455018;13859
455026;13816
455035;13826
455043;13827
455051;13808
455059;13869
455067;13859
455076;13791
455084;13760
455092;13787
455100;13780
455108;13752
455117;13624
455125;13434
455136;13254
455144;13304
455152;13296
455161;13281
455169;13304
455177;13380
455185;13425
455193;13555
455202;13580
455210;13613
455218;13600
455226;13608
455234;13588
455242;13532
455251;13429
455259;13417
455267;14083
455275;12724
455283;8776
455292;4973
455300;5997
455308;14071
455316;15591
455324;15020
455333;14422
455341;14288
455349;14065
455357;13857
455365;13748
455374;13653
455382;13609
455390;13567
455398;13494
455406;13405
455415;13343
455423;13281
455432;13155
455442;13059
455450;12983
455459;12800
455467;12526
455475;12304
455483;12080
455491;11957
455500;11931
455508;11976
455516;12102
455524;12300
455532;12520
455540;12867
455549;13235
455557;13649
455565;13986
455573;14253
455582;14376
455591;14448
455599;14530
455607;14578
455615;14588
455623;14572
455632;14530
455640;14493
455648;14440
455656;14394
455664;14339
455673;14313
455681;14266
455689;14216
455697;14178
455705;14166
455714;14178
455722;14183
455730;14218
455738;14184
455749;14227
455758;14276
455766;14218
455774;14160
455782;14071
455790;13897
455799;13589
455807;13536
455815;13574
455823;13594
455831;13570
455839;13630
455848;13694
455856;13812
455864;13870
455872;13876
455880;13864
455889;13844
455897;13842
455905;13796
455913;13756
455921;13653
455930;13965
455938;14221
455946;11968
455954;7602
455962;4629
455971;8811
455979;15449
455987;15543
455995;14881
456003;14468
456012;14356
456020;14100
456028;13957
456036;13823
456047;13770
456056;13732
456064;13678
456072;13573
456080;13501
456088;13402
456097;13302
456105;13153
456113;12997
456121;12830
456129;12685
456137;12420
456146;12174
456154;11959
456162;11893
456170;11853
456178;11920
456187;12055
456195;12235
456203;12493
456211;12876
456219;13257
456228;13657
456236;13946
456244;14160
456252;14287
456260;14383
456269;14452
456277;14485
456285;14434
456293;14361
456301;14323
456310;14316
456318;14312
456326;14285
456334;14210
456342;14223
456354;14234
456362;14294
456370;14265
456378;14276
456386;14296
456394;14344
456403;14341
456411;14284
456419;14212
456427;14024
456435;13855
456444;13780
456452;13734
456460;13729
456468;13722
456476;13790
456485;13850
456493;13929
456501;13964
456509;13988
456517;13993
456526;13988
456534;13938
456542;13918
456550;13835
456558;13802
456567;13798
456575;14216
456583;12573
456591;8729
456599;6209
456607;8055
456616;15694
456624;16537
456632;15738
456640;14970
456648;14503
456660;14266
456668;14057
456676;13878
456684;13788
456692;13787
456701;13760
456709;13730
456717;13619
456725;13515
456733;13401
456742;13273
456750;13097
456758;12998
456766;12849
456774;12630
456783;12395
456791;12135
456799;11974
456807;11957
456815;11993
456824;12100
456832;12284
456840;12505
456848;12853
456856;13249
456865;13618
456873;13966
456881;14228
456889;14415
456897;14527
456905;14615
456914;14654
456922;14592
456930;14546
456938;14467
456946;14395
456958;14368
456966;14325
456974;14262
456982;14193
456990;14148
456999;14113
457007;14145
457015;14130
457023;14108
457031;14063
457040;13865
457048;13794
457056;13731
457064;13670
457072;13631
457081;13669
457089;13750
457097;13841
457105;13942
457113;13962
457122;13915
457130;13888
457138;13869
457146;13860
457154;13833
457162;13770
457171;13676
457179;13630
457187;14075
457195;13124
457203;9757
457212;6870
457220;6908
457228;14044
457236;16746
457244;16054
457253;15273
457264;14538
457272;14330
457280;14016
457288;13765
457297;13675
457305;13599
457313;13594
457321;13552
457329;13501
457338;13427
457346;13346
457354;13257
457362;13188
457370;13008
457379;12823
457387;12560
457395;12334
457403;12088
457411;11923
457420;11857
457428;11897
457436;11952
457444;12130
457452;12368
457460;12766
457469;13180
457477;13614
457485;13958
457493;14203
457501;14354
457510;14488
457518;14533
457526;14543
457534;14524
457542;14532
457551;14474
457559;14440
457570;14391
457578;14361
457586;14283
457595;14217
457603;14134
457611;14071
457619;14065
457627;14036
457636;13991
457644;13950
457652;13885
457660;13700
457668;13580
457677;13527
457685;13486
457693;13455
457701;13487
457709;13509
457718;13563
457726;13683
457734;13678
457742;13720
457751;13761
457759;13855
457768;13874
457776;13841
457784;13771
457792;13705
457800;13843
457809;14021
457817;12047
457825;8231
457833;5768
457841;9132
457850;15949
457858;16263
457868;15426
457876;14868
457884;14524
457894;14219
457902;13959
457910;13845
457918;13721
457926;13681
457935;13587
457943;13518
457951;13419
457959;13306
457967;13218
457976;13090
457984;12963
457992;12840
458000;12637
458008;12420
458017;12138
458025;11912
458033;11801
458041;11780
458049;11857
458057;12004
458066;12214
458074;12544
458082;12965
458090;13412
458098;13822
458107;14158
458115;14385
458123;14493
458131;14565
458139;14576
458148;14503
458156;14469
458164;14424
458175;14359
458183;14315
458192;14243
458200;14124
458208;14027
458216;13933
458224;13898
458233;13922
458241;13953
458249;13876
458257;13778
458265;13651
458274;13514
458282;13471
458290;13459
458298;13439
458306;13491
458314;13582
458323;13652
458331;13723
458339;13764
458347;13811
458355;13772
458364;13710
458372;13697
458380;13730
458388;13749
458396;13747
458405;13704
458413;13740
458421;14286
458429;12684
458437;8632
458446;4933
458454;6185
458462;14131
458470;15403
458481;14630
458490;14049
458498;13825
458506;13953
458514;14207
458522;14153
458531;14011
458539;13876
458547;13763
458555;13660
458563;13577
458572;13514
458580;13397
458588;13260
458596;13098
458604;12924
458612;12722
458621;12506
458629;12287
458637;12064
458645;11927
458653;11851
458662;11907
458670;12023
458678;12261
458686;12582
458694;13031
458703;13540
458711;13983
458719;14275
458727;14416
458735;14470
458744;14482
458752;14472
458760;14449
458768;14379
458779;14350
458788;14397
458796;14361
458804;14367
458812;14325
458820;14222
458829;14085
458837;13941
458845;13818
458853;13690
458861;13634
458870;13692
458878;13749
458886;13775
458894;13783
458902;13736
458910;13626
458919;13449
458927;13391
458935;13424
458943;13427
458951;13420
458960;13479
458968;13569
458976;13691
458984;13813
458992;13891
459001;13890
459009;13819
459017;13770
459025;13746
459033;13697
459042;13644
459050;13752
459058;14242
459066;12522
459074;8300
459094;9624
459102;15710
459110;16038
459118;15402
459127;15054
459135;14824
459143;14480
459151;14151
459159;14244
459167;14159
459176;13994
459184;13856
459192;13794
459200;13718
459208;13718
459217;13585
459225;13263
459233;12492
459241;12157
459249;12397
459258;12031
459266;11980
459274;12136
459282;12054
459290;11965
459299;11841
459307;11763
459315;11769
459323;12225
459331;12766
459340;13215
459348;13521
459356;14009
459364;14306
459372;14406
459380;14467
459389;14631
459400;14857
459408;14696
459416;14319
459425;14123
459433;14051
459441;13915
459449;13840
459457;14105
459465;14210
459474;13863
459482;13592
459490;13801
459498;14244
459506;14492
459515;14549
459523;14480
459531;14461
459539;14444
459547;14553
459556;14638
459564;14669
459572;14480
459580;14432
459588;14479
459597;14520
459605;14486
459613;14472
459621;14607
459629;14720
459638;14815
459646;14873
459654;14852
459662;14845
459670;14805
459678;14705
459687;14710
459698;14672
459706;14790
459714;15230
459722;13347
459731;8887
459739;5697
459747;7791
459755;15310
459763;16876
459772;16471
459780;15920
459788;15707
459796;15336
459804;15069
459813;15054
459821;15053
459829;14978
459837;14931
459845;14876
459854;14726
459862;14691
459870;14632
459878;14515
459886;14429
459895;14304
459903;14076
459911;13782
459919;13412
459927;13005
459935;12060
459944;11178
459952;11574
459960;11378
459968;11517
459976;11541
459985;12086
459993;12431
460004;12889
460012;13117
460020;13255
460029;13582
460037;13849
460045;13863
460053;13799
460061;13753
460070;13615
460078;13471
460086;13313
460094;13247
460102;13176
460111;13089
460119;12997
460127;12895
460135;12849
460143;12854
460152;12875
460160;12871
460168;12820
460176;12790
460184;12777
460193;12768
460201;12782
460209;12863
460217;12874
460225;12863
460233;12710
460243;12623
460251;12624
460259;12735
460267;12801
460275;12833
460284;12925
460292;13136
460300;13264
460310;13357
460318;13439
460327;13482
460335;13468
460343;13468
460351;13458
460360;13395
460369;13297
460377;13906
460385;12892
460393;9366
460401;6392
460410;6437
460418;13765
460426;16195
460434;15525
460442;14789
460451;14110
460459;13831
460467;13533
460475;13337
460483;13271
460492;13261
460500;13204
460508;13173
460516;13163
460524;13120
460532;13060
460541;13057
460549;12972
460557;12877
460565;12794
460573;12626
460582;12383
460590;12157
460598;11945
460609;11898
460617;12018
460626;12121
460634;12250
460642;12512
460650;12858
460658;13304
460667;13695
460675;14012
460683;14279
460691;14500
460699;14605
460708;14739
460716;14796
460724;14794
460732;14790
460740;14749
460749;14270
460757;14050
460765;13920
460773;13892
460781;13881
460790;13874
460798;14208
460806;14333
460814;14320
460822;14321
460830;14316
460839;14247
460847;14174
460855;14055
460863;13961
460871;13931
460880;13956
460888;13937
460896;13998
460904;14042
460915;14232
460924;14452
460932;14504
460940;14544
460948;14534
460956;14502
460965;14442
460973;14353
460981;14312
460989;14248
460997;14183
461006;14653
461014;13079
461022;9046
461030;5819
461038;7012
461047;14650
461055;16142
461063;15690
461071;15033
461079;14611
461087;14322
461096;14081
461104;13918
461112;13840
461120;13717
461128;13658
461137;13579
461145;13493
461153;13389
461161;13322
461169;13206
461178;13124
461186;12930
461194;12751
461202;12557
461210;12358
461222;12135
461230;12066
461238;12024
461246;12067
461254;12180
461263;12344
461271;12653
461279;13103
461287;13549
461295;13950
461304;14215
461312;14394
461320;14467
461328;14471
461336;14458
461345;14444
461353;14397
461361;14393
461369;14325
461377;14242
461385;14175
461394;14133
461402;14066
461410;14037
461418;13981
461426;13922
461435;13854
461443;13840
461451;13836
461459;13890
461467;13947
461476;14006
461484;14021
461492;14050
461500;14042
461508;14048
461520;14080
461528;14083
461536;13925
461544;13766
461552;13630
461561;13586
461569;13585
461577;13614
461585;13585
461593;13616
461602;13701
461610;13794
461618;13792
461626;13816
461634;13770
461642;13731
461651;13646
461659;13564
461667;13496
461675;13701
461683;13783
461692;11536
461700;7255
461708;4791
461716;7891
461724;14637
461733;15541
461741;14996
461749;14475
461757;14249
461765;13903
461774;13729
461782;13638
461790;13559
461798;13476
461806;13408
461815;13334
461826;13318
461834;13313
461842;13223
461850;13111
461859;12995
461867;12804
461875;12641
461883;12409
461891;12197
461900;12026
461908;11929
461916;11859
461924;11936
461932;12027
461940;12209
461949;12507
461957;12997
461965;13426
461973;13796
461981;14099
461990;14306
461998;14462
462006;14552
462014;14549
462022;14544
462031;14524
462039;14459
462047;14383
462055;14340
462063;14279
462072;14212
462080;14162
462088;14154
462096;14123
462104;14146
462113;14128
462121;14126
462132;14153
462140;14213
462148;14205
462157;14213
462165;14242
462173;14254
462181;14175
462189;14164
462198;14129
462206;14078
462214;13967
462222;13799
462230;13596
462238;13530
462247;13474
462255;13516
462263;13510
462271;13491
462279;13535
462288;13657
462296;13792
462304;13799
462312;13775
462320;13762
462329;13744
462337;13704
462345;13676
462353;13582
462361;13616
462370;14074
462378;12609
462386;8758
462394;5508
462402;6691
462410;13968
462419;15665
462430;15046
462438;14636
462446;14388
462455;14080
462463;13920
462471;13780
462479;13680
462487;13618
462495;13596
462504;13553
462512;13519
462520;13468
462528;13421
462536;13314
462545;13214
462553;13040
462561;12887
462569;12617
462577;12365
462586;12146
462594;11976
462602;11914
462610;11930
462618;12015
462627;12158
462635;12369
462643;12732
462651;13135
462659;13496
462668;13791
462676;14042
462684;14134
462692;14191
462700;14198
462708;14230
462717;14218
462725;14160
462736;14134
462744;14184
462753;14134
462761;14065
462769;13988
462777;13946
462785;13907
462793;13864
462802;13791
462810;13789
462818;13748
462826;13752
462834;13718
462843;13728
462851;13738
462859;13816
462867;13841
462875;13867
462884;13843
462892;13866
462900;13821
462908;13825
462916;13791
462925;13656
462933;13492
462941;13409
462949;13359
462957;13394
462966;13413
462974;13404
462982;13438
462991;13528
462999;13633
463007;13675
463016;13693
463024;13689
463032;13682
463042;13752
463050;13780
463059;13727
463067;13675
463075;14271
463083;13075
463091;9519
463100;6034
463108;6469
463117;13565
463125;15911
463133;15423
463142;14721
463150;14431
463158;14151
463166;13938
463174;13774
463183;13662
463191;13557
463199;13457
463207;13401
463215;13349
463224;13296
463232;13251
463240;13189
463248;13051
463256;12920
463265;12765
463273;12584
463281;12380
463289;12173
463297;12008
463305;11959
463314;11948
463322;11997
463330;12098
463341;12505
463350;12869
463358;13255
463366;13616
463374;13949
463382;14177
463390;14348
463399;14376
463407;14339
463415;14246
463423;14185
463431;14119
463440;14090
463448;14028
463456;14021
463464;14000
463472;14044
463481;14056
463489;14054
463497;14036
463505;14011
463513;14021
463522;14074
463530;14106
463538;14150
463546;14229
463554;14249
463562;14295
463571;14282
463579;14290
463587;14243
463595;14161
463603;14118
463612;14098
463620;14099
463628;14111
463636;14040
463647;13945
463656;13823
463664;13752
463672;13772
463680;13821
463688;13777
463697;13735
463705;13767
463713;13851
463721;13914
463729;13933
463738;13917
463746;13940
463754;13914
463762;13864
463770;13800
463779;13728
463787;14129
463795;13839
463803;11241
463811;7363
463820;5787
463828;11127
463836;15838
463844;15695
463852;14920
463860;14540
463869;14340
463877;14145
463885;14024
463893;13926
463901;13832
463910;13792
463918;13733
463926;13708
463934;13649
463942;13569
463954;13486
463962;13456
463970;13331
463978;13107
463986;12837
463995;12617
464003;12342
464011;12169
464019;12101
464027;12074
464036;12100
464044;12238
464052;12439
464060;12695
464068;13038
464077;13439
464085;13764
464093;14062
464101;14267
464109;14394
464118;14438
464126;14457
464134;14443
464142;14452
464150;14399
464158;14310
464167;14229
464175;14174
464183;14074
464191;14000
464199;13908
464208;13866
464216;13802
464224;13767
464232;13703
464240;13690
464252;13709
464260;13753
464268;13719
464276;13682
464284;13633
464293;13663
464301;13644
464309;13624
464317;13603
464325;13602
464334;13501
464342;13378
464350;13210
464358;13174
464366;13157
464375;13205
464383;13228
464391;13260
464399;13324
464407;13441
464415;13497
464424;13456
464432;13471
464440;13475
464448;13426
464456;13381
464465;13278
464473;13176
464481;13511
464489;13417
464497;10895
464506;7026
464514;5272
464522;10616
464530;15742
464538;15463
464547;14682
464558;14096
464566;13902
464574;13635
464582;13457
464591;13370
464599;13264
464607;13187
464615;13102
464623;13041
464632;12954
464640;12868
464648;12758
464656;12650
464664;12519
464673;12371
464681;12187
464689;11957
464697;11756
464705;11614
464713;11528
464722;11547
464730;11667
464738;11882
464746;12064
464754;12351
464763;12728
464771;13152
464779;13502
464787;13802
464795;13986
464804;14137
464812;14212
464820;14260
464828;14276
464836;14222
464845;14209
464853;14157
464864;14096
464872;14144
464880;14075
464889;13964
464897;13889
464905;13847
464913;13792
464921;13809
464930;13801
464938;13803
464946;13777
464954;13779
464962;13770
464970;13780
464979;13766
464987;13793
464995;13857
465003;13797
465011;13804
465020;13662
465028;13523
465036;13456
465044;13501
465052;13535
465061;13640
465069;13741
465077;13889
465085;14035
465093;14136
465103;14180
465111;14216
465119;14257
465127;14297
465135;14282
465144;14265
465152;14202
465162;15004
465170;13751
465178;9983
465187;6568
465195;7916
465203;15737
465212;16840
465220;16098
465229;15402
465237;15146
465245;14897
465253;14589
465261;14442
465270;14327
465278;14214
465286;14099
465294;13992
465302;13866
465310;13777
465319;13653
465327;13515
465335;13331
465343;13155
465351;12917
465360;12727
465368;12447
465376;12222
465384;12014
465392;11991
465401;12010
465409;12082
465417;12176
465425;12369
465433;12634
465442;13038
465450;13442
465458;13767
465469;14154
465477;14409
465486;14433
465494;14457
465502;14441
465510;14405
465518;14314
465527;14237
465535;14162
465543;14083
465551;13957
465559;13924
465567;13888
465576;13898
465584;13858
465592;13857
465600;13843
465608;13898
465617;13920
465625;13868
465633;13865
465641;13910
465649;13875
465658;13801
465666;13675
465674;13566
465682;13495
465690;13497
465699;13513
465707;13626
465715;13704
465723;13774
465731;13853
465740;13899
465748;13884
465756;13855
465767;13874
465775;13922
465784;13891
465792;13780
465800;13663
465808;14254
465816;13186
465825;9699
465833;6073
465841;6342
465849;14189
465857;16049
465865;15285
465874;14571
465882;14278
465890;14107
465898;13847
465906;13749
465915;13615
465923;13534
465931;13477
465939;13426
465947;13341
465956;13298
465964;13248
465972;13125
465980;12963
465988;12776
465997;12582
466005;12372
466013;12074
466021;11846
466029;11684
466038;11628
466046;11670
466054;11774
466062;11880
466073;12260
466082;12608
466090;12966
466098;13288
466106;13605
466114;13841
466122;13992
466131;14099
466139;14178
466147;14190
466155;14175
466163;14097
466172;14051
466180;14000
466188;13932
466196;13828
466204;13781
466213;13739
466221;13709
466229;13750
466237;13775
466245;13789
466254;13846
466262;13886
466270;13964
466278;13917
466286;13918
466295;13795
466303;13735
466311;13732
466319;13775
466327;13781
466335;13866
466344;13958
466352;14068
466360;14171
466368;14179
466380;14242
466388;14278
466396;14279
466404;14262
466412;14238
466420;14210
466429;14152
466437;14631
466445;14369
466453;11522
466461;7355
466470;5515
466478;11926
466486;16719
466494;16101
466502;15349
466511;14884
466519;14705
466527;14427
466535;14191
466543;14067
466552;13965
466560;13912
466568;13800
466576;13699
466584;13586
466593;13446
466601;13282
466609;13129
466617;12969
466625;12802
466633;12595
466642;12416
466650;12169
466658;12001
466666;11864
466674;11838
466686;12010
466694;12209
466702;12375
466710;12681
466718;13105
466727;13456
466735;13761
466743;14063
466751;14209
466759;14268
466768;14267
466776;14261
466784;14201
466792;14143
466800;14061
466809;13970
466817;13874
466825;13779
466833;13688
466841;13611
466850;13502
466858;13442
466866;13432
466874;13436
466882;13502
466890;13633
466899;13664
466907;13648
466915;13607
466923;13473
466931;13312
466940;13258
466948;13207
466956;13240
466964;13305
466972;13315
466984;13407
466992;13561
467000;13540
467008;13530
467016;13566
467025;13622
467033;13658
467041;13685
467049;13667
467057;13580
467066;14079
467074;13721
467082;10792
467090;6638
467098;4984
467107;11720
467115;16155
467123;15577
467131;14859
467139;14465
467148;14281
467156;14005
467164;13829
467172;13752
467180;13680
467188;13638
467197;13593
467205;13510
467213;13446
467221;13376
467229;13251
467238;13145
467246;13015
467254;12895
467262;12734
467270;12585
467279;12395
467290;12244
467298;12236
467306;12230
467314;12320
467323;12438
467331;12595
467339;12855
467347;13208
467355;13590
467364;13913
467372;14227
467380;14441
467388;14624
467396;14712
467405;14741
467413;14721
467421;14734
467429;14711
467437;14657
467446;14575
467454;14496
467462;14412
467470;14294
467478;14227
467486;14225
467495;14179
467503;14196
467511;14253
467519;14324
467527;14381
467536;14404
467544;14461
467552;14367
467560;14214
467568;14089
467577;13978
467588;14109
467596;14316
467604;14438
467612;14635
467621;14822
467629;14902
467637;14969
467645;14997
467653;14975
467662;14943
467670;14867
467678;14761
467686;14619
467694;14865
467703;14901
467711;12415
467719;7946
467727;5115
467735;10055
467743;16272
467752;16222
467760;15518
467768;15046
467776;14814
467784;14491
467793;14242
467801;14070
467809;13913
467817;13791
467825;13700
467834;13612
467842;13512
467850;13369
467858;13235
467866;13139
467875;13037
467883;12918
467894;12766
467902;12596
467910;12384
467919;12144
467927;11994
467935;11918
467943;11946
467951;12067
467960;12270
467968;12578
467976;12971
467984;13334
467992;13650
468001;13932
468009;14104
468017;14188
468025;14292
468033;14295
468041;14327
468050;14259
468059;14212
468067;14125
468075;14084
468083;14038
468092;14012
468100;13984
468108;13946
468116;13887
468124;13871
468133;13839
468141;13818
468149;13771
468157;13836
468165;13860
468174;13857
468182;13840
468190;13762
468201;13716
468209;13821
468218;13802
468226;13819
468234;13851
468242;13896
468250;13921
468259;13976
468267;13907
468275;13856
468283;13759
468291;13709
468300;13620
468308;13620
468316;13555
468324;13515
468332;13966
468340;13802
468349;11017
468357;6668
468365;4450
468373;10347
468381;15623
468390;15441
468398;14750
468406;14370
468414;14216
468422;13970
468431;13800
468439;13720
468447;13651
468455;13570
468463;13428
468472;13337
468480;13244
468488;13168
468499;13041
468507;12973
468516;12817
468524;12672
468532;12448
468540;12238
468548;12000
468557;11892
468565;11807
468573;11850
468581;11887
468589;12057
468598;12329
468606;12745
468614;13165
468622;13623
468630;14014
468638;14319
468647;14498
468655;14627
468663;14636
468671;14624
468679;14538
468688;14492
468696;14435
468704;14371
468712;14273
468720;14209
468729;14126
468737;14075
468745;14056
468753;14060
468761;14054
468770;14059
468778;14060
468786;14085
468794;14073
468805;14168
468814;14269
468822;14280
468830;14262
468838;14201
468846;14018
468855;13857
468863;13812
468871;13852
468879;13877
468887;13904
468895;13900
468904;13967
468912;14054
468920;14116
468928;14058
468936;14004
468945;13928
468953;13885
468961;13772
468969;13690
468977;13601
468986;14064
468994;14043
469002;11314
469010;6786
469018;4350
469027;9743
469035;15536
469043;15422
469051;14719
469059;14252
469068;14057
469076;13780
469084;13576
469092;13543
469100;13475
469112;13488
469120;13497
469128;13396
469136;13305
469144;13191
469153;13086
469161;12982
469169;12874
469177;12713
469185;12516
469193;12274
469202;12053
469210;11840
469218;11770
469226;11798
469234;11911
469243;12087
469251;12322
469259;12659
469267;13089
469275;13497
469284;13800
469292;14073
469300;14273
469308;14365
469316;14414
469325;14393
469333;14473
469341;14474
469349;14355
469357;14260
469366;14194
469374;14183
469382;14140
469390;14109
469398;14041
469410;14029
469418;14021
469426;13916
469434;13879
469442;13854
469450;13865
469459;13857
469467;13831
469475;13855
469483;13828
469491;13758
469500;13598
469508;13417
469516;13384
469524;13425
469532;13440
469541;13421
469549;13448
469557;13523
469565;13590
469573;13631
469582;13613
469590;13619
469598;13626
469606;13615
469614;13598
469623;13585
469631;13502
469639;13686
469647;14231
469655;12366
469663;7961
469672;4349
469680;7037
469688;14806
469696;15546
469704;14916
469716;14363
469724;14250
469732;13973
469740;13770
469748;13638
469757;13566
469765;13494
469773;13449
469781;13358
469789;13337
469798;13276
469806;13225
469814;13136
469822;13022
469830;12854
469839;12710
469847;12507
469855;12302
469863;12085
469871;11955
469880;11942
469888;12012
469896;12100
469904;12283
469912;12570
469921;13050
469929;13509
469937;13929
469945;14241
469953;14521
469961;14674
469970;14772
469978;14792
469986;14761
469994;14690
470002;14651
470011;14611
470022;14604
470030;14556
470038;14468
470046;14384
470055;14355
470063;14257
470071;14214
470079;14143
470087;14132
470096;14140
470104;14192
470112;14213
470120;14231
470128;14202
470137;14159
470145;14087
470153;14025
470161;13881
470169;13780
470178;13733
470186;13708
470194;13686
470202;13735
470210;13815
470218;13894
470227;13953
470235;13979
470243;13996
470251;13995
470259;14037
470268;14056
470276;13966
470284;13936
470292;13866
470300;14351
470309;13858
470320;9470
470328;6429
470336;7226
470344;15082
470353;16587
470361;15822
470369;15058
470377;14528
470385;14294
470394;14000
470402;13804
470410;13688
470418;13622
470426;13553
470435;13571
470443;13512
470451;13430
470459;13381
470467;13284
470476;13175
470484;13016
470493;12838
470501;12656
470509;12418
470518;12204
470526;12003
470534;11885
470542;11906
470550;11946
470558;12100
470567;12332
470575;12681
470583;13094
470591;13476
470599;13821
470608;14141
470616;14346
470627;14560
470635;14675
470643;14656
470652;14656
470660;14598
470668;14555
470676;14501
470684;14452
470693;14437
470701;14366
470709;14291
470717;14224
470725;14193
470734;14156
470742;14096
470750;14105
470758;14067
470766;14020
470775;13959
470783;13783
470791;13654
470799;13574
470807;13474
470815;13389
470824;13422
470832;13475
470840;13543
470848;13686
470856;13775
470865;13771
470873;13748
470881;13728
470889;13746
470897;13757
470906;13747
470914;13710
470922;13687
470933;14160
470941;12145
470950;8229
470958;6006
470966;9430
470974;16285
470982;16414
470991;15681
470999;15009
471007;14568
471015;14331
471023;14060
471032;13899
471040;13791
471048;13739
471056;13677
471064;13602
471073;13553
471081;13523
471089;13427
471097;13285
471105;13138
471113;12930
471122;12750
471130;12527
471138;12283
471146;11999
471154;11850
471163;11796
471171;11829
471179;11928
471187;12126
471195;12407
471204;12799
471212;13269
471220;13706
471231;14269
471239;14573
471248;14712
471256;14754
471264;14751
471272;14765
471280;14737
471289;14701
471297;14624
471305;14594
471313;14512
471321;14416
471330;14324
471338;14238
471346;14176
471354;14098
471362;14014
471370;13980
471379;13967
471387;13978
471395;13953
471403;13905
471411;13835
471420;13700
471428;13597
471436;13564
471444;13511
471452;13504
471461;13528
471469;13568
471477;13687
471485;13793
471493;13808
471502;13796
471510;13802
471518;13795
471526;13766
471537;13737
471546;13678
471554;13686
471562;14341
471570;12968
471578;9048
471587;5335
471595;6081
471603;14081
471611;15947
471619;15479
471628;14837
471636;14501
471644;14253
471652;13999
471660;13831
471668;13725
471677;13622
471685;13560
471693;13476
471701;13385
471709;13255
471718;13159
471726;13029
471734;12882
471742;12728
471750;12558
471759;12340
471767;12084
471775;11794
471783;11642
471791;11546
471800;11531
471808;11633
471816;11748
471824;11981
471832;12371
471844;13054
471852;13549
471860;13880
471868;14128
471876;14298
471885;14390
471893;14438
471901;14448
471909;14463
471917;14442
471926;14346
471934;14307
471942;14234
471950;14185
471958;14125
471966;14058
471975;13974
471983;13906
471991;13821
471999;13776
472007;13773
472016;13757
472024;13718
472032;13672
472040;13705
472048;13711
472057;13695
472065;13699
472073;13697
472081;13631
472089;13498
472098;13349
472106;13316
472114;13339
472122;13381
472130;13408
472142;13552
472150;13701
472158;13806
472166;13843
472174;13834
472183;13870
472191;13899
472199;13878
472207;13815
472215;13747
472223;13636
472232;14252
472240;13265
472248;9675
472256;5336
472264;4974
472273;12218
472281;15687
472289;15474
472297;14809
472305;14495
472314;14238
472322;13955
472330;13812
472338;13747
472346;13671
472355;13606
472363;13504
472371;13394
472379;13280
472387;13175
472396;13066
472404;12971
472412;12875
472420;12745
472428;12516
472436;12272
472448;12097
472456;11983
472464;11861
472472;11868
472481;11920
472489;12070
472497;12324
472505;12722
472513;13186
472521;13598
472530;13967
472538;14270
472546;14416
472554;14512
472562;14530
472571;14515
472579;14435
472587;14405
472595;14360
472603;14368
472612;14300
472620;14280
472628;14216
472636;14154
472644;14115
472653;14092
472661;14073
472669;14066
472677;14087
472685;14058
472694;14047
472702;14044
472710;14048
472718;14043
472726;14045
472734;14054
472743;14009
472754;14078
472762;14089
472770;14066
472778;13978
472787;13827
472795;13662
472803;13641
472811;13602
472819;13620
472828;13614
472836;13664
472844;13707
472852;13752
472860;13708
472869;13709
472877;13715
472885;13721
472893;13698
472901;13704
472910;13628
472918;13543
472926;13850
472934;13937
472942;11616
472951;7138
472959;4453
472967;8144
472975;14987
472983;15705
472991;15113
473000;14711
473008;14550
473016;14270
473024;14098
473032;14088
473041;14010
473052;13963
473060;13940
473068;13848
473076;13745
473085;13660
473093;13518
473101;13387
473109;13251
473117;13121
473126;12891
473134;12612
473142;12308
473150;12073
473158;11910
473167;11882
473175;11886
473183;11968
473191;12132
473200;12430
473209;12885
473217;13396
473225;13816
473233;14178
473241;14410
473250;14604
473258;14662
473266;14676
473274;14682
473282;14647
473290;14591
473299;14554
473307;14506
473315;14478
473323;14415
473331;14343
473340;14273
473348;14224
473359;14195
473367;14245
473375;14177
473384;14121
473392;14076
473400;14076
473408;14089
473416;14117
473425;14118
473433;14101
473441;14043
473449;14020
473457;13977
473466;13965
473474;13933
473482;13898
473490;13845
473498;13820
473507;13818
473515;13819
473523;13841
473531;13758
473539;13602
473548;13429
473556;13341
473564;13311
473572;13331
473580;13335
473588;13394
473597;13437
473605;13500
473613;13556
473621;13583
473629;13569
473638;13587
473646;13583
473654;13571
473665;13559
473673;13518
473682;13986
473690;13527
473698;10735
473706;6422
473714;4993
473723;10611
473731;15466
473739;15466
473747;14788
473755;14500
473764;14335
473772;14109
473780;13953
473788;13841
473796;13709
473805;13661
473813;13586
473821;13505
473829;13452
473837;13351
473846;13256
473854;13138
473862;13004
473870;12870
473878;12687
473886;12514
473895;12262
473903;12032
473911;11840
473919;11797
473927;11798
473936;11871
473944;11983
473952;12265
473963;12881
473971;13427
473980;13854
473988;14165
473996;14411
474004;14591
474012;14682
474021;14743
474029;14682
474037;14641
474045;14548
474053;14489
474062;14424
474070;14368
474078;14278
474086;14184
474094;14122
474103;14104
474111;14061
474119;14067
474127;14037
474135;13975
474143;13952
474152;13965
474160;13947
474168;13942
474176;13887
474184;13918
474193;13917
474201;13914
474209;13895
474217;13906
474225;13897
474234;13893
474242;13879
474250;13869
474258;13822
474269;13862
474278;13871
474286;13859
474294;13746
474302;13614
474310;13452
474319;13422
474327;13352
474335;13378
474343;13376
474351;13415
474360;13484
474368;13596
474376;13690
474384;13731
474392;13736
474401;13729
474409;13725
474417;13685
474425;13597
474433;13512
474441;13928
474450;13520
474458;10787
474466;6695
474474;5223
474482;10989
474491;15611
474499;15417
474507;14631
474515;14279
474523;14119
474532;13870
474540;13718
474548;13647
474556;13539
474564;13506
474576;13485
474584;13472
474592;13405
474600;13318
474608;13202
474617;13080
474625;12958
474633;12829
474641;12659
474649;12434
474658;12163
474666;11923
474674;11754
474682;11694
474690;11694
474698;11810
474707;11961
474715;12264
474723;12700
474731;13175
474739;13604
474748;13921
474756;14144
474764;14309
474772;14407
474780;14464
474789;14473
474797;14466
474805;14449
474813;14383
474821;14277
474830;14225
474838;14178
474846;14140
474854;14104
474862;14067
474874;14143
474882;14173
474890;14095
474898;14040
474906;13994
474915;13974
474923;13983
474931;13953
474939;13951
474947;13931
474956;13916
474964;13882
474972;13888
474980;13898
474988;13863
474996;13821
475005;13810
475013;13830
475021;13864
475029;13892
475037;13819
475046;13689
475054;13563
475062;13530
475070;13550
475078;13583
475087;13532
475095;13517
475103;13560
475111;13651
475119;13722
475128;13737
475136;13781
475144;13751
475152;13744
475160;13722
475169;13706
475180;13848
475188;14269
475196;12464
475204;8430
475213;5531
475221;8134
475229;15263
475237;15979
475245;15247
475254;14633
475262;14440
475270;14160
475278;13956
475286;13841
475294;13751
475303;13696
475311;13566
475319;13481
475327;13363
475335;13274
475344;13185
475352;13102
475360;13002
475368;12886
475376;12688
475385;12501
475393;12253
475401;11998
475409;11760
475417;11660
475426;11690
475434;11780
475442;11929
475450;12176
475459;12477
475468;12919
475476;13358
475486;13974
475494;14289
475502;14457
475511;14505
475519;14551
475527;14538
475535;14500
475543;14441
475551;14398
475560;14333
475568;14310
475576;14261
475584;14213
475592;14149
475602;14127
475610;14075
475618;14022
475626;13968
475634;13962
475643;13949
475651;13973
475659;13996
475667;14024
475675;14044
475684;14048
475692;14036
475700;14035
475708;13984
475716;13986
475725;13965
475733;13949
475741;13895
475749;13896
475757;13893
475766;13916
475774;13828
475785;13697
475793;13594
475801;13556
475810;13559
475818;13570
475826;13553
475834;13574
475842;13646
475850;13772
475859;13838
475867;13824
475875;13814
475883;13805
475891;13816
475900;13739
475908;13640
475916;13727
475924;14223
475932;12591
475941;8638
475949;5651
475957;7879
475965;15211
475973;16003
475982;15275
475990;14625
475998;14405
476006;14126
476014;13922
476023;13789
476031;13682
476039;13593
476047;13501
476055;13446
476063;13390
476072;13331
476080;13276
476091;13210
476099;13161
476108;13013
476116;12813
476124;12578
476132;12351
476140;12073
476148;11853
476157;11765
476165;11750
476173;11806
476181;11956
476189;12161
476198;12541
476206;12937
476214;13336
476222;13688
476230;13976
476239;14175
476247;14294
476255;14339
476263;14394
476271;14380
476280;14352
476288;14269
476296;14205
476304;14121
476312;14067
476321;14007
476329;13962
476337;13962
476345;13925
476353;13908
476361;13885
476370;13892
476378;13868
476389;13911
476397;13984
476406;13991
476414;13995
476422;13929
476430;13892
476438;13925
476446;13925
476455;13880
476463;13873
476471;13892
476479;13911
476487;13898
476496;13906
476504;13806
476512;13650
476520;13453
476528;13378
476537;13381
476545;13402
476553;13387
476561;13409
476569;13505
476578;13597
476586;13700
476594;13710
476602;13704
476610;13677
476618;13638
476627;13602
476635;13582
476643;13458
476651;14113
476659;13215
476668;9892
476676;6214
476684;6054
476695;15306
476703;16056
476712;15284
476720;14603
476728;14348
476736;14095
476744;13877
476753;13791
476761;13688
476769;13654
476777;13646
476785;13589
476794;13516
476802;13490
476810;13424
476818;13350
476826;13255
476835;13145
476843;12985
476851;12793
476859;12531
476867;12270
476876;11996
476884;11939
476892;11934
476900;12003
476908;12134
476916;12355
476925;12646
476933;13040
476941;13475
476949;13843
476957;14064
476966;14261
476974;14378
476982;14410
476990;14403
477001;14447
477010;14391
477018;14264
477026;14155
477034;14045
477042;13954
477051;13921
477059;13865
477067;13820
477075;13741
477083;13718
477092;13741
477100;13757
477108;13709
477116;13678
477124;13613
477133;13613
477141;13609
477149;13592
477157;13605
477165;13596
477174;13599
477182;13625
477191;13666
477199;13671
477207;13678
477215;13634
477224;13498
477232;13337
477240;13287
477248;13288
477256;13331
477265;13335
477273;13341
477281;13402
477289;13528
477299;13699
477308;13721
477316;13690
477324;13652
477333;13646
477341;13610
477350;13569
477358;13471
477366;14177
477374;13095
477382;9468
477391;5881
477399;6321
477407;13973
477415;16072
477423;15470
477432;14767
477440;14479
477448;14248
477456;14015
477464;13931
477473;13833
477481;13782
477489;13708
477497;13666
477505;13595
477513;13529
477522;13425
477530;13340
477538;13234
477546;13119
477554;12983
477563;12778
477571;12546
477579;12335
477587;12107
477595;11966
477607;12042
477615;12175
477623;12288
477631;12503
477639;12824
477648;13241
477656;13649
477664;14022
477672;14306
477680;14557
477689;14688
477697;14710
477705;14686
477713;14692
477721;14653
477730;14618
477738;14542
477746;14489
477754;14433
477762;14398
477770;14367
477779;14326
477787;14282
477795;14230
477803;14161
477811;14106
477820;14091
477828;14056
477836;14009
477844;14003
477852;13958
477861;13941
477869;13901
477877;13849
477885;13836
477893;13848
477902;13844
477913;13866
477921;13887
477929;13821
477937;13685
477946;13457
477954;13394
477962;13383
477970;13424
477978;13439
477987;13482
477995;13529
478003;13631
478011;13729
478019;13772
478028;13752
478036;13741
478044;13753
478052;13772
478060;13707
478068;13641
478077;13896
478085;14108
478093;11878
478101;7738
478109;5304
478118;9336
478126;15756
478134;15865
478142;15073
478150;14464
478159;14259
478167;13999
478175;13833
478183;13762
478191;13641
478200;13566
478208;13526
478219;13526
478227;13570
478235;13526
478244;13434
478252;13314
478260;13146
478268;12981
478276;12771
478285;12538
478293;12257
478301;12059
478309;11932
478317;11907
478326;11955
478334;12080
478342;12221
478350;12466
478358;12820
478366;13285
478375;13704
478383;14041
478391;14256
478399;14449
478407;14551
478416;14593
478424;14580
478432;14539
478440;14469
478448;14452
478457;14384
478465;14347
478473;14285
478481;14226
478489;14174
478498;14170
478506;14084
478525;14357
478533;14381
478542;14285
478550;14227
478558;14175
478566;14155
478574;14101
478583;14037
478591;13977
478599;13936
478607;13924
478615;13920
478623;13902
478632;13868
478640;13759
478648;13575
478656;13449
478664;13430
478673;13443
478681;13454
478689;13418
478697;13473
478705;13508
478714;13581
478722;13591
478730;13574
478738;13556
478746;13585
478755;13557
478763;13545
478771;13492
478779;13513
478787;14143
478796;12707
478804;8815
478812;5468
478820;6924
478831;15794
478840;15838
478848;15049
478856;14484
478864;14268
478872;13937
478881;13760
478889;13657
478897;13596
478905;13500
478913;13456
478921;13375
478930;13292
478938;13159
478946;13109
478954;12993
478962;12877
478971;12730
478979;12571
478987;12353
478995;12160
479003;11949
479012;11768
479020;11725
479028;11778
479036;11872
479044;12028
479053;12208
479061;12556
479069;12969
479077;13360
479085;13732
479094;14035
479102;14176
479110;14249
479118;14298
479129;14446
479138;14513
479146;14485
479154;14411
479162;14375
479170;14336
479178;14283
479187;14227
479195;14170
479203;14108
479211;14108
479219;14072
479228;14082
479236;14066
479244;14067
479252;14022
479260;13991
479269;13980
479277;14011
479285;14001
479293;13981
479301;13956
479310;13970
479318;14018
479326;13965
479334;13914
479342;13736
479351;13634
479359;13624
479367;13649
479375;13676
479383;13720
479391;13788
479400;13884
479408;13985
479416;14019
479424;14000
479436;14001
479444;14040
479452;13992
479460;13888
479468;13776
479476;14019
479485;14174
479493;11848
479501;7608
479509;5094
479517;9487
479526;15802
479534;15882
479542;15145
479550;14618
479558;14439
479567;14182
479575;13962
479583;13829
479591;13710
479599;13637
479608;13566
479616;13511
479624;13373
479632;13274
479640;13149
479649;13031
479657;12884
479665;12726
479673;12519
479681;12339
479689;12085
479698;11854
479706;11654
479714;11602
479722;11622
479730;11759
479742;12045
479750;12365
479758;12725
479766;13176
479774;13575
479783;13912
479791;14140
479799;14275
479807;14331
479815;14383
479824;14351
479832;14372
479840;14277
479848;14215
479856;14109
479865;14052
479873;13972
479882;13934
479890;13908
479898;13951
479907;13940
479915;13978
479923;13912
479931;13899
479939;13887
479948;13902
479956;13899
479964;13918
479972;13915
479980;13922
479988;13948
479997;14003
480005;14027
480013;13999
480021;13933
480029;13800
480041;13667
480049;13693
480057;13658
480065;13674
480073;13725
480082;13747
480090;13818
480098;13877
480106;13876
480114;13881
480123;13848
480131;13804
480139;13742
480147;13698
480155;13613
480164;13780
480172;14199
480180;12267
480188;8022
480196;4962
480205;8148
480213;15335
480221;15792
480229;15064
