Tempo (ms);Valor
480263;14499
480271;14343
480280;14117
480289;13924
480297;13719
480305;13533
480313;13352
480321;13185
480329;13070
480338;12947
480346;12853
480354;12731
480362;12507
480370;12301
480379;12084
480387;11870
480395;11698
480403;11706
480411;11764
480420;11846
480428;11930
480436;12094
480444;12408
480452;12857
480461;13314
480469;13707
480477;13949
480485;14163
480493;14294
480502;14353
480510;14396
480518;14415
480526;14378
480534;14320
480542;14249
480551;14209
480562;14160
480570;14190
480578;14063
480586;14049
480595;14074
480603;14071
480611;14108
480619;14168
480627;14284
480636;14401
480644;14421
480652;14449
480660;14455
480668;14466
480677;14438
480685;14389
480693;14242
480701;14132
480709;14037
480718;14003
480726;13926
480734;13918
480742;13903
480750;13901
480759;13878
480767;13829
480775;13727
480783;13645
480791;13574
480799;13504
480808;13402
480816;13271
480824;13143
480832;13393
480840;13349
480849;10921
480860;5561
480868;5056
480876;12709
480884;15618
480893;15056
480901;14386
480909;14175
480917;14103
480925;13869
480934;13759
480942;13718
480950;13701
480958;13669
480966;13597
480975;13466
480983;13349
480991;13248
480999;13132
481007;13022
481016;12926
481024;12732
481032;12528
481040;12248
481048;11997
481057;11778
481065;11707
481073;11751
481081;11871
481089;11970
481097;12219
481106;12496
481114;12848
481122;13240
481130;13662
481138;14027
481147;14296
481155;14460
481166;14671
481174;14731
481182;14710
481191;14702
481199;14699
481207;14610
481215;14573
481223;14533
481232;14568
481240;14528
481248;14494
481256;14427
481264;14390
481273;14381
481281;14360
481289;14320
481297;14349
481305;14348
481314;14308
481322;14255
481330;14125
481338;14023
481346;13944
481354;13908
481363;13895
481371;13942
481379;14020
481387;14044
481395;14136
481404;14191
481412;14202
481420;14145
481428;14170
481436;14169
481445;14197
481453;14182
481461;14129
481472;14163
481480;14595
481489;12698
481497;8724
481505;6197
481513;8816
481521;16237
481530;16638
481538;15876
481546;15224
481554;14783
481562;14548
481571;14201
481579;14019
481587;13877
481595;13774
481603;13714
481612;13598
481620;13501
481628;13414
481636;13279
481644;13156
481652;13023
481661;12913
481669;12720
481677;12505
481685;12242
481693;12003
481702;11827
481710;11762
481718;11816
481726;11904
481734;12071
481743;12306
481751;12661
481759;13105
481770;13717
481778;14106
481787;14319
481795;14433
481803;14451
481811;14480
481819;14573
481828;14584
481836;14562
481844;14566
481852;14518
481860;14468
481869;14417
481877;14342
481885;14269
481893;14215
481901;14104
481910;14043
481918;14033
481926;14017
481934;13952
481942;13944
481950;13887
481959;13787
481967;13717
481975;13744
481983;13724
481991;13711
482000;13783
482008;13854
482016;13963
482024;14047
482032;14059
482041;14000
482049;13974
482057;13926
482065;13872
482076;13898
482085;13884
482093;13775
482101;14288
482109;13325
482117;9945
482126;6815
482134;6598
482142;13972
482150;16688
482158;15956
482167;15268
482175;14585
482183;14279
482191;13951
482199;13793
482207;13678
482216;13578
482224;13478
482232;13416
482240;13326
482248;13265
482257;13205
482265;13129
482274;12976
482282;12867
482290;12664
482299;12450
482307;12235
482315;11961
482323;11737
482331;11565
482340;11544
482348;11634
482356;11792
482364;11973
482372;12293
482384;13015
482392;13443
482400;13798
482408;14071
482416;14258
482425;14340
482433;14409
482441;14429
482449;14472
482457;14487
482466;14466
482474;14445
482482;14414
482490;14352
482498;14302
482506;14219
482515;14209
482523;14164
482531;14129
482539;14079
482547;14076
482556;14113
482564;14112
482572;14020
482580;13991
482588;13871
482597;13766
482605;13736
482613;13738
482621;13744
482629;13768
482638;13784
482646;13876
482654;13988
482662;14018
482670;13988
482682;14023
482690;14027
482698;14013
482706;13900
482714;13828
482723;13706
482731;14031
482739;13748
482747;11142
482755;7188
482764;5169
482772;10460
482780;15979
482788;15823
482796;15259
482804;14659
482813;14378
482821;14067
482829;13808
482837;13680
482845;13606
482854;13531
482862;13460
482870;13410
482878;13348
482886;13341
482895;13224
482903;13095
482911;12968
482919;12855
482927;12677
482936;12427
482944;12130
482952;11876
482960;11697
482968;11674
482977;11712
482988;11882
482996;12150
483004;12484
483012;12921
483021;13320
483029;13714
483037;13978
483045;14168
483053;14279
483062;14362
483070;14355
483078;14334
483086;14355
483094;14369
483102;14317
483111;14253
483119;14214
483127;14151
483135;14129
483143;14095
483152;14075
483160;14089
483168;14078
483176;14090
483184;14085
483193;14120
483201;14158
483209;14185
483217;14272
483225;14225
483234;14176
483242;14040
483250;13905
483258;13750
483266;13764
483274;13756
483283;13817
483294;13913
483302;14030
483310;14111
483319;14093
483327;14073
483335;14067
483343;14062
483351;14009
483359;13936
483368;13889
483376;13768
483384;13849
483392;14251
483400;12301
483409;8131
483417;4932
483425;6923
483433;14659
483441;15889
483450;15453
483458;14823
483466;14563
483474;14232
483482;13972
483491;13821
483499;13716
483507;13619
483515;13551
483523;13472
483532;13404
483540;13343
483548;13261
483556;13116
483564;13019
483572;12883
483581;12740
483592;12485
483600;12297
483608;12017
483617;11830
483625;11776
483633;11783
483641;11846
483649;12007
483657;12315
483666;12737
483674;13195
483682;13651
483690;13947
483698;14188
483707;14321
483715;14393
483723;14376
483731;14347
483739;14297
483748;14271
483756;14195
483764;14115
483772;14057
483780;14046
483789;13983
483797;13960
483805;13932
483813;13930
483821;13894
483830;13861
483838;13821
483846;13805
483854;13823
483862;13835
483870;13835
483879;13829
483887;13842
483898;13939
483906;13963
483914;13930
483923;13866
483931;13735
483939;13535
483947;13512
483955;13519
483964;13575
483972;13527
483980;13554
483988;13610
483996;13672
484005;13703
484013;13705
484021;13660
484029;13640
484037;13613
484046;13632
484054;13568
484062;13501
484070;13485
484078;14012
484087;12422
484095;8393
484103;4576
484111;5409
484119;13114
484127;15508
484136;15179
484144;14659
484152;14441
484160;14158
484168;13897
484177;13797
484185;13739
484193;13667
484204;13658
484212;13630
484221;13550
484229;13474
484237;13360
484245;13269
484253;13128
484262;12978
484270;12789
484278;12569
484286;12300
484294;12118
484303;11937
484311;11833
484319;11820
484327;11861
484335;12008
484344;12266
484352;12667
484360;13135
484368;13593
484376;13959
484385;14274
484393;14466
484401;14579
484409;14596
484417;14650
484425;14629
484434;14597
484442;14603
484450;14580
484458;14553
484466;14481
484475;14402
484483;14369
484491;14304
484502;14265
484510;14293
484519;14239
484527;14202
484535;14196
484543;14127
484551;14068
484560;14036
484568;13976
484576;13977
484584;13952
484592;13924
484601;13904
484609;13875
484617;13863
484625;13854
484633;13836
484642;13817
484650;13769
484658;13655
484666;13496
484674;13427
484682;13380
484691;13412
484699;13468
484707;13474
484715;13584
484723;13660
484732;13780
484740;13825
484748;13835
484756;13807
484764;13818
484773;13797
484781;13794
484789;13718
484797;13673
484808;14336
484817;13543
484825;10203
484833;6027
484841;5283
484849;11769
484858;15645
484866;15587
484874;14989
484882;14696
484890;14423
484899;14137
484907;13984
484915;13915
484923;13830
484931;13779
484940;13688
484948;13655
484956;13575
484964;13499
484972;13408
484980;13330
484989;13203
484997;13062
485005;12834
485013;12628
485021;12400
485030;12167
485038;11946
485046;11881
485054;11852
485062;11940
485071;12050
485079;12322
485087;12769
485095;13289
485103;13706
485115;14207
485123;14431
485131;14543
485139;14592
485147;14580
485156;14532
485164;14479
485172;14429
485180;14402
485188;14311
485197;14236
485205;14196
485213;14166
485221;14089
485229;14047
485238;13972
485246;13967
485254;13915
485262;13901
485270;13900
485278;13880
485287;13859
485295;13905
485303;13898
485311;13928
485319;13908
485328;13924
485336;13929
485345;13896
485353;13869
485361;13842
485370;13833
485378;13838
485386;13859
485394;13860
485402;13839
485413;13884
485421;13837
485429;13690
485437;13521
485446;13459
485455;13435
485463;13469
485471;13435
485479;13410
485487;13418
485496;13472
485504;13521
485512;13547
485520;13545
485528;13546
485537;13517
485545;13512
485553;13480
485561;13422
485569;13498
485577;13921
485586;12351
485594;8541
485602;5379
485610;6810
485618;14141
485627;15659
485635;15186
485643;14621
485651;14409
485659;14138
485668;13946
485676;13862
485684;13766
485692;13697
485700;13606
485709;13527
485720;13519
485728;13507
485736;13399
485744;13315
485753;13200
485761;13111
485769;12954
485777;12796
485785;12613
485794;12436
485802;12254
485810;12154
485818;12149
485826;12255
485834;12370
485843;12590
485851;12948
485859;13367
485867;13779
485875;14125
485884;14417
485892;14642
485900;14768
485908;14824
485916;14795
485925;14722
485933;14638
485941;14546
485949;14479
485957;14414
485966;14380
485974;14294
485982;14233
485990;14147
485998;14123
486007;14085
486015;14040
486026;14009
486034;13994
486042;13938
486051;13918
486059;13900
486067;13870
486075;13680
486083;13500
486092;13467
486100;13461
486108;13404
486116;13291
486124;13149
486132;13010
486141;12909
486149;12858
486157;12821
486165;12813
486173;12773
486182;12682
486190;12557
486198;12545
486206;12596
486214;12722
486223;12847
486231;12898
486239;12876
486247;12925
486255;12917
486264;12927
486272;12826
486280;12801
486288;12828
486296;12928
486305;12990
486313;13078
486324;13441
486332;13633
486340;11413
486349;7154
486357;4206
486365;7386
486373;14349
486381;15029
486390;14413
486398;14030
486406;13961
486414;13767
486422;13659
486430;13659
486439;13672
486447;13729
486455;13740
486463;13657
486471;13536
486480;13453
486488;13329
486496;13203
486504;13027
486512;12830
486521;12643
486529;12401
486537;12079
486545;11745
486553;11501
486562;11367
486570;11385
486578;11441
486586;11487
486594;11620
486602;11997
486611;12511
486619;13039
486630;13779
486638;14218
486647;14484
486655;14687
486663;14863
486671;14976
486679;15067
486687;15126
486696;15148
486704;15153
486712;15118
486720;15067
486728;15015
486737;14975
486745;14925
486753;14834
486761;14760
486769;14744
486778;14730
486786;14702
486794;14666
486802;14664
486810;14690
486819;14688
486827;14700
486835;14720
486843;14716
486851;14733
486860;14731
486868;14722
486876;14674
486884;14570
486892;14474
486900;14437
486909;14409
486917;14401
486925;14433
486936;14541
486945;14636
486953;14652
486961;14620
486969;14545
486977;14525
486985;14486
486994;14421
487002;14366
487010;14282
487018;14199
487026;14554
487035;14421
487043;11720
487051;7821
487059;6065
487067;11469
487076;16818
487084;16381
487092;15605
487100;14940
487108;14570
487117;14337
487125;14116
487133;13971
487141;13916
487149;13816
487158;13688
487166;13559
487174;13458
487182;13360
487190;13254
487198;13131
487207;13005
487215;12850
487223;12601
487234;12330
487242;12107
487251;11832
487259;11623
487267;11544
487275;11567
487283;11645
487292;11829
487300;12132
487308;12565
487316;13030
487324;13478
487333;13837
487341;14077
487349;14257
487357;14328
487365;14365
487374;14393
487382;14383
487390;14338
487398;14306
487406;14228
487415;14158
487423;14091
487431;14048
487439;14021
487447;13958
487455;13871
487464;13876
487472;13861
487480;13818
487488;13778
487496;13810
487505;13822
487513;13853
487521;13862
487529;13895
487540;13950
487549;13930
487557;13796
487565;13677
487573;13630
487581;13615
487590;13629
487598;13672
487606;13730
487614;13809
487622;13869
487631;13915
487639;13884
487647;13849
487655;13773
487663;13733
487672;13690
487680;13687
487688;13572
487696;14048
487704;13679
487713;10740
487721;6685
487729;5061
487737;11313
487745;16082
487753;15701
487762;15032
487770;14467
487778;14261
487786;14027
487794;13844
487803;13703
487811;13576
487819;13475
487827;13402
487835;13284
487847;13212
487855;13112
487863;13007
487871;12882
487879;12760
487888;12579
487896;12383
487904;12192
487912;11983
487920;11714
487929;11568
487937;11519
487945;11569
487953;11649
487961;11862
487970;12153
487978;12569
487986;13007
487994;13399
488002;13735
488010;14006
488019;14139
488027;14232
488035;14259
488043;14263
488051;14256
488060;14255
488068;14236
488076;14203
488084;14157
488092;14112
488101;14034
488109;13957
488117;13919
488125;13881
488133;13841
488145;13937
488153;13947
488161;13943
488169;13928
488177;13909
488186;13884
488194;13905
488202;13926
488210;13941
488218;13884
488227;13816
488235;13737
488243;13626
488251;13615
488259;13580
488268;13590
488276;13662
488284;13741
488292;13831
488300;13850
488308;13835
488317;13791
488325;13809
488333;13815
488341;13830
488349;13794
488358;13732
488366;13801
488374;14443
488382;12835
488390;8837
488399;5245
488407;6616
488416;14321
488424;15962
488432;15432
488441;14863
488451;14643
488459;14429
488467;14215
488475;14061
488484;13943
488492;13824
488500;13753
488508;13663
488516;13596
488525;13507
488533;13446
488541;13357
488549;13213
488558;13059
488567;12866
488575;12694
488583;12472
488591;12252
488599;12117
488607;12067
488616;12104
488624;12228
488632;12376
488640;12562
488648;12841
488657;13214
488665;13646
488673;13939
488681;14128
488689;14238
488698;14247
488706;14245
488714;14197
488722;14173
488730;14177
488739;14101
488750;14089
488758;14102
488766;14036
488774;13966
488783;13922
488791;13898
488799;13912
488807;13970
488815;14020
488824;14018
488832;14012
488840;13990
488848;13988
488856;13999
488865;13984
488873;13954
488881;13925
488889;13920
488897;13898
488905;13798
488914;13645
488922;13513
488930;13437
488938;13391
488946;13372
488955;13456
488963;13563
488971;13654
488979;13749
488987;13787
488996;13797
489004;13796
489012;13775
489020;13718
489028;13723
489037;13695
489045;13634
489056;14202
489064;13685
489072;10540
489081;6287
489089;4896
489097;10912
489105;15560
489113;15563
489122;14870
489130;14570
489138;14310
489146;14038
489154;13839
489162;13710
489171;13610
489179;13531
489187;13408
489195;13276
489203;13164
489212;13088
489220;12999
489228;12924
489236;12833
489244;12711
489253;12483
489261;12301
489269;12117
489277;11906
489285;11719
489294;11660
489302;11662
489310;11767
489318;11894
489326;12163
489335;12573
489343;13050
489351;13416
489362;13917
489370;14180
489379;14286
489387;14308
489395;14314
489403;14280
489411;14273
489420;14209
489428;14201
489436;14150
489444;14128
489452;14141
489460;14193
489469;14197
489477;14201
489485;14206
489493;14249
489501;14266
489510;14319
489518;14284
489526;14235
489534;14183
489542;14125
489551;13978
489559;13891
489567;13862
489575;13875
489583;13934
489592;14020
489600;14107
489608;14197
489616;14262
489624;14308
489633;14271
489641;14230
489649;14162
489660;14212
489668;14202
489677;14146
489685;14003
489693;14522
489701;13731
489709;10580
489718;7150
489726;6484
489734;13547
489742;17158
489750;16576
489758;15878
489767;15195
489775;14928
489783;14636
489791;14422
489799;14313
489808;14222
489816;14109
489824;14015
489832;13960
489840;13923
489849;13789
489857;13661
489865;13479
489873;13329
489881;13157
489890;12975
489898;12756
489906;12521
489914;12239
489922;12066
489930;11994
489939;12004
489947;12073
489955;12195
489966;12582
489975;13001
489983;13361
489991;13713
489999;13988
490007;14216
490015;14373
490024;14459
490032;14482
490040;14478
490048;14507
490056;14485
490065;14413
490073;14355
490081;14329
490089;14275
490097;14262
490106;14224
490114;14183
490122;14103
490130;14084
490138;14047
490147;14015
490155;14023
490163;13963
490171;13900
490179;13779
490188;13643
490196;13577
490204;13514
490212;13496
490220;13511
490228;13505
490237;13481
490245;13528
490253;13553
490261;13540
490273;13563
490281;13593
490289;13526
490297;13470
490305;13450
490313;13415
490322;13365
490330;13981
490338;12838
490346;9098
490354;5442
490363;5609
490371;13371
490379;15615
490387;15090
490395;14432
490404;14136
490412;14003
490420;13745
490428;13628
490436;13531
490445;13462
490453;13367
490461;13333
490469;13284
490477;13278
490486;13170
490494;13064
490502;12945
490510;12835
490518;12665
490526;12471
490535;12237
490543;12009
490551;11766
490559;11646
490570;11693
490579;11843
490587;11925
490595;12126
490603;12413
490611;12794
490620;13120
490628;13472
490636;13749
490644;13946
490652;14048
490661;14101
490669;14101
490677;14095
490685;14063
490693;14010
490702;13972
490710;13942
490718;13901
490726;13863
490734;13792
490743;13748
490751;13668
490759;13645
490767;13616
490775;13629
490783;13655
490792;13716
490800;13738
490808;13784
490816;13732
490824;13717
490833;13628
490841;13522
490849;13438
490857;13438
490865;13429
490877;13569
490885;13640
490893;13733
490901;13799
490909;13852
490918;13826
490926;13814
490934;13780
490942;13772
490950;13731
490959;13690
490967;13569
490975;13517
490983;14153
490991;12879
491000;9034
491008;5015
491016;5589
491024;13519
491032;15633
491041;15147
491049;14557
491057;14364
491065;14124
491073;13917
491081;13810
491090;13744
491098;13663
491106;13575
491114;13509
491122;13413
491132;13274
491140;13146
491148;13055
491156;12922
491164;12732
491173;12596
491183;12392
491191;12314
491199;12144
491207;12044
491216;12007
491224;12062
491232;12203
491241;12402
491249;12685
491258;13039
491266;13442
491274;13895
491282;14270
491290;14515
491299;14640
491307;14738
491315;14787
491323;14842
491331;14852
491340;14808
491348;14688
491356;14607
491364;14553
491372;14539
491380;14479
491389;14446
491397;14413
491405;14408
491413;14371
491421;14347
491430;14356
491438;14334
491446;14300
491454;14281
491462;14261
491471;14280
491482;14280
491490;14316
491498;14181
491506;14021
491515;13853
491523;13821
491531;13785
491539;13819
491547;13759
491556;13684
491564;13698
491572;13814
491580;13881
491588;13854
491597;13766
491605;13710
491613;13688
491621;13622
491629;13610
491638;13535
491646;13486
491654;14043
491662;13695
491670;10671
491678;6324
491687;4671
491695;10858
491703;15620
491711;15391
491719;14628
491728;14290
491736;14103
491744;13870
491752;13780
491760;13786
491769;13768
491777;13757
491788;13762
491796;13741
491804;13632
491813;13552
491821;13359
491829;13238
491837;13088
491845;12898
491854;12651
491862;12401
491870;12162
491878;12042
491886;11917
491895;11888
491903;11920
491911;12041
491919;12223
491927;12556
491935;12951
491944;13411
491952;13807
491960;14116
491968;14268
491976;14398
491985;14487
491993;14559
492001;14579
492009;14576
492017;14545
492026;14504
492034;14457
492042;14409
492050;14341
492058;14289
492067;14229
492075;14195
492083;14176
492094;14234
492102;14211
492111;14181
492119;14131
492127;14120
492135;14041
492143;14018
492152;13914
492160;13887
492168;13858
492176;13819
492184;13761
492193;13666
492201;13495
492209;13378
492217;13336
492225;13359
492233;13376
492242;13438
492250;13453
492258;13570
492266;13658
492274;13681
492283;13677
492291;13630
492299;13596
492307;13591
492315;13583
492324;13541
492332;13493
492340;13536
492348;14144
492356;12660
492365;8703
492373;5122
492381;6548
492392;15567
492400;15756
492409;15052
492417;14580
492425;14442
492433;14195
492441;14061
492450;13952
492458;13879
492466;13802
492474;13752
492482;13730
492490;13699
492499;13597
492507;13517
492515;13416
492523;13271
492531;13065
492540;12849
492548;12674
492556;12434
492564;12185
492572;12035
492581;11958
492589;11951
492597;11960
492605;12037
492613;12178
492622;12489
492630;12906
492638;13325
492646;13717
492654;14048
492663;14274
492671;14423
492679;14526
492687;14581
492698;14641
492707;14675
492715;14604
492723;14549
492731;14539
492739;14504
492748;14403
492756;14314
492764;14255
492772;14174
492780;14107
492788;14077
492797;14033
492805;14017
492813;14023
492821;13995
492829;13955
492838;13896
492846;13835
492854;13806
492862;13844
492870;13856
492879;13886
492887;13864
492895;13745
492903;13543
492911;13470
492920;13507
492928;13586
492936;13611
492944;13625
492952;13682
492961;13768
492969;13846
492977;13916
492985;13951
492993;13989
493005;14041
493013;14085
493021;14016
493029;13933
493037;13821
493046;14487
493054;13324
493062;9555
493070;5752
493078;6176
493086;13851
493095;15962
493103;15339
493111;14662
493119;14370
493127;14152
493136;13876
493144;13744
493152;13646
493160;13592
493168;13496
493177;13399
493185;13276
493193;13210
493201;13084
493209;13000
493218;12895
493226;12800
493234;12653
493242;12464
493250;12279
493258;12053
493267;11854
493275;11736
493283;11687
493291;11775
493303;11987
493311;12208
493319;12482
493327;12886
493335;13298
493343;13661
493352;13945
493360;14186
493368;14329
493376;14381
493384;14365
493393;14346
493401;14274
493409;14225
493417;14170
493425;14134
493434;14098
493442;14077
493450;14053
493458;14069
493466;14067
493475;14045
493483;14025
493491;14059
493499;14065
493507;14080
493516;14080
493524;14087
493532;14081
493540;14056
493548;13989
493556;13943
493565;13934
493573;13943
493581;13975
493589;14024
493597;13965
493609;13900
493617;13784
493625;13696
493633;13679
493641;13684
493650;13675
493658;13763
493666;13833
493674;13883
493682;13904
493691;13876
493699;13846
493707;13774
493715;13708
493723;13624
493732;13540
493740;13455
493748;13641
493756;13902
493764;11859
493773;7902
493781;5202
493789;8599
493797;15331
493805;15595
493814;14817
493823;14157
493831;13976
493839;13653
493847;13494
493855;13422
493864;13350
493872;13250
493880;13184
493888;13130
493896;13057
493905;13009
493915;12908
493923;12849
493931;12740
493939;12598
493949;12499
493957;12404
493965;12273
493973;12179
493981;12129
493990;12138
493998;12231
494006;12464
494014;12688
494022;12954
494031;13290
494039;13653
494047;13981
494055;14282
494063;14443
494072;14558
494080;14641
494088;14689
494096;14677
494104;14601
494113;14594
494121;14603
494129;14595
494137;14548
494145;14530
494153;14460
494162;14372
494170;14294
494178;14300
494186;14189
494194;14121
494203;14037
494214;13924
494222;13823
494230;13743
494238;13678
494247;13585
494255;13607
494263;13645
494271;13644
494279;13650
494288;13650
494296;13564
494304;13389
494312;13339
494320;13312
494329;13348
494337;13267
494345;13274
494353;13321
494361;13392
494370;13435
494378;13487
494386;13505
494394;13580
494402;13629
494410;13717
494419;13728
494427;13746
494435;14003
494443;14563
494451;12475
494460;8161
494468;4843
494476;8267
494484;15683
494492;16141
494501;15417
494509;14919
494520;14729
494528;14474
494536;14222
494545;14077
494553;13903
494561;13822
494569;13710
494577;13579
494586;13446
494594;13292
494602;13158
494610;13053
494618;12931
494627;12813
494635;12649
494643;12488
494651;12203
494659;11939
494668;11782
494676;11755
494684;11778
494692;11870
494700;12030
494708;12284
494717;12597
494725;13029
494733;13418
494741;13789
494749;14065
494758;14224
494766;14300
494774;14346
494782;14365
494790;14343
494799;14324
494807;14303
494815;14255
494826;14256
494834;14219
494843;14172
494851;14157
494859;14129
494867;14050
494875;14019
494884;14018
494892;14040
494900;14037
494908;14050
494916;14048
494925;14084
494933;14085
494941;14136
494949;14088
494957;14109
494966;14063
494974;13950
494982;13777
494990;13707
494998;13777
495006;13818
495015;13809
495023;13878
495031;13974
495039;14062
495047;14179
495056;14226
495064;14164
495072;14119
495080;14101
495088;14135
495097;14104
495105;14036
495113;13935
495124;14724
495132;13286
495141;9180
495149;5660
495157;7263
495165;15203
495173;16315
495182;15609
495190;14961
495198;14668
495206;14521
495214;14289
495223;14182
495231;14135
495239;14077
495247;14014
495255;13971
495263;13908
495272;13844
495280;13784
495288;13716
495296;13605
495304;13530
495313;13475
495321;13317
495329;13024
495337;12725
495345;12396
495354;12190
495362;12143
495370;12174
495378;12277
495386;12442
495395;12752
495403;13104
495411;13512
495419;13842
495430;14181
495439;14396
495447;14456
495455;14479
495463;14472
495471;14488
495480;14467
495488;14385
495496;14341
495504;14290
495512;14233
495521;14169
495529;14117
495537;14052
495545;14050
495553;14044
495561;14098
495570;14141
495578;14140
495586;14116
495594;14070
495602;13928
495611;13803
495619;13764
495627;13746
495635;13752
495643;13802
495652;13826
495660;13923
495668;13955
495676;13930
495684;13917
495693;13917
495701;13909
495709;13904
495717;13877
495725;13838
495737;13797
495745;14070
495753;14235
495761;12009
495769;7900
495778;5276
495786;9316
495794;15968
495802;15966
495810;15278
495818;14635
495827;14371
495835;14091
495843;13880
495851;13751
495859;13632
495868;13499
495876;13445
495884;13393
495892;13356
495900;13262
495909;13174
495917;13076
495925;13007
495933;12818
495941;12620
495950;12388
495958;12170
495967;11943
495975;11750
495983;11662
495992;11694
496000;11841
496008;12022
496016;12279
496024;12676
496035;13338
496043;13802
496051;14072
496059;14285
496068;14382
496077;14445
496085;14450
496093;14462
496101;14426
496109;14372
496118;14293
496126;14284
496134;14218
496142;14169
496150;14133
496158;14135
496167;14125
496175;14131
496183;14115
496191;14115
496199;14106
496208;14082
496216;14041
496224;13926
496232;13742
496240;13614
496249;13588
496257;13596
496265;13647
496273;13741
496281;13812
496290;13923
496298;13995
496306;14000
496314;13975
496322;13924
496330;13864
496342;13914
496350;13939
496358;13897
496366;13764
496375;14259
496383;13815
496391;10971
496399;6855
496407;5242
496415;11743
496424;16125
496432;15735
496440;15051
496448;14622
496456;14454
496465;14176
496473;14018
496481;13934
496489;13853
496497;13765
496506;13700
496514;13584
496522;13496
496530;13409
496538;13286
496547;13177
496555;13051
496563;12869
496571;12665
496579;12419
496588;12193
496596;11998
496604;11853
496612;11842
496620;11939
496628;12071
496637;12243
496648;12701
496656;13146
496664;13527
496673;13869
496681;14100
496689;14263
496697;14315
496705;14303
496713;14244
496722;14205
496730;14139
496738;14049
496746;13972
496754;13940
496763;13951
496771;13919
496779;13902
496787;13862
496795;13863
496804;13847
496812;13868
496820;13861
496828;13846
496836;13854
496845;13863
496853;13797
496861;13745
496869;13570
496877;13438
496886;13371
496894;13351
496902;13314
496910;13408
496918;13517
496926;13667
496935;13807
496946;13918
496954;13959
496962;13825
496970;13732
496979;13667
496987;13620
496995;13536
497003;13409
497011;13606
497020;13996
497028;11961
497036;7591
497044;4186
497052;7392
497061;14805
497069;15545
497077;15008
497085;14542
497093;14299
497102;13837
497110;13517
497118;13257
497126;13055
497134;12852
497143;12760
497151;12655
497159;12688
497167;12724
497175;12778
497183;12811
497192;12802
497200;12655
497208;12464
497216;12280
497224;12123
497233;11947
497241;11840
497252;11884
497260;12047
497268;12147
497277;12365
497285;12627
497293;13031
497301;13429
497309;13824
497318;14166
497326;14428
497334;14525
497342;14602
497350;14551
497359;14503
497367;14443
497375;14368
497383;14282
497391;14208
497400;14071
497408;13966
497416;13898
497424;13900
497432;13930
497441;13936
497449;13954
497457;14007
497465;14024
497473;14078
497481;14133
497490;14169
497498;14175
497506;14197
497514;14112
497522;14001
497531;13739
497539;13613
497547;13608
497558;13738
497566;13776
497575;13774
497583;13809
497591;13891
497599;13938
497607;13945
497616;13938
497624;13962
497632;13943
497640;13928
497648;13900
497657;13878
497665;13806
497673;14507
497681;13591
497689;9976
497698;5677
497706;5375
497714;13070
497722;16008
497730;15615
497738;14994
497747;14837
497755;14657
497763;14396
497771;14266
497779;14173
497788;14113
497796;14024
497804;13919
497812;13812
497820;13730
497829;13618
497837;13505
497845;13396
497856;13236
497864;13081
497873;12855
497881;12597
497889;12357
497897;12142
497905;12092
497914;12118
497922;12192
497930;12281
497938;12481
497946;12815
497955;13198
497963;13548
497971;13904
497979;14216
497987;14402
497996;14512
498004;14543
498012;14525
498020;14492
498028;14425
498036;14394
498045;14313
498053;14256
498061;14183
498070;14115
498078;14095
498087;14061
498095;14049
498103;14040
498111;14065
498119;14075
498128;14068
498136;14046
498144;14065
498152;14095
498162;14245
498171;14227
498179;14081
498187;13883
498196;13766
498204;13777
498213;13821
498221;13823
498229;13810
498237;13814
498245;13872
498254;13969
498262;13962
498270;13958
498278;13966
498286;13959
498295;13953
498303;13926
498311;13858
498319;13756
498327;13858
498335;14443
498344;12689
498352;8489
498360;4930
498368;7089
498376;14925
498385;15919
498393;15270
498401;14687
498409;14529
498417;14292
498426;14082
498434;13996
498442;13947
498450;13841
498458;13722
498470;13674
498478;13630
498486;13464
498494;13305
498502;13146
498511;12988
498519;12821
498527;12638
498535;12426
498543;12254
498552;12034
498560;11910
498568;11828
498576;11913
498584;11971
498593;12106
498601;12333
498609;12710
498617;13118
498625;13493
498633;13778
498642;14056
498650;14199
498658;14301
498666;14299
498674;14341
498683;14337
498691;14296
498699;14210
498707;14182
498715;14165
498724;14118
498732;14073
498740;14054
498748;14017
498756;14009
498768;14022
498776;14043
498784;13979
498792;13938
498800;13893
498809;13868
498817;13869
498825;13874
498833;13812
498841;13745
498850;13630
498858;13428
498866;13251
498874;13251
498882;13291
498890;13300
498899;13320
498907;13382
498915;13432
498923;13552
498931;13579
498940;13606
498948;13599
498956;13533
498964;13503
498972;13508
498981;13498
498989;13467
498997;13689
499005;14043
499013;11939
499022;7701
499030;4700
499038;8241
499046;15267
499054;15710
499063;15069
499074;14575
499082;14419
499090;14100
499098;13900
499107;13778
499115;13668
499123;13612
499131;13571
499139;13487
499148;13403
499156;13350
499164;13223
499172;13093
499180;12983
499188;12864
499197;12698
499205;12484
499213;12205
499221;12017
499229;11897
499238;11841
499246;11863
499254;12000
499262;12131
499270;12432
499279;12779
499287;13196
499295;13583
499303;13926
499311;14215
499320;14392
499328;14484
499336;14544
499344;14603
499352;14602
499361;14584
499369;14539
499380;14538
499388;14552
499396;14502
499405;14419
499413;14370
499421;14335
499429;14305
499437;14277
499446;14275
499454;14273
499462;14281
499470;14317
499478;14311
499486;14298
499495;14251
499503;14190
499511;13984
499519;13844
499527;13766
499536;13721
499544;13722
499552;13758
499560;13790
499568;13876
499577;13999
499585;14050
499593;14071
499601;14020
499609;13963
499618;13894
499626;13895
499634;13858
499642;13867
499650;13856
499658;14402
499667;12972
499686;6070
499694;10674
499703;16657
499711;16426
499719;15668
499727;15001
499735;14703
499743;14434
499752;14119
499760;13932
499768;13821
499776;13767
499784;13734
499793;13648
499801;13556
499809;13453
499818;13317
499826;13218
499835;13098
499843;12934
499851;12771
499859;12548
499867;12308
499876;12061
499884;11870
499892;11793
499900;11781
499908;11863
499917;11969
499925;12147
499933;12475
499941;12816
499949;13180
499958;13544
499966;13814
499974;13969
499982;14058
499993;14232
500002;14380
500010;14396
500018;14354
500026;14333
500034;14263
500042;14278
500051;14251
500059;14219
500067;14245
500075;14256
500083;14209
500092;14207
500100;14182
500108;14269
500116;14307
500124;14306
500133;14270
500141;14153
500149;14043
500157;13962
500165;13939
500174;13900
500182;13874
500190;13894
500198;13956
500206;14019
500215;14026
500223;14014
500231;14010
500239;13967
500247;13931
500255;13937
500264;13920
500272;13885
500280;13852
500291;14357
500300;13706
500308;10429
500316;7031
500324;6528
500332;13153
500340;16749
500349;16026
500357;15327
500365;14642
500373;14254
500381;13991
500390;13726
500398;13543
500406;13451
500414;13340
500422;13264
500431;13133
500439;13033
500447;12935
500455;12809
500463;12695
500472;12589
500480;12435
500488;12269
500496;12029
500504;11815
500513;11627
500521;11549
500529;11593
500537;11670
500545;11797
500553;12022
500562;12372
500570;12831
500578;13310
500586;13814
500598;14331
500606;14626
500614;14740
500622;14715
500630;14719
500638;14705
500647;14696
500655;14656
500663;14592
500671;14535
500679;14494
500688;14457
500696;14388
500704;14314
500712;14268
500720;14225
500729;14182
500737;14111
500745;14079
500753;14063
500761;14042
500770;14047
500778;14054
500786;14019
500794;13935
500802;13826
500810;13694
500819;13592
500827;13547
500835;13537
500843;13558
500851;13600
500860;13696
500868;13777
500876;13789
500884;13769
500892;13756
500904;13767
500912;13799
500920;13722
500928;13580
500936;13915
500945;13881
500953;11336
500961;6986
500969;4698
500977;9090
500986;15252
500994;15734
501002;15194
501010;14751
501018;14531
501027;14245
501035;14007
501043;13910
501051;13826
501059;13813
501068;13718
501076;13667
501084;13619
501092;13592
501100;13511
501108;13378
501117;13243
501125;13131
501133;12962
501141;12804
501149;12615
501158;12424
501166;12266
501174;12213
501182;12170
501190;12206
501202;12385
501210;12722
501218;13066
501226;13355
501234;13618
501243;13926
501251;14078
501259;14129
501267;14205
501275;14214
501284;14167
501292;14153
501300;14078
501308;14022
501316;13939
501325;13957
501333;13961
501341;13942
501349;13946
501357;13992
501366;14031
501374;14055
501382;14022
501390;14070
501398;14098
501406;14131
501415;14100
501423;14027
501431;13927
501439;13793
501447;13623
501456;13470
501464;13415
501472;13344
501480;13317
501488;13339
501497;13458
501508;13654
501516;13751
501524;13755
501532;13703
501541;13711
501549;13686
501557;13698
501565;13593
501573;13559
501582;13541
501590;14189
501598;12819
501606;8821
501614;4603
501623;5184
501631;12885
501639;15409
501647;15085
501655;14566
501663;14366
501672;14025
501680;13772
501688;13623
501696;13554
501704;13414
501713;13305
501721;13205
501729;13086
501737;13037
501745;12969
501754;12875
501762;12746
501770;12636
501778;12418
501786;12226
501795;12023
501803;11809
501814;11641
501822;11612
501830;11607
501839;11655
501847;11736
501855;11962
501863;12301
501871;12779
501880;13193
501888;13530
501896;13758
501904;13942
501912;14047
501921;14103
501929;14071
501937;14011
501945;13987
501953;13963
501961;13924
501970;13933
501978;13909
501986;13926
501995;13870
502003;13828
502012;13858
502020;13879
502028;13843
502036;13806
502044;13781
502053;13798
502061;13846
502069;13895
502077;13944
502085;13977
502094;13992
502102;14040
502112;13889
502120;13794
502128;13647
502137;13630
502146;13615
502154;13638
502162;13623
502170;13620
502179;13705
502187;13789
502195;13854
502203;13878
502211;13911
502220;13883
502228;13883
502236;13881
502244;13826
502252;13777
502260;13828
502269;14388
502277;12644
502285;8384
502293;4811
502301;6708
502310;14429
502318;15849
502326;15317
502334;14795
502342;14625
502351;14336
502359;14149
502367;14044
502375;13910
502383;13836
502392;13789
502400;13745
502408;13657
502419;13704
502427;13652
502436;13467
502444;13336
502452;13133
502460;12883
502468;12704
502477;12463
502485;12221
502493;12069
502501;11992
502509;12020
502518;12112
502526;12247
502534;12447
502542;12839
502550;13226
502558;13637
502567;13985
502575;14206
502583;14378
502591;14448
502599;14468
502608;14467
502616;14436
502624;14402
502632;14322
502640;14331
502649;14321
502657;14326
502665;14299
502673;14251
502681;14199
502690;14185
502698;14169
502706;14184
502714;14233
502725;14258
502734;14222
502742;14231
502750;14220
502758;14175
502766;14134
502775;14126
502783;14124
502791;14115
502799;14040
502807;13924
502815;13640
502824;13529
502832;13566
502840;13610
502848;13604
502856;13628
502865;13674
502873;13756
502881;13828
502889;13824
502897;13806
502906;13786
502914;13790
502922;13844
502930;13820
502938;13771
502947;13685
502955;14105
502963;13845
502971;11152
502979;6994
502988;5161
502996;10544
503004;15711
503012;15678
503023;14839
503032;14635
503040;14407
503048;14132
503056;14058
503064;14009
503073;13957
503081;13911
503089;13852
503097;13784
503105;13695
503113;13644
503122;13596
503130;13497
503138;13370
503146;13209
503154;13017
503163;12807
503171;12628
503179;12423
503187;12254
503195;12231
503204;12291
503212;12434
503220;12545
503228;12804
503236;13205
503245;13640
503253;14001
503261;14213
503269;14403
503277;14534
503286;14580
503294;14608
503302;14613
503310;14553
503318;14462
503330;14461
503338;14484
503346;14379
503354;14309
503362;14229
503370;14136
503379;14095
503387;14114
503395;14054
503403;14068
503411;14080
503420;14051
503428;13995
503436;13976
503444;13993
503452;14011
503461;14003
503469;13963
503477;13918
503485;13781
503493;13628
503502;13568
503510;13551
503518;13581
503526;13637
503534;13762
503543;13872
503551;13906
503559;13892
503567;13898
503575;13906
503583;13851
503592;13774
503600;13744
503608;13610
503616;13481
503624;13557
503636;13444
503644;10617
503652;6936
503660;5856
503668;11912
503677;16206
503685;15668
503693;14860
503701;14250
503709;14020
503718;13722
503726;13494
503734;13350
503742;13294
503750;13209
503759;13119
503767;13031
503775;12931
503783;12898
503791;12779
503800;12650
503808;12553
503816;12404
503824;12238
503832;12033
503841;11845
503849;11616
503857;11459
503865;11282
503873;11164
503881;11475
503890;11835
503898;11964
503906;12234
503914;12644
503922;13054
503934;13544
503942;13813
503950;13931
503958;14033
503966;14104
503975;14138
503983;14100
503991;14076
503999;14060
504007;14064
504016;13998
504024;13968
504032;13966
504040;13973
504048;13942
504057;13948
504065;13933
504073;13909
504081;13891
504089;13895
504098;13861
504106;13880
504114;13877
504123;13851
504131;13842
504140;13917
504148;13905
504156;13901
504164;13864
504172;13778
504180;13607
504189;13548
504197;13574
504205;13630
504213;13695
504221;13729
504230;13803
504240;14041
504248;14132
504256;14088
504265;13986
504274;13947
504282;13915
504290;13875
504298;13812
504306;13745
504315;14315
504323;13172
504331;9689
504339;5980
504347;6434
504356;13976
504364;15881
504372;15217
504380;14502
504388;14270
504397;14082
504405;13873
504413;13734
504421;13707
504429;13690
504438;13682
504446;13659
504454;13573
504462;13507
504470;13439
504478;13356
504487;13281
504495;13159
504503;13003
504511;12821
504519;12604
504528;12381
504536;12192
504547;12069
504555;12180
504563;12257
504572;12383
504580;12557
504588;12864
504596;13198
504604;13588
504613;13903
504621;14161
504629;14342
504637;14431
504645;14462
504654;14490
504662;14506
504670;14516
504678;14491
504686;14434
504695;14418
504703;14408
504711;14393
504719;14344
504727;14335
504735;14310
504744;14288
504752;14249
504760;14211
504768;14194
504776;14172
504785;14198
504793;14182
504801;14186
504809;14156
504817;14096
504826;14066
504834;14006
504845;13892
504853;13682
504861;13546
504870;13533
504878;13549
504886;13540
504894;13573
504902;13610
504911;13711
504919;13794
504927;13801
504935;13803
504943;13796
504952;13743
504960;13717
504968;13681
504976;13628
504984;13622
504993;14091
505001;12557
505009;8775
505017;5389
505025;7312
505033;14809
505042;15824
505050;15176
505058;14616
505066;14442
505074;14179
505083;13924
505091;13829
505099;13738
505107;13655
505115;13613
505124;13558
505132;13436
505140;13330
505151;13250
505159;13128
505168;12917
505176;12717
505184;12530
505192;12303
505200;12059
505209;11809
505217;11600
505225;11563
505233;11578
505241;11672
505250;11751
505258;11972
505266;12312
505274;12803
505282;13181
505290;13533
505299;13820
505307;14031
505315;14158
505323;14177
505331;14208
505340;14227
505348;14190
505356;14142
505364;14061
505372;14035
505381;14002
505389;13953
505397;13917
505405;13932
505413;13898
505422;13867
505430;13861
505438;13838
505446;13877
505457;13935
505466;14007
505474;13977
505482;13989
505490;13997
505498;13965
505507;13952
505515;13889
505523;13792
505531;13565
505539;13462
505548;13504
505556;13535
505564;13525
505572;13543
505580;13593
505588;13698
505597;13811
505605;13858
505613;13872
505621;13875
505629;13851
505638;13838
505646;13825
505654;13768
505662;13704
505670;14325
505679;13478
505687;10155
505695;6258
505703;6032
505711;13490
505720;16180
505728;15621
505736;14888
505744;14578
505755;14321
505764;14177
505772;14010
505780;13876
505788;13759
505796;13671
505805;13577
505813;13514
505821;13400
505829;13314
505837;13180
505846;13102
505854;12981
505862;12774
505870;12528
505878;12318
505886;12104
505895;12013
505903;11998
505911;12029
505919;12132
505927;12331
505936;12527
505944;12884
505952;13329
505960;13786
505968;14177
505977;14462
505985;14680
505993;14825
506001;14869
506009;14921
506018;14915
506026;14896
506034;14840
506042;14820
506050;14753
506062;14700
506070;14688
506078;14658
506086;14616
506094;14584
506103;14566
506111;14565
506119;14539
506127;14516
506135;14537
506143;14628
506152;14669
506160;14670
506168;14672
506176;14621
506184;14558
506193;14411
506201;14175
506209;13861
506217;13687
506225;13634
506234;13588
506242;13592
506250;13556
506258;13524
506266;13578
506275;13615
506283;13617
506291;13554
506299;13497
506307;13464
506316;13433
506324;13439
506332;13477
506340;13354
506348;13995
506360;12126
506368;8155
506376;5041
506384;7513
506392;14673
506401;15164
506409;14444
506417;13760
506425;13471
506433;13155
506441;12895
506450;12745
506458;12626
506466;12507
506474;12466
506482;12455
506492;12409
506500;12430
506508;12428
506516;12414
506524;12333
506533;12262
506541;12126
506549;11977
506557;11780
506565;11641
506574;11466
506582;11445
506590;11564
506598;11841
506606;12146
506615;12555
506623;12908
506631;13315
506639;13788
506647;14273
506655;14650
506667;15099
506675;15168
506683;15092
506691;14983
506700;14914
506708;14812
506716;14736
506724;14655
506732;14606
506740;14564
506749;14471
506757;14415
506765;14409
506773;14293
506781;14142
506790;13995
506798;13933
506806;13902
506814;13870
506822;13815
506831;13684
506839;13480
506847;13382
506855;13307
506863;13263
506872;13217
506880;13281
506888;13429
506896;13611
506904;13654
506913;13654
506921;13749
506929;13785
506937;13783
506945;13938
506953;14024
506962;14059
506973;14099
506981;14698
506989;13849
506998;10791
507006;7674
507014;7556
507022;14665
507030;17265
507038;16313
507047;15378
507055;14659
507063;14449
507071;14122
507079;13889
507088;13697
507096;13643
507104;13507
507112;13437
507120;13398
507129;13278
507137;13146
507145;13073
507153;12934
507161;12765
507170;12544
507178;12351
507186;12124
507194;11839
507202;11639
507210;11549
507219;11553
507227;11676
507235;11814
507243;12024
507251;12270
507260;12660
507268;13080
507279;13654
507287;14051
507295;14206
507304;14276
507312;14499
507320;14593
507328;14633
507336;14675
507345;14663
507353;14549
507361;14409
507369;14261
507377;14137
507386;13973
507394;13860
507402;13789
507410;13730
507418;13754
507427;13790
507435;13803
507443;13830
507451;13832
507459;13837
507468;13836
507476;13779
507484;13724
507492;13493
507500;13329
507508;13236
507517;13204
507525;13192
507533;13261
507541;13381
507549;13492
507558;13596
507566;13629
507577;13711
507585;13726
507593;13693
507602;13698
507610;13652
507618;13621
507626;13718
507634;14250
507643;12808
507651;8998
507659;5570
507667;7437
507675;15147
507684;16102
507692;15370
507700;14684
507708;14458
507716;14284
507725;14036
507733;13894
507741;13754
507749;13696
507757;13622
507766;13614
507774;13534
507782;13539
507790;13469
507798;13365
507806;13227
507815;13089
507823;12900
507831;12727
507839;12483
507847;12261
507856;12039
507864;11960
507872;11969
507883;12187
507891;12376
507900;12601
507908;12937
507916;13326
507924;13730
507932;14040
507941;14274
507949;14385
507957;14449
507965;14512
507973;14479
507982;14445
507990;14420
507998;14386
508006;14314
508014;14251
508023;14177
508031;14134
508039;14058
508047;14062
508055;14081
508063;14080
508072;14126
508080;14183
508088;14185
508096;14280
508104;14338
508113;14424
508121;14510
508129;14506
508137;14435
508145;14395
508154;14225
508162;14118
508170;14082
508181;14134
508189;14222
508198;14252
508206;14265
508214;14333
508222;14286
508230;14215
508239;14150
508247;14115
508255;14084
508263;14033
508271;13936
508280;13850
508288;14207
508296;14258
508304;11706
508312;7199
508321;4521
508329;9271
508337;15550
508345;15682
508353;15008
508361;14550
508370;14345
508378;14033
508386;13864
508394;13769
508402;13672
508411;13582
508419;13523
508427;13482
508435;13435
508443;13327
508452;13232
508460;13107
508468;12963
508476;12846
508487;12666
508496;12496
508504;12243
508512;11998
508520;11873
508528;11856
508537;11893
508545;12002
508553;12148
508561;12434
508569;12766
508578;13177
508586;13539
508594;13832
508602;14060
508610;14209
508618;14283
508627;14313
508635;14281
508643;14287
508651;14243
508659;14208
508668;14147
508676;14124
508684;14082
508692;14042
508701;13946
508710;13915
508718;13872
508726;13826
508734;13790
508742;13793
508751;13820
508759;13799
508767;13796
508775;13749
508783;13769
508794;13847
508802;13885
508810;13806
508818;13668
508827;13472
508836;13380
508844;13378
508852;13363
508860;13353
508868;13392
508877;13454
508885;13556
508893;13663
508901;13667
508909;13648
508918;13626
508926;13598
508934;13549
508942;13495
508950;13443
508958;13521
508967;14019
508975;12224
508983;8036
508991;4453
508999;6754
509008;14460
509016;15396
509024;14752
509032;14256
509040;14121
509049;13831
509057;13586
509065;13440
509073;13354
509081;13282
509090;13248
509101;13333
509109;13375
509117;13319
509125;13230
509134;13151
509142;13075
509150;12929
509158;12736
509166;12502
509175;12288
509183;12125
509191;11983
509199;11913
509207;11970
509215;12132
509224;12325
509232;12636
509240;13040
509248;13458
509256;13848
509265;14200
509273;14474
509281;14684
509289;14814
509297;14869
509306;14866
509314;14846
509322;14802
509330;14778
509338;14727
509347;14676
509355;14603
509363;14557
509371;14506
509379;14487
509388;14432
509399;14461
509407;14492
509415;14451
509423;14445
509432;14450
509440;14492
509448;14448
509456;14411
509464;14276
509473;14106
509481;13966
509489;13950
509497;13928
509505;13916
509513;13972
509522;14029
509530;14085
509538;14116
509546;14146
509554;14139
509563;14120
509571;14056
509579;14010
509587;13936
509595;13815
509604;13713
509612;14226
509620;13151
509628;9683
509636;6453
509645;6585
509653;14183
509661;16405
509669;15655
509677;14940
509686;14497
509694;14330
509705;14067
509713;13998
509721;13923
509730;13794
509738;13726
509746;13629
509754;13585
509762;13499
509770;13404
509779;13309
509787;13167
509795;12999
509803;12825
509811;12631
509820;12360
509828;12110
509836;11884
509844;11761
509852;11762
509861;11787
509869;11845
509877;12034
509885;12393
509893;12844
509902;13275
509910;13683
509918;14001
509926;14177
509934;14319
509943;14379
509951;14387
509959;14360
509967;14322
509975;14283
509983;14247
509992;14171
510000;14088
510011;14049
510019;13990
510028;13919
510036;13881
510044;13870
510052;13836
510060;13779
510068;13797
510077;13806
510085;13745
510093;13687
510101;13626
510109;13475
510118;13369
510126;13337
510134;13323
510142;13335
510150;13399
510159;13472
510167;13521
510175;13604
510183;13687
510191;13767
510200;13778
510208;13786
510216;13755
510224;13694
510232;13611
510241;13530
510249;13984
510257;13800
510265;11153
510273;6953
510281;4949
510290;10686
510298;15911
510309;15523
510317;14907
510326;14547
510334;14294
510342;13979
510350;13794
510358;13679
510366;13614
510375;13545
510383;13443
510391;13390
510399;13320
510407;13253
510416;13163
510424;13071
510432;12975
510440;12850
510448;12687
510457;12463
510465;12228
510473;12008
510481;11913
510489;11904
510498;11954
510506;12074
510514;12254
510522;12537
510530;12961
510538;13421
510547;13795
510555;14076
510563;14252
510571;14342
510579;14385
510588;14411
510596;14406
510604;14407
510615;14403
510623;14378
510632;14291
510640;14201
510648;14129
510656;14026
510664;13971
510673;13889
510681;13859
510689;13874
510697;13824
510705;13784
510714;13760
510722;13715
510730;13708
510738;13760
510746;13739
510755;13765
510763;13679
510771;13521
510780;13295
510788;13205
510797;13191
510805;13252
510813;13259
510821;13285
510829;13332
510838;13419
510846;13481
510854;13474
510862;13486
510870;13486
510878;13471
510887;13474
510895;13456
510903;13370
510913;14043
510921;13537
510931;10239
510939;5698
510947;4411
510955;11079
510963;15519
510972;15361
510980;14747
510988;14480
510996;14306
511004;14044
511013;13934
511021;13857
511029;13811
511037;13750
511045;13673
511054;13603
511062;13534
511070;13439
511078;13352
511086;13266
511095;13126
511103;13013
511111;12893
511119;12724
511127;12536
511135;12275
511144;12113
511152;12042
511160;12073
511168;12083
511176;12263
511185;12504
511193;12864
511201;13260
511209;13661
511220;14150
511229;14425
511237;14546
511245;14594
511253;14608
511261;14614
511270;14618
511278;14592
511286;14542
511294;14504
511302;14436
511311;14401
511319;14319
511327;14317
511335;14260
511343;14227
511352;14197
511360;14137
511368;14104
511376;14100
511384;14078
511393;14062
511401;14053
511409;14084
511417;14016
511425;13846
511433;13665
511442;13395
511450;13467
511458;13714
511466;13821
511474;13856
511483;13873
511491;13961
511499;14049
511507;14029
511515;14009
511527;14041
511535;14049
511543;14015
511551;13911
511559;13823
511568;14092
511576;14271
511584;11876
511592;7313
511600;4441
511609;8543
511617;15266
511625;15582
511633;14825
511641;14422
511650;14331
511658;14103
511666;13943
511674;13854
511682;13763
511690;13718
511699;13643
511707;13591
511715;13554
511723;13466
511731;13353
511740;13269
511748;13139
511756;12997
511764;12810
511772;12560
511781;12295
511789;12023
511797;11828
511805;11761
511813;11761
511825;11934
511833;12104
511841;12370
511849;12734
511857;13136
511866;13542
511874;13918
511882;14163
511890;14295
511898;14371
511907;14408
511915;14413
511923;14418
511931;14410
511939;14329
511948;14261
511956;14219
511964;14167
511972;14134
511980;14095
511988;14056
511997;14005
512005;13999
512013;13969
512021;13955
512029;13916
512038;13850
512046;13845
512054;13870
512062;13941
512070;13980
512079;14013
512087;13968
512095;13864
512103;13613
512111;13592
512120;13558
512131;13633
512139;13655
512147;13642
512155;13675
512164;13763
512172;13770
512180;13779
512188;13756
512196;13803
512205;13814
512213;13805
512221;13747
512229;13686
512237;14068
512246;14074
512254;11345
512262;6860
512270;4486
512278;9683
512286;15581
512295;15660
512303;14981
512311;14594
512319;14378
512327;14134
512336;13962
512344;13873
512352;13733
512360;13745
512368;13701
512377;13716
512385;13660
512393;13658
512401;13563
512409;13488
512418;13328
512426;13231
512437;13034
512445;12907
512453;12638
512462;12405
512470;12232
512478;12184
512486;12205
512494;12312
512503;12437
512511;12711
512519;12957
512527;13392
512535;13723
512543;14098
512552;14295
512560;14514
512568;14545
512576;14597
512584;14535
512593;14700
512601;14742
512609;14749
512617;14632
512625;14596
512634;14478
512642;14450
512650;14303
512658;14229
512666;14122
512675;13823
512683;13600
512692;13656
512700;13709
512708;13834
512717;13878
512725;13930
512735;14111
512743;14265
512751;14215
512760;14258
512768;14073
512776;13974
512784;13869
512792;13933
512801;13914
512809;13960
512817;13971
512825;14090
512833;14118
512842;14165
512851;14094
512859;14094
512867;14021
512875;14009
512883;13922
512892;13860
512900;13714
512908;14177
512916;14100
512924;11359
512933;6737
512941;4286
512949;9814
512957;15660
512965;15660
512974;15034
512982;14664
512990;14533
512998;14253
513006;14100
513015;14050
513023;13943
513031;13838
513042;13801
513050;13787
513059;13716
513067;13603
513075;13491
513083;13319
513091;13143
513100;12868
513108;12585
513116;12288
513124;12026
513132;11778
513140;11679
513149;11654
513157;11697
513165;11808
513173;12003
513181;12243
513190;12596
513198;13013
513206;13399
513214;13675
513222;13914
513231;14049
513239;14115
513247;14168
513255;14150
513263;14090
513272;13985
513280;13912
513288;13782
513296;13710
513304;13624
513313;13605
513321;13565
513329;13563
513337;13610
513348;13723
513357;13770
513365;13731
513373;13705
513381;13689
513389;13736
513398;13859
513406;14040
513414;14291
513422;14416
513430;14518
513438;14474
513447;14383
513455;14269
513463;14194
513471;14120
513479;14091
513488;14082
513496;14143
513504;14224
513512;14269
513520;14261
513529;14273
513537;14210
513545;14179
513553;14158
513561;14136
513570;14050
513578;14557
513586;14488
513594;11701
513602;7097
513610;4671
513619;10418
513627;16128
513635;16016
513646;15182
513655;14951
513663;14740
513671;14437
513679;14299
513687;14189
513695;14073
513704;13961
513712;13855
513720;13771
513728;13707
513736;13603
513745;13516
513753;13372
513761;13257
513769;13080
513777;12896
513786;12660
513794;12410
513802;12147
513810;12022
513818;11950
513827;12009
513835;12125
513843;12318
513851;12575
513859;12945
513868;13351
513876;13776
513884;14119
513892;14375
513900;14513
513908;14615
513917;14634
513925;14692
513933;14679
513941;14630
513953;14617
513961;14646
513969;14544
513977;14411
513985;14233
513993;14205
514002;14207
514010;14206
514018;14201
514026;14257
514034;14280
514043;14332
514051;14283
514059;14268
514067;14099
514075;13995
514084;13887
514092;13814
514100;13789
514108;13820
514116;13868
514125;13921
514133;14008
514141;13993
514149;13998
514157;14039
514166;14025
514174;13977
514182;13967
514190;13922
514198;13845
514206;13734
514215;14298
514223;13387
514231;9943
514239;6472
514247;5960
514259;15613
514267;16536
514275;15859
514283;15156
514291;14627
514300;14331
514308;13994
514316;13795
514324;13739
514332;13663
514341;13601
514349;13561
514357;13483
514365;13405
514373;13283
514382;13133
514390;12982
514398;12830
514406;12645
514414;12469
514423;12248
514431;12033
514439;11848
514447;11728
514455;11731
514463;11838
514472;11978
514480;12219
514488;12502
514496;12892
514504;13330
514513;13697
514521;13989
514529;14177
514537;14270
514545;14343
514557;14439
514565;14424
514573;14351
514581;14269
514589;14201
514598;14147
514606;14046
514614;14002
514622;13940
514630;13908
514639;13876
514647;13892
514655;13897
514663;13909
514671;13896
514680;13893
514688;13854
514696;13687
514704;13643
514712;13635
514721;13602
514729;13650
514737;13767
514745;13852
514753;13997
514761;14107
514770;14109
514778;14118
514786;14158
514794;14148
514802;14131
514811;14059
514819;13975
514827;13931
514835;14152
514843;14238
514852;11836
514863;6729
514871;5879
514879;13061
514887;16514
514896;15986
514904;15366
514912;14745
514920;14436
514928;14154
514937;13924
514945;13789
514953;13644
514961;13536
514969;13479
514978;13375
514986;13258
514994;13143
515002;13073
515010;12947
515018;12822
515027;12673
515036;12471
515044;12271
515052;12051
515060;11834
515069;11686
515077;11700
515085;11762
515093;11909
515101;12103
515110;12418
515118;12794
515126;13269
515134;13638
515142;13908
515151;14089
515159;14233
515169;14409
515178;14437
515186;14413
515195;14356
515203;14299
515211;14234
515219;14212
515227;14141
515236;14096
515244;14013
515252;13951
515260;13914
515268;13873
515277;13863
515285;13872
515293;13886
515301;13871
515309;13807
515318;13740
515326;13621
515334;13578
515342;13593
515350;13582
515358;13609
515367;13669
515375;13767
515383;13853
515391;13962
515399;13962
515408;13996
515416;13944
515424;13863
515432;13793
515440;13770
515449;13688
515457;13616
515468;14443
515476;13507
515484;9733
515493;5680
515501;5279
515509;13030
515517;15908
515525;15652
515534;15063
515542;14651
515550;14382
515558;14108
515566;13952
515575;13848
515583;13759
515591;13666
515599;13593
515607;13578
515615;13489
515624;13357
515632;13259
515640;13154
515648;13040
515656;12885
515665;12673
515673;12431
515681;12203
515689;12011
515697;11833
515706;11797
515714;11848
515722;11960
515730;12164
515738;12482
515747;12914
515755;13311
515763;13707
515774;14136
515782;14328
515791;14403
515799;14399
515807;14384
515815;14396
515823;14369
515832;14322
515840;14250
515848;14216
515856;14159
515864;14131
515873;14052
515881;13968
515889;13929
515897;13909
515905;13938
515913;13900
515922;13858
515930;13896
515938;13872
515946;13851
515954;13695
515963;13599
515971;13543
515979;13523
515987;13518
515995;13545
516004;13613
516012;13711
516020;13862
516028;13931
516036;13918
516045;13943
516053;13960
516061;13995
516069;14007
516080;13970
516089;13915
516097;14376
516105;14489
516113;11761
516121;6991
516130;3997
516138;8479
516146;15369
516154;15907
516162;15394
516170;14932
516179;14705
516187;14305
516195;14030
516203;13899
516211;13846
516220;13744
516228;13625
516236;13548
516244;13468
516252;13362
516261;13263
516269;13126
516277;12939
516285;12798
516293;12625
516302;12423
516310;12151
516318;11817
516326;11635
516334;11579
516343;11584
516351;11649
516359;11834
516367;12115
516378;12728
516387;13260
516395;13675
516403;13996
516411;14221
516419;14360
516428;14433
516436;14458
516444;14439
516452;14390
516460;14284
516468;14209
516477;14161
516485;14121
516493;14065
516501;14011
516509;13949
516518;13942
516526;13953
516534;13921
516542;13919
516550;13895
516559;13858
516567;13849
516575;13823
516583;13784
516591;13776
516600;13750
516608;13678
516616;13509
516624;13333
516632;13316
516641;13320
516649;13321
516657;13285
516665;13328
516673;13357
516685;13503
516693;13626
516701;13564
516709;13466
516717;13432
516726;13373
516734;13294
516742;13230
516750;13099
516758;13658
516766;13530
516775;10426
516783;5634
516791;3286
516799;8707
516807;14871
516816;15350
516824;14944
516832;14644
516840;14509
516848;14173
516857;13974
516865;13870
516873;13827
516881;13762
516889;13706
516898;13606
516906;13473
516914;13366
516922;13294
516930;13173
516938;12994
516947;12817
516955;12596
516963;12403
516971;12208
516979;12001
516991;11920
516999;11988
517007;12033
517015;12106
517023;12291
517032;12668
517040;13142
517048;13623
517056;14043
517064;14346
517073;14553
517081;14647
517089;14682
517097;14650
517105;14603
517114;14567
517122;14525
517130;14502
517138;14451
517146;14377
517155;14366
517163;14330
517171;14270
517179;14248
517187;14215
517196;14211
517204;14219
517212;14249
517220;14235
517228;14227
517236;14212
517245;14219
517253;14183
517261;14190
517269;14202
517277;14190
517289;14177
517297;13996
517305;13840
517313;13823
517321;13813
517330;13796
517338;13772
517346;13831
517354;13927
517362;14047
517371;14083
517379;14076
517387;14092
517395;14071
517403;14025
517412;14001
517420;13981
517428;13868
517436;14558
517444;13779
517453;10074
517461;5342
517469;4275
517477;11721
517485;15686
517494;15454
517502;14794
517510;14543
517518;14364
517526;14104
517534;13978
517543;13857
517551;13787
517559;13705
517567;13637
517575;13548
517584;13471
517595;13407
517603;13381
517611;13244
517619;13111
517628;12929
517636;12693
517644;12438
517652;12185
517660;11986
517669;11887
517677;11892
517685;11942
517693;12057
517701;12206
517710;12471
517718;12897
517726;13285
517734;13662
517742;13927
517751;14131
517760;14174
517768;14217
517776;14224
517784;14243
517793;14161
517801;14145
517809;14096
517817;14050
517825;13969
517833;13936
517842;13923
517850;13931
517858;13925
517866;13939
517874;13926
517883;13896
517891;13878
517902;13913
517910;13949
517918;13918
517927;13869
517935;13854
517943;13815
517951;13833
517959;13797
517968;13783
517976;13716
517984;13564
517992;13508
518000;13528
518009;13607
518017;13659
518025;13730
518033;13820
518041;13888
518050;13938
518058;13917
518066;13914
518074;13870
518082;13800
518090;13741
518099;13658
518107;13584
518115;13493
518123;14108
518131;13538
518140;10233
518148;5967
518156;4823
518164;11830
518172;15906
518181;15640
518189;14948
518200;14585
518208;14384
518216;14174
518225;14097
518233;14008
518241;13966
518249;13932
518257;13878
518266;13842
518274;13778
518282;13722
518290;13608
518298;13528
518307;13386
518315;13255
518323;13048
518331;12797
518339;12546
518348;12272
518356;12183
518364;12163
518372;12200
518380;12297
518388;12460
518397;12784
518405;13186
518413;13653
518421;14076
518429;14403
518438;14700
518446;14858
518454;14929
518462;14959
518470;14963
518479;14950
518487;14911
518495;14896
518506;14866
518514;14839
518523;14741
518531;14624
518539;14560
518547;14499
518555;14481
518564;14477
518572;14442
518580;14379
518588;14362
518596;14391
518605;14387
518613;14329
518621;14236
518629;14173
518637;14024
518646;13897
518654;13764
518662;13724
518670;13702
518678;13755
518686;13864
518695;14004
518703;14096
518711;14144
518719;14095
518727;14098
518736;14088
518744;14070
518752;13971
518760;13933
518768;13859
518777;13772
518785;14362
518793;13759
518804;8994
518812;5989
518821;7380
518829;15193
518837;16402
518845;15759
518853;15030
518862;14580
518870;14330
518878;13998
518886;13800
518894;13669
518903;13536
518911;13481
518919;13344
518927;13310
518935;13263
518943;13190
518952;13076
518960;12978
518968;12848
518976;12667
518984;12403
518993;12182
519001;11919
519009;11719
519017;11604
519025;11595
519034;11619
519042;11701
519050;11906
519058;12233
519066;12664
519075;13114
519083;13485
519091;13754
519099;13942
519119;14430
519127;14502
519135;14454
519143;14423
519151;14376
519160;14316
519168;14316
519176;14172
519184;14012
519192;13871
519201;13812
519209;13776
519217;13723
519225;13719
519233;13746
519241;13723
519250;13674
519258;13589
519266;13558
519274;13430
519282;13288
519291;13123
519299;12971
519307;12878
519315;12839
519323;12835
519332;12881
519340;13012
519348;13168
519356;13272
519364;13358
519373;13386
519381;13387
519389;13393
519397;13400
519405;13394
519414;13393
519425;13412
519433;13557
519441;14069
519449;12488
519458;8402
519466;5059
519474;7087
519482;14658
519490;15806
519498;15240
519507;14599
519515;14401
519523;14150
519531;13939
519539;13827
519548;13691
519556;13587
519564;13542
519572;13498
519580;13435
519589;13377
519597;13310
519605;13214
519613;13114
519621;12974
519630;12858
519639;12673
519647;12437
519655;12241
519663;12077
519672;11968
519680;11969
519688;12007
519696;12150
519704;12339
519713;12661
519721;13041
519731;13655
519739;14031
519747;14259
519756;14399
519765;14506
519773;14533
519781;14478
519789;14437
519798;14437
519806;14370
519814;14302
519822;14262
519830;14213
519838;14147
519847;14131
519855;14127
519863;14137
519871;14136
519879;14218
519888;14231
519896;14228
519904;14275
519912;14323
519920;14351
519929;14472
519937;14481
519945;14513
519953;14522
519961;14465
519970;14263
519978;14139
519986;14158
519994;14168
520002;14082
520010;14024
520019;14011
520030;14136
520038;14228
520046;14259
520055;14238
520063;14298
520071;14314
520079;14320
520087;14302
520095;14220
520104;14047
520112;14689
520120;14095
520128;10675
520136;6201
520145;5099
520153;11721
520161;15940
520169;15740
520177;15025
520186;14659
520194;14455
520202;14141
520210;13958
520218;13818
520227;13686
520235;13597
520243;13550
520251;13440
520259;13351
520268;13286
520276;13190
520284;13072
520292;12944
520300;12793
520308;12610
520317;12362
520325;12122
520336;11869
520344;11790
520353;11706
520361;11745
520369;11810
520377;11962
520385;12239
520393;12589
520402;12974
520410;13358
520418;13698
520426;13954
520434;14098
520443;14183
520451;14253
520459;14271
520467;14277
520475;14210
520484;14183
520492;14182
520500;14137
520508;14082
520516;13965
520525;13878
520533;13887
520541;13916
520549;13947
520557;13941
520566;13937
520574;13951
520582;13997
520590;14028
520598;14114
520606;14145
520615;14147
520623;14131
520634;14186
520642;14197
520650;14130
520659;13946
520667;13846
520675;13863
520683;13917
520691;13856
520700;13838
520708;13812
520716;13839
520724;13942
520732;13873
520741;13784
520749;13701
520757;13684
520765;13647
520773;13578
520782;13513
520790;13423
520798;14144
520806;13379
520814;9817
520823;5589
520831;5006
520839;12366
520847;15745
520855;15441
520863;14755
520872;14427
520880;14221
520888;13935
520896;13767
520904;13610
520913;13485
520921;13382
520929;13370
520940;13417
520948;13406
520957;13291
520965;13093
520973;12943
520981;12798
520989;12604
520998;12351
521006;12099
521014;11809
521022;11569
521030;11411
521039;11417
521047;11495
521055;11730
521063;12013
521071;12401
521080;12895
521088;13388
521096;13800
521104;14100
521112;14319
521121;14461
521129;14534
521137;14533
521145;14506
521153;14460
521161;14380
521170;14316
521178;14258
521186;14250
521194;14227
521202;14162
521211;14115
521219;14048
521227;14005
521235;13935
521246;14022
521255;14039
521263;14026
521271;14020
521279;14063
521287;14087
521296;14126
521304;14117
521312;14132
521320;14170
521328;14183
521337;14140
521345;14014
521353;13889
521361;13849
521369;13815
521378;13820
521386;13797
521394;13850
521402;13910
521410;14030
521418;14019
521427;13985
521435;13967
521443;13944
521451;13910
521459;13807
521468;13697
521476;13564
521484;14139
521492;13737
521500;10554
521509;6230
521517;4825
521525;11468
521533;15843
521541;15578
521553;14699
521561;14531
521569;14311
521577;14020
521585;13875
521594;13771
521602;13705
521610;13645
521618;13593
521626;13522
521635;13466
521643;13371
521651;13326
521659;13226
521667;13093
521676;12969
521684;12814
521692;12585
521700;12355
521708;12144
521716;12012
521725;12027
521733;12076
521741;12208
521749;12433
521757;12715
521766;13067
521774;13441
521782;13804
521790;14109
521798;14298
521807;14415
521815;14450
521823;14493
521831;14524
521839;14504
521851;14517
521859;14521
521867;14468
521875;14430
521883;14309
521892;14222
521900;14154
521908;14083
521916;14027
521924;13961
521933;13846
521941;13747
521949;13662
521957;13605
521965;13623
521974;13623
521982;13634
521990;13665
521998;13659
522006;13592
522014;13451
522023;13351
522031;13380
522039;13412
522047;13520
522055;13693
522064;13850
522072;14004
522080;14073
522088;14044
522096;14031
522105;14001
522113;14000
522121;13998
522129;13969
522137;13911
522146;13835
522157;14574
522165;12883
522173;8697
522181;5680
522190;7915
522198;15569
522206;16396
522214;15793
522222;15123
522231;14718
522239;14473
522247;14181
522255;14031
522263;13895
522271;13842
522280;13728
522289;13654
522297;13539
522305;13448
522313;13356
522322;13240
522330;13119
522338;13016
522346;12826
522354;12572
522363;12280
522371;12027
522379;11818
522387;11697
522395;11701
522404;11768
522412;11842
522420;12003
522428;12297
522436;12705
522445;13123
522456;13672
522464;13952
522472;14084
522480;14166
522489;14189
522497;14178
522505;14167
522513;14121
522521;14090
522530;14066
522538;14002
522546;13964
522554;13924
522562;13954
522570;13980
522579;13980
522587;13994
522595;14018
522603;14050
522611;14112
522620;14127
522628;14203
522636;14210
522644;14218
522652;14173
522661;14146
522669;14079
522677;13946
522685;13797
522693;13680
522702;13631
522710;13548
522718;13499
522726;13600
522734;13654
522743;13723
522751;13731
522762;13808
522770;13778
522778;13663
522787;13650
522795;13684
522803;13687
522811;13605
522819;14118
522828;13757
522836;10521
522844;5925
522852;4268
522860;10599
522868;15441
522877;15437
522885;14774
522893;14335
522901;14059
522909;13738
522918;13538
522926;13423
522934;13309
522942;13274
522950;13218
522959;13165
522967;13131
522975;13125
522983;13064
522991;12972
523000;12877
523008;12702
523016;12480
523024;12258
523032;12039
523041;11820
523049;11665
523057;11653
523068;11891
523076;12126
523085;12324
523093;12617
523101;12945
523109;13349
523117;13668
523126;13971
523134;14206
523142;14408
523150;14478
523158;14515
523166;14538
523175;14560
523183;14549
523191;14532
523199;14451
523207;14421
523216;14362
523224;14337
523232;14263
523240;14229
523248;14170
523257;14164
523265;14114
523273;14130
523281;14148
523289;14176
523298;14160
523306;14157
523314;14145
523322;14140
523330;14149
523338;14173
523347;14117
523355;14066
523366;13904
523374;13828
523383;13825
523391;13841
523399;13833
523407;13824
523415;13872
523423;13946
523432;14056
523440;14053
523448;13982
523456;13930
523464;13930
523473;13906
523481;13869
523489;13817
523497;13789
523505;14556
523514;13409
523522;9578
523530;5532
523538;5981
523546;13751
523555;16110
523563;15650
523571;15026
523579;14755
523587;14494
523596;14241
523604;14152
523612;14063
523620;14007
523628;13983
523636;13935
523645;13890
523653;13832
523661;13740
523672;13658
523681;13547
523689;13327
523697;13084
523705;12857
523713;12577
523721;12308
523730;12085
523738;12006
523746;12002
523754;12075
523762;12125
523771;12251
523779;12500
523787;12876
523795;13275
523803;13616
523812;13902
523820;14072
523828;14173
523836;14230
523844;14248
523853;14257
523861;14213
523869;14110
523877;14013
523885;13930
523894;13887
523902;13843
523910;13836
523918;13816
523926;13818
523934;13810
523943;13834
523951;13828
523959;13813
523967;13810
523978;13874
523987;13988
523995;13979
524003;13994
524011;14006
524019;14019
524028;13981
524036;13906
524044;13727
524052;13572
524060;13573
524069;13548
524077;13532
524085;13499
524093;13547
524101;13647
524110;13841
524118;13899
524126;13905
524134;13911
524142;13940
524151;13924
524159;13931
524167;13905
524175;13849
524183;14003
524191;14463
524200;12356
524208;7952
524216;4797
524224;8036
524232;15272
524241;15916
524249;15259
524257;14737
524265;14522
524276;14234
524285;14112
524293;13980
524301;13864
524309;13754
524317;13619
524326;13512
524334;13429
524342;13300
524350;13174
524358;13021
524367;12881
524375;12758
524383;12559
524391;12375
524399;12152
524408;11977
524416;11869
524424;11845
524432;11861
524440;11947
524449;12089
524457;12279
524465;12606
524473;13008
524481;13372
524489;13705
524498;13913
524506;14085
524514;14185
524522;14199
524530;14189
524539;14186
524547;14132
524555;14093
524563;14057
524572;14002
524583;14035
524591;14057
524599;13977
524607;13915
524615;13867
524624;13865
524632;13870
524640;13874
524648;13842
524656;13845
524665;13838
524673;13896
524681;13909
524689;13894
524697;13821
524707;13674
524715;13514
524723;13462
524731;13393
524739;13371
524748;13397
524756;13479
524764;13614
524772;13647
524780;13645
524788;13598
524797;13540
524805;13509
524813;13490
524821;13442
524829;13389
524838;13333
524846;13451
524854;13993
524862;12225
524870;8107
524879;5221
524890;10976
524898;16158
524906;15840
524914;15167
524923;14582
524931;14305
524939;14052
524947;13817
524955;13710
524964;13646
524972;13607
524980;13539
524988;13493
524996;13444
525005;13412
525013;13359
525021;13294
525029;13147
525037;12997
525046;12849
525054;12697
525062;12512
525070;12324
525078;12148
525086;12089
525095;12123
525103;12222
525111;12427
525119;12695
525127;13047
525136;13440
525144;13827
525152;14145
525160;14387
525168;14548
525177;14631
525188;14824
525196;14892
525204;14879
525212;14789
525221;14808
525229;14767
525237;14701
525245;14595
525253;14553
525262;14509
525270;14482
525278;14383
525286;14332
525294;14297
525303;14356
525311;14403
525319;14427
525327;14362
525335;14290
525343;14124
525352;14062
525360;13957
525368;13871
525376;13838
525384;13829
525393;13962
525401;14062
525409;14137
525417;14158
525425;14171
525434;14118
525442;14156
525450;14116
525458;14160
525466;14109
525475;14134
525483;14018
525494;14817
525502;13531
525510;9588
525519;6259
525527;7560
525535;15365
525543;16799
525551;16213
525560;15533
525568;15068
525576;14885
525584;14517
525592;14344
525601;14137
525609;14075
525617;13943
525625;13921
525633;13756
525641;13700
525650;13490
525658;13410
525666;13165
525674;13046
525682;12803
525691;12629
525699;12304
525707;12108
525715;11781
525723;11662
525732;11572
525740;11692
525748;11732
525756;12007
525764;12246
525773;12703
525781;13075
525789;13420
525800;13704
525808;13902
525817;13901
525825;13925
525833;13866
525841;13911
525849;13879
525858;13855
525866;13797
525874;13850
525882;13791
525890;13813
525898;13805
525907;13857
525915;13823
525923;13837
525931;13767
525939;13803
525948;13777
525956;13800
525964;13766
525972;13789
525980;13871
525989;13921
525997;13820
526005;13760
526013;13575
526021;13501
526030;13408
526038;13398
526046;13392
526054;13424
526062;13503
526071;13661
526079;13766
526087;13881
526098;14001
526106;14131
526115;14123
526123;14080
526131;13961
526139;13915
526147;13759
526156;14486
526164;13542
526172;9822
526180;5480
526188;5429
526196;12714
526205;15773
526213;15443
526221;14769
526229;14440
526237;14124
526246;13828
526254;13709
526262;13589
526270;13518
526278;13371
526287;13293
526295;13256
526303;13209
526311;13129
526319;13061
526328;12957
526336;12832
526344;12698
526352;12575
526360;12395
526369;12213
526377;12061
526385;11972
526393;11996
526404;12195
526413;12394
526421;12607
526429;12917
526437;13323
526445;13738
526454;14082
526462;14314
526470;14540
526478;14658
526486;14747
526494;14769
526503;14792
526511;14773
526519;14721
526527;14621
526535;14555
526544;14505
526553;14435
526561;14385
526569;14295
526577;14202
526586;14165
526594;14130
526602;14082
526610;14040
526618;14000
526627;14000
526635;13908
526643;13895
526651;13834
526659;13790
526668;13715
526676;13640
526684;13471
526692;13240
526700;13063
526712;13084
526720;13136
526728;13108
526736;13113
526744;13165
526753;13223
526761;13352
526769;13375
526777;13410
526785;13384
526793;13370
526802;13364
526810;13363
526818;13331
526826;13349
526834;14049
526843;12792
526851;8807
526859;5000
526867;5965
526875;13618
526884;15764
526892;15356
526900;14715
526908;14512
526916;14198
526925;13979
526933;13834
526941;13709
526949;13588
526957;13528
526966;13460
526974;13390
526982;13341
526990;13335
526998;13265
527010;13269
527018;13208
527026;13037
527034;12804
527042;12566
527050;12339
527059;12158
527067;12065
527075;12070
527083;12139
527091;12252
527100;12473
527108;12815
527116;13190
527124;13626
527132;13974
527141;14232
527149;14386
527157;14486
527165;14483
527173;14484
527182;14446
527190;14418
527198;14389
527206;14333
527214;14243
527223;14173
527231;14113
527239;14060
527247;13995
527255;13966
527263;13921
527272;13911
527280;13897
527288;13838
527296;13842
527304;13827
527316;13890
527324;13987
527332;13999
527340;13980
527348;13982
527357;13933
527365;13807
527373;13637
527381;13615
527389;13666
527398;13698
527406;13758
527414;13759
527422;13795
527430;13883
527439;13924
527447;13851
527455;13826
527463;13794
527471;13785
527480;13715
527488;13650
527496;13561
527504;13452
527512;14113
527521;13072
527529;9342
527537;5455
527545;5900
527553;13404
527561;15794
527570;15354
527578;14717
527586;14507
527594;14295
527602;14051
527611;13886
527622;13865
527630;13856
527638;13749
527646;13638
527655;13593
527663;13445
527671;13350
527679;13255
527687;13132
527696;12964
527704;12739
527712;12521
527720;12262
527728;11982
527737;11744
527745;11620
527753;11618
527761;11667
527769;11758
527778;11919
527786;12108
527794;12543
527802;13028
527810;13469
527818;13792
527827;14040
527835;14208
527843;14339
527851;14421
527859;14462
527868;14442
527876;14452
527884;14431
527892;14391
527900;14339
527909;14334
527920;14411
527928;14463
527936;14377
527944;14373
527953;14452
527961;14534
527969;14565
527977;14604
527985;14644
527994;14724
528002;14664
528010;14680
528018;14573
528026;14485
528035;14403
528043;14406
528051;14399
528059;14420
528067;14464
528076;14538
528084;14619
528092;14571
528100;14496
528108;14453
528116;14405
528125;14319
528133;14225
528141;14089
528149;13949
528157;13830
528166;14161
528174;13739
528182;10852
528190;7132
528198;6028
528207;12292
528215;16556
528226;15749
528234;14958
528242;14300
528251;13997
528259;13692
528267;13439
528275;13353
528283;13282
528292;13249
528300;13168
528308;13124
528316;13073
528324;13029
528333;12973
528341;12912
528349;12788
528357;12555
528365;12425
528374;12308
528383;12018
528391;11899
528399;11767
528407;11753
528415;11843
528424;11994
528432;12187
528440;12578
528448;12951
528456;13380
528465;13751
528473;14059
528481;14297
528489;14464
528497;14528
528506;14575
528514;14545
528522;14534
528533;14526
528541;14521
528550;14398
528558;14287
528566;14131
528574;13984
528582;13858
528591;13745
528599;13652
528607;13628
528615;13585
528623;13581
528632;13564
528640;13520
528648;13501
528656;13539
528664;13526
528673;13492
528681;13445
528689;13330
528697;13246
528705;13193
528713;13196
528722;13219
528730;13274
528738;13358
528746;13485
528754;13635
528763;13694
528771;13686
528779;13689
528787;13710
528795;13739
528804;13706
528812;13691
528820;13641
528831;14367
528839;13698
528848;10169
528856;6292
528864;5956
528872;13225
528880;16195
528889;15775
528897;15067
528905;14630
528913;14427
528921;14147
528930;13984
528938;13871
528946;13777
528954;13680
528962;13568
528970;13487
528979;13422
528987;13350
528995;13281
529003;13136
529011;12966
529020;12786
529028;12556
529036;12281
529044;12063
529052;11850
529061;11740
529069;11706
529077;11797
529085;11932
529093;12080
529102;12344
529110;12750
529118;13178
529126;13559
529137;14024
529146;14267
529154;14380
529162;14423
529170;14415
529178;14397
529187;14371
529195;14275
529203;14185
529211;14106
529219;14104
529228;14056
529236;13985
529244;13941
529252;13902
529260;13880
529268;13865
529277;13847
529285;13851
529293;13875
529301;13945
529309;14003
529318;14047
529326;14013
529334;13991
529342;13942
529350;13788
529359;13683
529367;13564
529375;13522
529383;13461
529391;13515
529400;13564
529408;13656
529416;13749
529424;13810
529435;13851
529444;13886
529452;13914
529460;13877
529468;13798
529476;13759
529485;13713
529493;14390
529501;13127
529509;9143
529517;5019
529526;5742
529534;13449
529542;15681
529550;15235
529558;14606
529566;14309
529575;13960
529583;13721
529591;13584
529599;13463
529607;13414
529616;13339
529624;13300
529632;13231
529640;13210
529648;13211
529657;13159
529665;13051
529673;12986
529681;12891
529689;12775
529698;12640
529706;12444
529714;12310
529722;12234
529730;12227
529742;12467
529750;12711
529758;12926
529766;13240
529774;13600
529783;14014
529791;14335
529799;14558
529807;14683
529815;14730
529823;14753
529832;14734
529840;14676
529848;14646
529856;14585
529864;14483
529873;14428
529881;14365
529889;14296
529897;14245
529905;14211
529914;14186
529922;14166
529930;14100
529938;14069
529946;14041
529955;14013
529963;14059
529971;14036
529979;13997
529987;13952
529996;13847
530004;13731
530012;13705
530020;13725
530028;13726
530036;13800
530048;13985
530056;14175
530064;14203
530072;14202
530081;14229
530089;14231
530097;14223
530105;14196
530113;14158
530121;14154
530130;13990
530138;14409
530146;14313
530154;11525
530162;6892
530171;4722
530179;10222
530187;15786
530195;15903
530203;15235
530212;14787
530220;14563
530228;14205
530236;14010
530244;13855
530253;13706
530261;13564
530269;13431
530277;13319
530286;13229
530295;13098
530303;13028
530311;12868
530319;12698
530327;12542
530335;12388
530344;12143
530354;11901
530362;11753
530370;11633
530380;11616
530388;11715
530396;11841
530404;12044
530412;12342
530420;12721
530429;13094
530437;13469
530445;13787
530453;14012
530461;14155
530470;14295
530478;14360
530486;14399
530494;14451
530502;14485
530511;14436
530519;14381
530527;14315
530535;14290
530543;14222
530552;14209
530560;14175
530568;14147
530576;14143
530584;14153
530593;14194
530601;14192
530609;14116
530617;14062
530625;13922
530633;13767
530642;13757
530653;13811
530661;13897
530669;13990
530678;14076
530686;14170
530694;14210
530702;14180
530710;14116
530718;14082
530727;14014
530735;13988
530743;13929
530751;13854
530759;13729
530768;13765
530776;14123
530784;12143
530792;8076
530800;5720
530809;8517
530817;15730
530825;16098
530833;15357
530841;14639
530850;14161
530858;13978
530866;13659
530874;13549
530882;13430
530890;13331
530899;13209
530907;13152
530915;13028
530923;12985
530931;12912
530940;12855
530948;12755
530959;12657
530967;12520
530975;12316
530984;12092
530992;11861
531000;11687
531008;11625
531016;11708
531025;11829
531033;12018
531041;12337
531049;12664
531057;13113
531066;13511
531074;13924
531082;14231
531090;14480
531098;14623
531107;14737
531115;14806
531123;14872
531131;14874
531139;14870
531148;14858
531156;14784
531164;14755
531172;14704
531180;14654
531188;14631
531197;14548
531205;14550
531213;14528
531221;14575
531229;14539
531238;14504
531246;14428
531257;14277
531265;14208
531273;14160
531282;14113
531290;14090
531298;14071
531306;14194
531314;14270
531323;14315
531331;14315
531339;14344
531347;14410
531355;14454
531364;14417
531372;14393
531380;14322
531388;14250
531396;14791
531405;13915
531413;10533
531421;7339
531429;7129
531437;14364
531446;17145
531454;16374
531462;15633
531470;14994
531478;14593
531486;14280
531495;14000
531503;13824
531511;13667
531519;13567
531527;13367
531536;13276
531544;13138
531552;13020
531563;12955
531571;12870
531580;12621
531588;12431
531596;12111
531604;11753
531612;11378
531621;11211
531629;11067
531637;11257
531645;11378
531653;11663
531662;11919
531670;12277
531678;12614
531686;13130
531694;13370
531703;13589
531711;13713
531719;13851
531727;13885
531735;13860
531743;13857
531752;13890
531760;13806
531768;13713
531776;13718
531784;13642
531793;13466
531801;13299
531809;13193
531817;13065
531825;13000
531834;12937
531842;12921
531850;12835
531858;12782
531869;12762
531878;12766
531886;12795
531894;12865
531902;12975
531910;13051
531919;13193
531927;13323
531935;13450
531943;13341
531951;13385
531960;13390
531968;13398
531976;13466
531984;13361
531992;13273
532001;13633
532009;13016
532017;10163
532025;7667
532033;7690
532041;12945
532050;16521
532058;15958
532066;15315
532074;14708
532082;14306
532091;14034
532099;13722
532107;13670
532115;13591
532123;13596
532132;13519
532140;13527
532148;13488
532156;13465
532167;13274
532176;13236
532184;13096
532192;12944
532200;12762
532208;12522
532217;12295
532225;12153
532233;12048
532241;12011
532249;12106
532258;12319
532266;12490
532274;12794
532282;13265
532290;13643
532298;13904
532307;14221
532315;14383
532323;14568
532331;14511
532339;14558
532348;14452
532356;14503
532365;14541
532373;14557
532381;14449
532390;14478
532398;14410
532406;14481
532414;14468
532422;14497
532431;14419
532439;14359
532447;14282
532455;14155
532463;13953
532474;14205
532482;14172
532490;14157
532499;14210
532507;14240
532516;14270
532524;14378
532532;14399
532540;14418
532548;14365
532557;14227
532565;14064
532573;14165
532581;14030
532589;13837
532598;13807
532606;13616
532614;11652
532622;9281
532630;9553
532638;12666
532647;16333
532655;15880
532663;15286
532671;14525
532679;13905
532688;13691
532696;13445
532704;13379
532712;13245
532720;13258
532729;13244
532737;13236
532745;13153
532753;13169
532761;13183
532770;13128
532781;13080
532789;13085
532797;12888
532805;12743
532814;12579
532822;12434
532830;12339
532838;12404
532846;12516
532855;12726
532863;13014
532871;13404
532879;13842
532887;14301
532895;14552
532904;14806
532912;14949
532920;15063
532928;15076
532936;15079
532945;15055
532953;15015
532961;14898
532969;14835
532977;14775
532986;14736
532994;14627
533002;14581
533010;14482
533018;14439
533027;14384
533035;14292
533043;14202
533051;14164
533059;14104
533068;14090
533079;14066
533087;14089
533095;14044
533103;14052
533112;13962
533120;13912
533128;13805
533136;13780
533144;13748
533153;13729
533161;13676
533169;13587
533177;13516
533185;13462
533193;13361
533202;13259
533210;13200
533218;13179
533226;13150
533234;13154
533243;13095
533251;13090
533259;13059
533267;13054
533275;13049
533284;13018
533292;13009
533300;13035
533308;13038
533316;13032
533325;13054
533333;12995
533341;12984
533349;12937
533357;12940
533366;12928
533374;12980
533385;13102
533393;13172
533401;13120
533410;13138
533418;13180
533426;13189
533434;13183
533442;13175
533450;13120
533459;13155
533467;13117
533475;13089
533483;13030
533491;12968
533500;12917
533508;12921
533516;12831
533524;12822
533532;12816
533541;12858
533549;12836
533557;12880
533565;12876
533573;12737
533582;12661
533590;12661
533598;12651
533606;12693
533614;12686
533623;12747
533631;12806
533639;12918
533647;12944
533655;12992
533663;12910
533672;12850
533683;13409
533691;12857
533699;10166
533708;6621
533716;5674
533724;10820
533732;14827
533740;14912
533748;14433
533757;14059
533765;13823
533773;13614
533781;13467
533789;13424
533798;13325
533806;13312
533814;13192
533822;13163
533830;13115
533839;13143
533847;13058
533855;13016
533863;12904
533871;12855
533880;12749
533888;12627
533896;12406
533904;12288
533912;12104
533921;12005
533929;11953
533937;12026
533945;12135
533953;12365
533961;12485
533970;12797
533978;13123
533989;13740
533997;13992
534006;14223
534014;14310
534022;14410
534030;14426
534038;14484
534046;14510
534055;14535
534063;14433
534071;14420
534079;14355
534087;14372
534096;14307
534104;14296
534112;14292
534120;14326
534128;14238
534137;14253
534145;14165
534153;14152
534161;14120
534169;14139
534178;14091
534186;14101
534194;14056
534202;14054
534210;13978
534218;13932
534227;13862
534235;13871
534243;13829
534251;13832
534259;13781
534268;13791
534276;13721
534284;13667
534295;13725
534303;13822
534312;13763
534320;13722
534328;13621
534336;13638
534344;13587
534353;13595
534361;13564
534369;13604
534377;13577
534385;13589
534394;13557
534402;13581
534410;13444
534418;13326
534426;13311
534435;13383
534443;13404
534451;13413
534459;13376
534467;13359
534476;13370
534484;13436
534492;13560
534500;13563
534508;13504
534516;13462
534525;13396
534533;13814
534541;13071
534550;10019
534558;6186
534567;6107
534575;12467
534583;15510
534593;15280
534601;15092
534610;14940
534618;14683
534626;14496
534634;14461
534642;14343
534651;14235
534659;14088
534667;14033
534675;13953
534683;13864
534692;13736
534700;13648
534709;13496
534717;13315
534725;13086
534734;12856
534742;12617
534750;12345
534758;12063
534766;11789
534775;11658
534783;11620
534791;11691
534799;11804
534807;12065
534815;12471
534824;13022
534832;13517
534840;13971
534848;14256
534856;14429
534865;14480
534873;14508
534881;14432
534889;14428
534900;14398
534909;14354
534917;14290
534925;14214
534933;14149
534941;14087
534950;13994
534958;13925
534966;13863
534974;13768
534982;13697
534991;13689
534999;13655
535007;13619
535015;13557
535023;13569
535032;13550
535040;13535
535048;13531
535056;13512
535064;13493
535073;13495
535081;13503
535089;13566
535097;13556
535105;13552
535113;13525
535122;13550
535130;13564
535138;13576
535146;13555
535154;13451
535163;13255
535171;13131
535179;13085
535187;13154
535195;13170
535207;13263
535215;13337
535223;13373
535231;13391
535239;13444
535248;13447
535256;13419
535264;13362
535272;13285
535280;13177
535289;13277
535297;13507
535305;12268
535313;8537
535321;5636
535330;7378
535338;14235
535346;15580
535354;14951
535362;14403
535370;14309
535379;13970
535387;13879
535395;13750
535403;13690
535411;13587
535420;13599
535428;13517
535436;13535
535444;13433
535452;13410
535461;13275
535469;13254
535477;13124
535485;13072
535493;12894
535505;12766
535513;12509
535521;12303
535529;12068
535537;12060
535546;12048
535554;12204
535562;12321
535570;12717
535578;13118
535587;13625
535595;13985
535603;14346
535611;14512
535619;14654
535628;14664
535636;14755
535644;14726
535652;14725
535660;14645
535668;14664
535677;14595
535685;14539
535693;14449
535701;14472
535709;14374
535718;14342
535726;14302
535734;14311
535742;14339
535750;14364
535759;14314
535767;14306
535775;14276
535783;14246
535791;14170
535800;14119
535811;14134
535819;14189
535827;14068
535835;14064
535844;13998
535852;14013
535860;14022
535868;13952
535876;13788
535885;13676
535893;13632
535901;13679
535909;13633
535917;13611
535926;13590
535934;13670
535942;13762
535950;13840
535958;13836
535966;13830
535975;13766
535983;13735
535991;13708
535999;13595
536007;13649
536016;13857
536024;12320
536032;8551
536040;5810
536048;8277
536057;15020
536065;15794
536073;14967
536081;14332
536089;14153
536098;13860
536106;13691
536117;13621
536125;13585
536133;13491
536142;13427
536150;13360
536158;13296
536166;13228
536174;13150
536183;13016
536191;12922
536199;12816
536207;12679
536215;12485
536223;12245
536232;12013
536240;11791
536248;11650
536256;11662
536264;11711
536273;11815
536281;11982
536289;12295
536297;12692
536305;13152
536314;13561
536322;13908
536330;14135
536338;14264
536346;14304
536355;14311
536363;14345
536371;14326
536379;14285
536387;14237
536396;14174
536404;14135
536415;14150
536423;14155
536431;14140
536440;14182
536448;14222
536456;14228
536464;14168
536472;14149
536481;14125
536489;14103
536497;14072
536505;14058
536513;13934
536521;13915
536530;13826
536538;13860
536546;13898
536554;13977
536562;13889
536571;13821
536579;13646
536587;13606
536595;13576
536603;13622
536612;13576
536620;13628
536628;13618
536636;13675
536644;13730
536653;13721
536661;13671
536669;13623
536677;13570
536685;13547
536694;13458
536702;13364
536710;13840
536721;12412
536729;8826
536738;5757
536746;7415
536754;14759
536762;15861
536770;15146
536778;14433
536787;14227
536795;13975
536803;13842
536811;13750
536819;13684
536828;13602
536836;13562
536844;13492
536852;13464
536860;13358
536869;13297
536877;13174
536885;13085
536894;12960
536902;12897
536911;12731
536919;12514
536927;12251
536935;12009
536943;11803
536952;11773
536960;11807
536968;11891
536976;12024
536984;12332
536993;12686
537001;13125
537009;13545
537017;13935
537028;14370
537037;14640
537045;14712
537053;14734
537061;14700
537069;14717
537078;14654
537086;14583
537094;14505
537102;14453
537110;14411
537118;14372
537127;14337
537135;14356
537143;14307
537151;14326
537159;14301
537168;14327
537176;14381
537184;14417
537192;14397
537200;14323
537209;14207
537217;14017
537225;13824
537233;13793
537241;13752
537250;13804
537258;13857
537266;13926
537274;14012
537282;14031
537290;13968
537299;13963
537307;13919
537315;13861
537326;13853
537335;13863
537343;13767
537351;14075
537359;13752
537367;11364
537375;7831
537384;6494
537392;11922
537400;16829
537408;16315
537416;15537
537425;14840
537433;14614
537441;14442
537449;14226
537457;14133
537466;14092
537474;14031
537482;13970
537490;13848
537498;13687
537507;13622
537515;13495
537523;13413
537531;13257
537539;13141
537548;12908
537556;12725
537564;12411
537572;12100
537580;11801
537588;11667
537597;11549
537605;11596
537613;11646
537621;11879
537633;12328
537641;12796
537649;13164
537657;13522
537665;13773
537673;13974
537682;14007
537690;14044
537698;14027
537706;14015
537714;13971
537723;13950
537731;13845
537739;13825
537747;13742
537755;13738
537764;13665
537772;13700
537780;13686
537788;13734
537796;13738
537805;13734
537813;13736
537821;13795
537829;13759
537837;13765
537846;13578
537854;13501
537862;13396
537870;13426
537878;13428
537886;13473
537895;13482
537903;13615
537911;13714
537919;13746
537927;13766
537939;13907
537947;13915
537955;13865
537963;13779
537971;13740
537980;13798
537988;14175
537996;12691
538004;8925
538012;5736
538021;8049
538029;15372
538037;16193
538045;15461
538053;14794
538062;14555
538070;14245
538078;14017
538086;13949
538094;13873
538103;13754
538111;13673
538119;13580
538127;13510
538135;13425
538143;13368
538152;13267
538160;13127
538168;12958
538176;12776
538184;12574
538193;12331
538201;12052
538209;11877
538217;11802
538225;11826
538237;12024
538245;12275
538253;12521
538261;12863
538269;13261
538278;13670
538286;14014
538294;14263
538302;14453
538310;14537
538319;14600
538327;14659
538335;14664
538343;14622
538351;14603
538360;14524
538368;14404
538376;14310
538384;14263
538392;14221
538401;14178
538409;14164
538417;14168
538425;14127
538433;14139
538441;14075
538450;14122
538458;14120
538466;14114
538474;14058
538482;13891
538491;13714
538499;13585
538507;13476
538515;13376
538523;13351
538532;13408
538551;13922
538559;13982
538567;13944
538576;13873
538584;13780
538592;13636
538600;13562
538608;13419
538617;13260
538625;13554
538633;13218
538641;10676
538649;6564
538658;4784
538666;10423
538674;15306
538682;15190
538690;14511
538698;14121
538707;13935
538715;13674
538723;13551
538731;13478
538739;13473
538748;13455
538756;13397
538764;13373
538772;13362
538780;13306
538789;13280
538797;13225
538805;13145
538813;12998
538821;12813
538830;12622
538838;12398
538846;12169
538857;12071
538865;12106
538874;12135
538882;12219
538890;12411
538898;12640
538906;12995
538915;13403
538923;13775
538931;14068
538939;14279
538947;14410
538956;14493
538964;14548
538972;14534
538980;14507
538988;14457
538996;14399
539005;14365
539013;14325
539021;14293
539029;14224
539037;14155
539046;14145
539054;14167
539062;14192
539070;14268
539078;14288
539087;14254
539095;14224
539103;14222
539111;14202
539119;14152
539128;14075
539136;13911
539144;13787
539155;13759
539163;13737
539172;13736
539180;13789
539188;13820
539196;13890
539204;13906
539213;13885
539221;13825
539229;13807
539237;13822
539245;13806
539254;13778
539262;13708
539270;13884
539278;14136
539286;12246
539294;8131
539303;5182
539311;8649
539319;15343
539327;15741
539335;15043
539344;14532
539352;14369
539360;14082
539368;13918
539376;13855
539385;13839
539393;13705
539401;13620
539409;13551
539417;13479
539426;13385
539435;13334
539443;13187
539451;13037
539461;12869
539470;12766
539478;12514
539486;12279
539494;12003
539502;11839
539511;11730
539519;11729
539527;11762
539535;11877
539543;12102
539551;12510
539560;12940
539568;13384
539576;13715
539585;14004
539593;14115
539602;14138
539610;14139
539618;14143
539626;14084
539634;14057
539643;13981
539651;13977
539659;13936
539667;13854
539675;13753
539684;13715
539692;13670
539700;13655
539708;13652
539716;13687
539725;13710
539733;13732
539741;13739
539749;13803
539757;13882
539769;13964
539777;13950
539785;13851
539793;13727
539801;13599
539810;13569
539818;13530
539826;13552
539834;13602
539842;13636
539850;13750
539859;13793
539867;13776
539875;13787
539883;13802
539891;13762
539900;13742
539908;13703
539916;13649
539924;13886
539932;14096
539941;12109
539949;8112
539957;5576
539965;9690
539973;15814
539982;15898
539990;15115
539998;14557
540006;14355
540014;14069
540023;13901
540031;13822
540039;13775
540047;13684
540055;13593
540067;13595
540075;13593
540083;13524
540091;13453
540099;13319
540108;13154
540116;12984
540124;12804
540132;12586
540140;12382
540148;12231
540157;12120
540165;12122
540173;12146
540181;12192
540189;12341
540198;12592
540206;12932
540214;13278
540222;13629
540230;13892
540239;14110
540247;14261
540255;14337
540263;14334
